ECG,RED,IR,PCG
2040,103677,73580,0
2046,103683,73619,0
2036,103686,73577,0
2042,103636,73563,0
2068,103645,73653,0
2064,103702,73581,0
2082,103671,73586,0
2118,103635,73608,0
2120,103694,73636,0
2144,103642,73630,0
2192,103646,73602,0
2230,103709,73593,0
2236,103651,73635,0
2309,103689,73618,0
2376,103648,73576,0
2444,103688,73650,0
2537,103692,73603,0
2632,103656,73620,0
2708,103609,73649,0
2788,103703,73598,0
2880,103714,73590,0
3012,103675,73601,0
3088,103625,73632,0
3205,103645,73623,0
3300,103637,73605,0
3408,103684,73630,0
3520,103638,73605,0
3616,103701,73650,0
3696,103654,73661,0
3772,103708,73635,0
3816,103683,73563,0
3848,103652,73660,0
3848,103703,73651,0
3880,103666,73607,0
3805,103665,73664,0
3778,103719,73611,0
3732,103672,73644,0
3680,103630,73671,0
3624,103713,73610,0
3552,103707,73648,0
3472,103708,73610,0
3418,103684,73625,0
3336,103670,73683,0
3242,103716,73640,0
3148,103709,73618,0
3078,103650,73655,0
2986,103719,73653,0
2908,103685,73678,0
2844,103726,73650,0
2780,103724,73604,0
2710,103681,73670,0
2640,103717,73673,0
2576,103675,73640,0
2512,103727,73640,0
2452,103693,73661,0
2414,103689,73652,0
2352,103719,73702,0
2297,103718,73670,0
2257,103723,73698,0
2208,103723,73639,0
2180,103688,73649,0
2146,103690,73722,0
2132,103736,73680,0
2084,103721,73638,0
2104,103679,73707,0
2036,103744,73708,0
2024,103672,73720,0
1994,103715,73676,0
1984,103740,73664,0
1964,103699,73698,0
1936,103730,73713,0
1913,103684,73642,0
1896,103716,73713,0
1860,103756,73679,0
1841,103707,73707,0
1853,103651,73719,0
1804,103741,73716,0
1791,103725,73718,0
1789,103731,73691,0
1782,103712,73689,0
1816,103699,73763,0
1808,103753,73690,0
1800,103723,73706,0
1808,103812,73781,0
1810,103668,73732,0
1802,103669,73730,0
1829,103764,73713,0
1784,103722,73734,0
1818,103758,73688,0
1810,103716,73762,0
1800,103746,73730,0
1812,103748,73672,0
1812,103730,73744,0
1802,103750,73719,0
1802,103698,73764,0
1800,103685,73755,0
1776,103808,73720,0
1810,103726,73747,0
1816,103692,73769,0
1804,103756,73767,0
1816,103716,73760,0
1816,103755,73727,0
1816,103717,73693,0
1820,103709,73805,0
1818,103732,73748,0
1824,103745,73736,0
1840,103693,73750,0
1796,103780,73735,0
1810,103721,73806,0
1813,103728,73755,0
1802,103759,73720,0
1852,103740,73794,0
1855,103771,73753,0
1865,103729,73730,0
1860,103713,73798,0
1864,103812,73781,0
1848,103745,73759,0
1860,103702,73781,0
1864,103737,73795,0
1866,103761,73739,0
1866,103755,73744,0
1861,103709,73776,0
1876,103790,73807,0
1878,103714,73796,0
1894,103738,73760,0
1894,103782,73778,0
1906,103736,73789,0
1912,103762,73805,0
1910,103738,73732,0
1916,103761,73801,0
1920,103797,73778,0
1929,103726,73826,0
1918,103701,73815,0
1928,103791,73774,0
1930,103763,73808,0
1920,103768,73763,0
1928,103759,73765,0
1917,103724,73846,0
1942,103802,73771,0
1894,103768,73786,0
1907,103686,73781,0
1912,103781,73815,0
1901,103729,73850,0
1950,103773,73794,0
1958,103762,73770,0
1958,103745,73827,0
1888,103770,73827,0
1982,103732,73806,0
1948,103780,73838,0
1972,103746,73828,0
1976,103762,73822,0
1976,103725,73851,0
1968,103746,73797,0
1964,103738,73850,0
1988,103806,73790,0
1953,103740,73874,0
1964,103714,73834,0
1962,103782,73815,0
1965,103756,73839,0
1936,103777,73806,0
1968,103727,73793,0
1968,103747,73869,0
1976,103803,73821,0
1987,103759,73822,0
1984,103726,73843,0
1998,103796,73866,0
1996,103754,73873,0
2008,103823,73823,0
2012,103775,73789,0
1996,103756,73889,0
1972,103784,73871,0
1970,103767,73863,0
1978,103744,73870,0
1980,103816,73827,0
1986,103785,73890,0
2010,103781,73857,0
2012,103766,73818,0
2010,103780,73892,0
2008,103796,73851,0
2020,103789,73868,0
2017,103756,73886,0
2026,103824,73858,0
2030,103772,73839,0
2036,103766,73860,0
2036,103763,73934,0
2052,103816,73865,0
2046,103802,73872,0
2072,103733,73873,0
2046,103823,73883,0
2056,103757,73928,0
2056,103761,73878,0
2047,103826,73889,0
2040,103783,73886,0
2038,103806,73910,0
2040,103755,73889,0
2034,103802,73915,0
2034,103842,73871,0
2029,103786,73886,0
2040,103729,73919,0
2040,103834,73900,0
2045,103809,73907,0
2044,103804,73887,0
2056,103791,73858,0
2016,103782,73938,0
2032,103815,73876,0
2028,103816,73823,0
2032,103767,73910,0
2068,103815,73890,0
2074,103798,73884,0
2046,103731,73920,0
2072,103848,73882,0
2076,103825,73874,0
2072,103796,73901,0
2072,103739,73869,0
2065,103792,73904,0
2068,103810,73875,0
2061,103789,73906,0
2064,103759,73892,0
2061,103783,73881,0
2098,103817,73888,0
2062,103825,73870,0
2066,103790,73814,0
2032,103762,73939,0
2084,103812,73883,0
2084,103798,73885,0
2088,103726,73868,0
2090,103830,73880,0
2090,103772,73919,0
2096,103809,73853,0
2096,103822,73843,0
2084,103784,73863,0
2092,103788,73875,0
2085,103764,73813,0
2082,103793,73918,0
2076,103828,73843,0
2046,103762,73829,0
2040,103725,73897,0
2040,103796,73856,0
2047,103771,73867,0
2072,103741,73829,0
2068,103805,73841,0
2074,103766,73891,0
2073,103786,73849,0
2074,103765,73815,0
2076,103771,73810,0
2080,103780,73832,0
2047,103707,73852,0
2088,103787,73847,0
2052,103755,73868,0
2080,103804,73815,0
2080,103757,73860,0
2076,103697,73826,0
2070,103807,73808,0
2101,103764,73830,0
2060,103770,73789,0
2072,103737,73803,0
2060,103727,73858,0
2072,103802,73794,0
2072,103760,73774,0
2040,103701,73825,0
2072,103774,73829,0
2080,103737,73828,0
2076,103749,73788,0
2100,103765,73771,0
2092,103727,73819,0
2106,103747,73800,0
2104,103736,73733,0
2084,103757,73810,0
2077,103748,73770,0
2096,103740,73762,0
2074,103705,73831,0
2128,103792,73776,0
2084,103734,73793,0
2100,103666,73764,0
2098,103766,73775,0
2096,103701,73787,0
2098,103743,73760,0
2100,103741,73742,0
2096,103741,73773,0
2096,103702,73787,0
2096,103687,73784,0
2100,103760,73743,0
2100,103715,73738,0
2108,103664,73766,0
2104,103757,73776,0
2108,103711,73780,0
2106,103754,73731,0
2104,103727,73722,0
2104,103697,73794,0
2108,103712,73752,0
2098,103716,73700,0
2106,103711,73783,0
2100,103743,73724,0
2094,103689,73774,0
2090,103635,73756,0
2090,103779,73741,0
2064,103707,73743,0
2106,103702,73736,0
2098,103703,73725,0
2069,103683,73787,0
2074,103754,73734,0
2080,103695,73727,0
2088,103646,73771,0
2100,103748,73738,0
2105,103687,73763,0
2112,103721,73721,0
2112,103726,73707,0
2114,103697,73743,0
2112,103714,73775,0
2089,103690,73730,0
2090,103716,73731,0
2084,103706,73731,0
2080,103646,73762,0
2080,103704,73748,0
2090,103704,73758,0
2080,103712,73738,0
2082,103678,73690,0
2086,103683,73824,0
2088,103707,73728,0
2088,103711,73729,0
2092,103642,73744,0
2096,103730,73740,0
2114,103679,73773,0
2112,103678,73731,0
2120,103715,73714,0
2116,103674,73760,0
2120,103703,73766,0
2117,103660,73780,0
2122,103639,73749,0
2116,103752,73747,0
2124,103680,73761,0
2080,103718,73755,0
2084,103680,73743,0
2080,103720,73757,0
2080,103713,73736,0
2112,103682,73738,0
2102,103634,73810,0
2104,103718,73752,0
2112,103717,73778,0
2110,103664,73747,0
2112,103688,73806,0
2108,103692,73777,0
2112,103687,73767,0
2124,103697,73772,0
2128,103683,73781,0
2128,103729,73770,0
2132,103663,73726,0
2130,103701,73808,0
2128,103741,73739,0
2132,103684,73754,0
2128,103631,73795,0
2132,103717,73762,0
2136,103718,73790,0
2132,103685,73758,0
2122,103714,73751,0
2121,103695,73818,0
2124,103703,73766,0
2128,103711,73725,0
2108,103663,73789,0
2132,103738,73771,0
2132,103674,73802,0
2144,103686,73756,0
2136,103732,73754,0
2114,103691,73789,0
2120,103706,73785,0
2124,103696,73742,0
2130,103696,73821,0
2152,103753,73769,0
2144,103671,73769,0
2152,103643,73801,0
2150,103674,73802,0
2140,103724,73778,0
2136,103657,73771,0
2132,103698,73789,0
2122,103695,73836,0
2116,103688,73775,0
2124,103721,73754,0
2128,103699,73796,0
2116,103720,73769,0
2128,103689,73758,0
2128,103685,73815,0
2126,103744,73751,0
2136,103669,73759,0
2134,103619,73798,0
2132,103725,73779,0
2128,103700,73784,0
2126,103674,73753,0
2124,103713,73728,0
2128,103666,73815,0
2116,103709,73755,0
2120,103717,73760,0
2116,103706,73800,0
2108,103705,73770,0
2120,103675,73756,0
2084,103671,73821,0
2088,103750,73768,0
2094,103700,73782,0
2093,103634,73793,0
2128,103734,73802,0
2134,103697,73797,0
2136,103736,73773,0
2153,103695,73737,0
2156,103674,73802,0
2186,103704,73779,0
2148,103648,73784,0
2129,103717,73742,0
2156,103691,73806,0
2160,103655,73847,0
2157,103721,73800,0
2152,103712,73815,0
2152,103725,73782,0
2138,103697,73752,0
2140,103677,73859,0
2144,103717,73797,0
2140,103719,73769,0
2130,103672,73835,0
2133,103733,73800,0
2136,103685,73836,0
2100,103666,73794,0
2140,103754,73808,0
2140,103690,73818,0
2138,103699,73822,0
2145,103669,73768,0
2152,103684,73846,0
2160,103760,73793,0
2146,103674,73796,0
2118,103654,73846,0
2130,103726,73799,0
2120,103706,73818,0
2104,103703,73789,0
2141,103721,73817,0
2108,103683,73860,0
2122,103718,73793,0
2122,103711,73760,0
2121,103693,73775,0
2128,103705,73826,0
2136,103652,73846,0
2148,103723,73810,0
2138,103723,73795,0
2144,103662,73836,0
2144,103735,73839,0
2158,103681,73840,0
2126,103680,73813,0
2164,103749,73793,0
2160,103679,73834,0
2165,103706,73828,0
2168,103680,73781,0
2160,103705,73867,0
2160,103717,73810,0
2156,103700,73758,0
2156,103682,73859,0
2148,103726,73813,0
2148,103690,73831,0
2154,103644,73819,0
2144,103729,73832,0
2130,103672,73868,0
2156,103713,73816,0
2160,103720,73785,0
2120,103693,73845,0
2132,103718,73832,0
2144,103653,73795,0
2142,103672,73865,0
2184,103745,73800,0
2184,103694,73823,0
2176,103640,73847,0
2181,103695,73822,0
2186,103705,73811,0
2186,103668,73843,0
2180,103688,73800,0
2182,103660,73855,0
2193,103670,73837,0
2161,103685,73762,0
2170,103677,73832,0
2175,103719,73833,0
2168,103675,73815,0
2168,103657,73843,0
2166,103756,73807,0
2172,103678,73843,0
2174,103699,73847,0
2144,103689,73828,0
2176,103695,73866,0
2180,103728,73823,0
2192,103685,73763,0
2200,103655,73889,0
2192,103710,73826,0
2188,103712,73846,0
2180,103660,73807,0
2197,103700,73795,0
2170,103686,73884,0
2180,103706,73833,0
2140,103699,73776,0
2152,103663,73859,0
2132,103718,73827,0
2124,103675,73851,0
2160,103620,73818,0
2160,103747,73819,0
2157,103667,73841,0
2162,103690,73828,0
2162,103613,73845,0
2166,103675,73833,0
2176,103679,73835,0
2172,103662,73835,0
2180,103677,73852,0
2176,103627,73827,0
2184,103737,73828,0
2186,103703,73834,0
2192,103693,73827,0
2198,103680,73806,0
2192,103679,73864,0
2198,103723,73826,0
2221,103656,73801,0
2176,103635,73877,0
2180,103707,73850,0
2188,103676,73841,0
2193,103664,73808,0
2188,103682,73790,0
2180,103682,73873,0
2186,103680,73840,0
2189,103667,73768,0
2192,103676,73866,0
2192,103720,73808,0
2234,103678,73852,0
2202,103616,73827,0
2164,103729,73813,0
2176,103653,73829,0
2164,103695,73812,0
2196,103662,73810,0
2180,103681,73852,0
2180,103723,73814,0
2193,103657,73778,0
2172,103666,73819,0
2148,103662,73851,0
2170,103635,73848,0
2168,103692,73808,0
2173,103659,73809,0
2160,103680,73824,0
2180,103631,73778,0
2164,103663,73859,0
2181,103710,73798,0
2178,103651,73819,0
2188,103607,73852,0
2192,103685,73796,0
2148,103679,73822,0
2192,103686,73801,0
2186,103647,73763,0
2180,103639,73875,0
2178,103694,73806,0
2174,103678,73804,0
2178,103602,73799,0
2172,103712,73812,0
2164,103642,73862,0
2166,103666,73801,0
2152,103680,73756,0
2136,103653,73822,0
2136,103694,73812,0
2146,103628,73773,0
2156,103639,73847,0
2162,103691,73789,0
2202,103638,73806,0
2204,103593,73813,0
2218,103659,73800,0
2232,103669,73817,0
2224,103689,73797,0
2224,103629,73805,0
2240,103629,73806,0
2244,103602,73797,0
2232,103665,73818,0
2234,103694,73763,0
2230,103642,73807,0
2221,103569,73831,0
2216,103689,73798,0
2208,103653,73822,0
2220,103648,73781,0
2216,103633,73805,0
2218,103618,73841,0
2224,103703,73788,0
2225,103640,73742,0
2232,103611,73823,0
2232,103682,73819,0
2232,103628,73817,0
2241,103603,73802,0
2244,103682,73769,0
2252,103640,73838,0
2258,103642,73803,0
2252,103629,73775,0
2244,103653,73815,0
2216,103673,73787,0
2208,103634,73786,0
2210,103570,73838,0
2204,103709,73792,0
2234,103660,73810,0
2220,103630,73795,0
2212,103660,73817,0
2148,103613,73837,0
2224,103638,73824,0
2204,103669,73768,0
2220,103614,73768,0
2220,103632,73839,0
2220,103620,73804,0
2226,103663,73758,0
2229,103614,73827,0
2224,103660,73816,0
2224,103608,73815,0
2221,103579,73802,0
2216,103698,73795,0
2230,103643,73806,0
2192,103646,73806,0
2216,103613,73780,0
2216,103645,73829,0
2208,103679,73792,0
2202,103625,73785,0
2212,103560,73827,0
2196,103666,73813,0
2192,103645,73825,0
2194,103649,73795,0
2202,103615,73780,0
2196,103616,73872,0
2168,103651,73829,0
2164,103657,73778,0
2170,103596,73823,0
2184,103670,73801,0
2176,103610,73836,0
2224,103617,73804,0
2228,103659,73800,0
2230,103640,73817,0
2224,103664,73808,0
2226,103601,73812,0
2224,103649,73792,0
2236,103667,73808,0
2220,103641,73783,0
2214,103622,73836,0
2214,103563,73833,0
2256,103702,73794,0
2210,103654,73809,0
2212,103624,73800,0
2210,103641,73821,0
2200,103599,73837,0
2232,103681,73792,0
2216,103622,73718,0
2212,103607,73858,0
2216,103663,73808,0
2252,103624,73823,0
2224,103593,73794,0
2234,103657,73782,0
2212,103603,73862,0
2220,103615,73798,0
2216,103642,73779,0
2210,103624,73821,0
2212,103655,73780,0
2210,103611,73805,0
2192,103560,73849,0
2172,103689,73793,0
2176,103622,73811,0
2170,103563,73803,0
2202,103644,73825,0
2189,103609,73847,0
2204,103679,73815,0
2205,103657,73832,0
2208,103628,73812,0
2214,103607,73811,0
2216,103675,73817,0
2216,103660,73774,0
2218,103652,73784,0
2216,103596,73792,0
2228,103563,73856,0
2213,103679,73816,0
2214,103633,73833,0
2192,103599,73789,0
2184,103633,73831,0
2196,103602,73846,0
2192,103657,73807,0
2186,103617,73754,0
2166,103590,73850,0
2160,103637,73831,0
2146,103615,73819,0
2140,103598,73810,0
2142,103672,73792,0
2138,103612,73838,0
2104,103617,73841,0
2132,103609,73760,0
2130,103621,73846,0
2080,103647,73788,0
2080,103603,73838,0
2082,103542,73836,0
2072,103671,73812,0
2098,103632,73811,0
2108,103570,73796,0
2109,103619,73835,0
2120,103591,73841,0
2130,103657,73832,0
2156,103612,73750,0
2148,103606,73838,0
2182,103614,73840,0
2194,103611,73810,0
2224,103634,73772,0
2261,103595,73829,0
2306,103643,73818,0
2362,103584,73841,0
2422,103557,73814,0
2484,103696,73789,0
2559,103608,73816,0
2636,103620,73842,0
2720,103619,73807,0
2808,103626,73845,0
2888,103653,73809,0
2976,103589,73759,0
3056,103557,73881,0
3148,103642,73815,0
3240,103625,73832,0
3322,103565,73808,0
3400,103633,73808,0
3480,103619,73883,0
3550,103619,73815,0
3608,103631,73777,0
3662,103623,73850,0
3692,103632,73833,0
3705,103623,73797,0
3692,103567,73873,0
3666,103680,73817,0
3644,103617,73827,0
3608,103563,73866,0
3564,103645,73828,0
3514,103602,73870,0
3464,103651,73805,0
3404,103568,73831,0
3336,103621,73876,0
3260,103598,73825,0
3180,103594,73856,0
3100,103678,73808,0
3008,103602,73858,0
2952,103601,73854,0
2886,103632,73823,0
2824,103648,73869,0
2764,103655,73827,0
2710,103617,73801,0
2672,103602,73897,0
2618,103662,73828,0
2558,103619,73847,0
2508,103560,73841,0
2464,103652,73865,0
2388,103596,73876,0
2388,103659,73827,0
2358,103639,73795,0
2320,103624,73863,0
2269,103640,73856,0
2212,103603,73820,0
2180,103622,73891,0
2148,103660,73831,0
2126,103632,73869,0
2120,103561,73880,0
2089,103659,73836,0
2068,103652,73875,0
2044,103638,73841,0
2028,103627,73854,0
1985,103583,73868,0
1992,103631,73879,0
1980,103633,73811,0
1978,103630,73830,0
1956,103624,73875,0
1944,103609,73884,0
1932,103686,73837,0
1928,103653,73810,0
1922,103627,73871,0
1904,103646,73895,0
1892,103614,73836,0
1882,103624,73881,0
1876,103686,73845,0
1864,103626,73876,0
1869,103570,73897,0
1874,103651,73855,0
1847,103631,73879,0
1844,103616,73847,0
1842,103646,73873,0
1848,103590,73920,0
1848,103649,73849,0
1853,103659,73812,0
1864,103624,73895,0
1828,103658,73893,0
1858,103610,73876,0
1846,103600,73877,0
1842,103692,73847,0
1904,103618,73884,0
1893,103641,73887,0
1904,103636,73833,0
1902,103666,73894,0
1900,103629,73873,0
1906,103617,73866,0
1904,103644,73886,0
1914,103583,73853,0
1900,103675,73883,0
1910,103640,73846,0
1906,103626,73902,0
1912,103633,73870,0
1919,103642,73855,0
1924,103649,73904,0
1926,103655,73848,0
1933,103618,73852,0
1934,103587,73938,0
1952,103682,73871,0
1956,103640,73853,0
1960,103589,73883,0
1958,103682,73891,0
1966,103621,73908,0
1928,103688,73860,0
1961,103640,73825,0
1960,103624,73920,0
1962,103646,73912,0
1956,103634,73872,0
1958,103611,73907,0
1904,103669,73865,0
1920,103625,73916,0
1916,103606,73894,0
1918,103672,73881,0
1956,103633,73906,0
1954,103664,73861,0
1954,103624,73871,0
1940,103595,73923,0
1964,103636,73910,0
1964,103633,73887,0
2010,103639,73877,0
1984,103610,73905,0
1990,103615,73882,0
1988,103657,73886,0
1992,103592,73939,0
1994,103686,73891,0
1990,103618,73935,0
1996,103608,73905,0
1970,103684,73891,0
2000,103654,73900,0
1992,103665,73915,0
1994,103619,73889,0
1996,103658,73937,0
2040,103690,73905,0
2002,103633,73863,0
2004,103606,73950,0
2014,103672,73920,0
2058,103669,73913,0
2020,103632,73902,0
2026,103664,73891,0
2028,103624,73969,0
2008,103660,73911,0
2008,103690,73864,0
2008,103643,73941,0
2014,103670,73922,0
2017,103632,73904,0
2042,103617,73966,0
2036,103720,73906,0
2040,103652,73917,0
2064,103628,73934,0
2036,103666,73937,0
2034,103688,73932,0
2028,103652,73935,0
2052,103636,73942,0
2026,103652,73954,0
2036,103612,73949,0
2052,103652,73918,0
2053,103687,73920,0
2064,103655,73968,0
2068,103661,73955,0
2078,103664,73919,0
2076,103693,73969,0
2080,103702,73907,0
2080,103646,73918,0
2090,103607,74000,0
2092,103693,73937,0
2043,103675,73952,0
2038,103648,73915,0
2077,103693,73965,0
2074,103650,73990,0
2076,103706,73937,0
2061,103682,73904,0
2076,103665,73974,0
2072,103690,73974,0
2028,103642,73944,0
2042,103652,73991,0
2042,103714,73947,0
2040,103658,73989,0
2077,103622,73982,0
2085,103683,73954,0
2064,103696,73981,0
2090,103708,73945,0
2106,103683,74004,0
2100,103647,73981,0
2100,103677,73965,0
2116,103721,73967,0
2132,103627,73946,0
2100,103672,74025,0
2108,103686,73976,0
2114,103685,73940,0
2116,103650,74006,0
2073,103708,73962,0
2120,103650,74033,0
2116,103626,73974,0
2120,103757,73947,0
2120,103677,73978,0
2124,103693,73981,0
2132,103661,73949,0
2132,103672,74015,0
2136,103741,73946,0
2142,103680,73981,0
2144,103616,73978,0
2144,103686,73974,0
2137,103678,73987,0
2110,103701,73939,0
2144,103685,73938,0
2112,103666,74015,0
2108,103687,73950,0
2113,103702,73906,0
2104,103655,73977,0
2129,103710,73957,0
2122,103654,74010,0
2128,103613,73952,0
2124,103716,73927,0
2126,103657,73945,0
2124,103677,73979,0
2124,103668,73966,0
2216,103635,73929,0
2168,103678,73975,0
2136,103713,73923,0
2140,103653,73978,0
2136,103598,73960,0
2149,103698,73940,0
2146,103670,73948,0
2150,103656,73904,0
2144,103658,73926,0
2132,103629,73966,0
2142,103690,73922,0
2104,103663,73907,0
2122,103611,73929,0
2120,103694,73945,0
2120,103643,73959,0
2116,103647,73907,0
2122,103684,73878,0
2125,103616,73954,0
2128,103654,73928,0
2121,103638,73865,0
2120,103657,73944,0
2112,103662,73875,0
2116,103633,73920,0
2118,103570,73916,0
2112,103686,73889,0
2144,103641,73904,0
2144,103630,73870,0
2146,103626,73890,0
2128,103622,73838,0
2132,103638,73845,0
2132,103612,73836,0
2124,103639,73866,0
2128,103618,73887,0
2126,103603,73840,0
2092,103620,73907,0
2120,103661,73839,0
2120,103614,73892,0
2128,103558,73888,0
2130,103639,73845,0
2134,103618,73871,0
2137,103644,73823,0
2144,103597,73844,0
2136,103585,73898,0
2144,103645,73848,0
2148,103612,73817,0
2112,103565,73873,0
2144,103633,73885,0
2144,103594,73871,0
2152,103603,73827,0
2138,103648,73827,0
2140,103584,73859,0
2138,103611,73866,0
2114,103611,73824,0
2104,103625,73869,0
2106,103632,73810,0
2114,103586,73804,0
2142,103553,73893,0
2142,103627,73824,0
2144,103589,73815,0
2136,103533,73834,0
2146,103622,73838,0
2140,103587,73873,0
2140,103601,73815,0
2140,103607,73806,0
2140,103555,73811,0
2140,103631,73818,0
2156,103560,73809,0
2140,103541,73818,0
2158,103634,73784,0
2120,103564,73799,0
2114,103575,73825,0
2104,103570,73794,0
2112,103601,73829,0
2112,103593,73782,0
2108,103568,73768,0
2104,103550,73865,0
2112,103603,73776,0
2112,103579,73763,0
2108,103537,73814,0
2116,103613,73789,0
2105,103549,73833,0
2124,103522,73785,0
2090,103625,73787,0
2108,103549,73813,0
2080,103576,73807,0
2060,103553,73782,0
2066,103580,73810,0
2080,103585,73776,0
2102,103574,73740,0
2100,103540,73845,0
2092,103593,73777,0
2096,103581,73765,0
2098,103534,73740,0
2088,103562,73812,0
2100,103545,73779,0
2100,103570,73786,0
2072,103587,73787,0
2106,103562,73769,0
2108,103563,73789,0
2129,103552,73822,0
2118,103611,73770,0
2128,103582,73733,0
2114,103546,73797,0
2120,103573,73804,0
2120,103547,73745,0
2116,103578,73824,0
2120,103587,73769,0
2116,103550,73726,0
2116,103528,73831,0
2114,103581,73776,0
2110,103572,73785,0
2108,103516,73792,0
2116,103612,73782,0
2108,103550,73825,0
2108,103533,73775,0
2104,103606,73780,0
2073,103545,73791,0
2100,103578,73803,0
2088,103543,73771,0
2085,103563,73831,0
2089,103615,73762,0
2132,103574,73718,0
2136,103546,73849,0
2140,103574,73786,0
2137,103588,73813,0
2138,103603,73812,0
2136,103566,73772,0
2136,103572,73833,0
2144,103558,73788,0
2136,103541,73803,0
2130,103603,73770,0
2122,103553,73823,0
2124,103513,73792,0
2088,103598,73803,0
2116,103595,73817,0
2140,103590,73761,0
2130,103575,73771,0
2126,103560,73831,0
2134,103625,73789,0
2137,103590,73742,0
2136,103536,73817,0
2150,103603,73822,0
2140,103542,73812,0
2148,103533,73790,0
2132,103625,73773,0
2148,103568,73785,0
2152,103571,73799,0
2146,103558,73789,0
2114,103602,73806,0
2102,103595,73762,0
2108,103563,73757,0
2096,103529,73853,0
2132,103609,73761,0
2134,103589,73807,0
2128,103550,73769,0
2128,103597,73786,0
2141,103580,73788,0
2112,103568,73781,0
2116,103591,73767,0
2134,103544,73770,0
2156,103564,73786,0
2164,103560,73779,0
2158,103603,73766,0
2156,103578,73791,0
2160,103596,73774,0
2162,103551,73772,0
2180,103539,73821,0
2152,103607,73766,0
2140,103558,73745,0
2137,103526,73820,0
2112,103598,73796,0
2180,103560,73790,0
2148,103531,73782,0
2144,103599,73757,0
2148,103556,73806,0
2144,103565,73780,0
2146,103586,73760,0
2152,103582,73826,0
2156,103593,73771,0
2156,103563,73805,0
2124,103486,73773,0
2128,103639,73769,0
2128,103575,73800,0
2122,103595,73769,0
2148,103561,73777,0
2156,103547,73809,0
2184,103622,73772,0
2156,103555,73724,0
2148,103581,73790,0
2144,103549,73836,0
2148,103580,73810,0
2142,103611,73760,0
2152,103545,73809,0
2137,103595,73786,0
2136,103552,73773,0
2144,103570,73836,0
2144,103592,73784,0
2154,103561,73768,0
2154,103532,73838,0
2168,103605,73799,0
2162,103585,73811,0
2157,103561,73762,0
2184,103587,73781,0
2192,103549,73842,0
2174,103600,73793,0
2174,103582,73758,0
2168,103545,73810,0
2152,103597,73809,0
2160,103556,73819,0
2164,103556,73785,0
2154,103615,73793,0
2154,103567,73813,0
2112,103607,73803,0
2120,103561,73777,0
2124,103587,73847,0
2114,103635,73801,0
2146,103582,73761,0
2153,103513,73854,0
2148,103595,73795,0
2150,103585,73824,0
2160,103580,73734,0
2164,103564,73829,0
2164,103594,73806,0
2170,103607,73839,0
2172,103591,73858,0
2164,103612,73794,0
2164,103568,73793,0
2156,103540,73852,0
2148,103626,73803,0
2146,103608,73824,0
2144,103576,73772,0
2141,103610,73826,0
2133,103567,73857,0
2136,103612,73799,0
2132,103588,73773,0
2136,103567,73840,0
2153,103598,73836,0
2160,103554,73798,0
2158,103555,73849,0
2160,103628,73806,0
2160,103566,73819,0
2160,103536,73831,0
2172,103592,73806,0
2168,103601,73841,0
2136,103600,73794,0
2140,103573,73763,0
2132,103557,73878,0
2124,103598,73821,0
2156,103593,73781,0
2148,103552,73820,0
2140,103637,73827,0
2136,103561,73847,0
2134,103616,73795,0
2144,103612,73803,0
2142,103580,73776,0
2138,103589,73824,0
2152,103529,73820,0
2120,103558,73847,0
2156,103614,73806,0
2168,103563,73834,0
2156,103530,73846,0
2160,103610,73826,0
2174,103587,73837,0
2156,103578,73806,0
2164,103573,73810,0
2160,103569,73867,0
2160,103612,73819,0
2160,103599,73773,0
2156,103564,73865,0
2154,103612,73839,0
2148,103557,73851,0
2156,103560,73795,0
2145,103614,73812,0
2146,103568,73852,0
2160,103592,73838,0
2152,103552,73767,0
2124,103576,73878,0
2128,103621,73819,0
2134,103565,73822,0
2116,103493,73870,0
2162,103613,73838,0
2156,103593,73846,0
2130,103571,73815,0
2152,103595,73827,0
2192,103547,73831,0
2156,103573,73839,0
2149,103619,73810,0
2148,103577,73833,0
2144,103566,73847,0
2140,103476,73850,0
2136,103636,73827,0
2144,103582,73847,0
2140,103559,73819,0
2133,103564,73837,0
2112,103552,73859,0
2114,103608,73815,0
2144,103573,73775,0
2144,103541,73862,0
2156,103580,73853,0
2164,103542,73813,0
2161,103548,73848,0
2160,103602,73809,0
2164,103572,73854,0
2168,103530,73834,0
2174,103581,73819,0
2168,103583,73846,0
2170,103579,73812,0
2172,103556,73788,0
2136,103537,73895,0
2144,103624,73826,0
2152,103576,73835,0
2149,103524,73798,0
2182,103592,73846,0
2181,103556,73846,0
2188,103607,73812,0
2197,103614,73870,0
2222,103576,73825,0
2192,103566,73864,0
2212,103567,73851,0
2210,103580,73771,0
2212,103616,73814,0
2208,103554,73862,0
2208,103526,73848,0
2204,103571,73818,0
2204,103573,73838,0
2200,103590,73822,0
2192,103564,73804,0
2188,103526,73884,0
2184,103602,73837,0
2176,103576,73827,0
2174,103519,73863,0
2170,103597,73861,0
2177,103540,73865,0
2168,103581,73835,0
2170,103587,73822,0
2176,103544,73875,0
2186,103582,73874,0
2184,103537,73786,0
2185,103589,73881,0
2152,103597,73819,0
2168,103563,73879,0
2160,103514,73881,0
2156,103603,73846,0
2188,103590,73876,0
2184,103581,73821,0
2174,103548,73831,0
2176,103544,73894,0
2164,103614,73870,0
2166,103568,73826,0
2172,103557,73844,0
2150,103542,73872,0
2156,103603,73847,0
2164,103641,73865,0
2158,103574,73859,0
2166,103552,73837,0
2160,103564,73864,0
2160,103561,73884,0
2168,103601,73863,0
2172,103568,73787,0
2168,103536,73915,0
2168,103582,73882,0
2173,103555,73890,0
2180,103520,73864,0
2180,103608,73851,0
2180,103550,73910,0
2172,103571,73884,0
2170,103591,73812,0
2154,103578,73897,0
2164,103613,73854,0
2156,103551,73884,0
2168,103511,73897,0
2124,103648,73876,0
2125,103585,73891,0
2144,103591,73867,0
2138,103558,73861,0
2168,103575,73904,0
2176,103604,73875,0
2180,103562,73835,0
2177,103551,73945,0
2176,103602,73876,0
2164,103594,73870,0
2176,103571,73903,0
2180,103554,73830,0
2164,103560,73932,0
2170,103601,73899,0
2156,103586,73903,0
2162,103602,73881,0
2154,103572,73857,0
2154,103588,73955,0
2144,103601,73904,0
2150,103606,73850,0
2116,103554,73932,0
2160,103630,73893,0
2148,103564,73936,0
2156,103532,73907,0
2146,103652,73895,0
2154,103571,73911,0
2162,103577,73900,0
2153,103596,73899,0
2148,103585,73936,0
2146,103615,73889,0
2152,103560,73861,0
2160,103571,73976,0
2122,103616,73919,0
2146,103588,73919,0
2128,103579,73889,0
2124,103604,73871,0
2152,103565,73965,0
2152,103585,73911,0
2152,103600,73853,0
2144,103562,73952,0
2158,103568,73928,0
2152,103590,73963,0
2148,103575,73931,0
2152,103595,73906,0
2148,103600,73892,0
2157,103581,73876,0
2156,103568,73995,0
2161,103612,73922,0
2166,103609,73928,0
2164,103528,73918,0
2166,103619,73945,0
2154,103567,73987,0
2156,103623,73917,0
2138,103594,73876,0
2132,103569,73972,0
2120,103600,73958,0
2108,103571,73931,0
2106,103574,73966,0
2089,103643,73920,0
2076,103582,73962,0
2062,103554,73957,0
2056,103629,73945,0
2060,103590,73967,0
2052,103628,73903,0
2012,103584,73905,0
2024,103561,74015,0
2030,103633,73960,0
2019,103591,73947,0
2066,103532,73948,0
2064,103634,73982,0
2082,103578,73993,0
2064,103627,73946,0
2116,103598,73940,0
2124,103602,73949,0
2152,103588,73982,0
2182,103604,73960,0
2220,103607,73965,0
2260,103582,73922,0
2316,103528,73987,0
2388,103619,73982,0
2456,103574,73983,0
2538,103633,73963,0
2612,103598,73910,0
2716,103591,74008,0
2812,103618,73957,0
2896,103593,73940,0
2994,103603,73970,0
3134,103649,73961,0
3199,103596,74006,0
3300,103568,73963,0
3408,103648,73951,0
3512,103618,73975,0
3594,103619,73959,0
3672,103580,73953,0
3732,103570,74010,0
3768,103678,73962,0
3796,103584,73976,0
3804,103545,73971,0
3793,103627,73972,0
3768,103612,74003,0
3722,103629,73967,0
3688,103582,73911,0
3632,103590,74036,0
3568,103639,73987,0
3496,103615,74009,0
3436,103606,73948,0
3356,103594,73984,0
3277,103585,73988,0
3190,103619,73980,0
3114,103660,73969,0
3024,103606,73985,0
2940,103640,73982,0
2853,103596,73967,0
2780,103584,74047,0
2720,103668,73991,0
2646,103614,73987,0
2579,103563,74030,0
2520,103639,74003,0
2456,103608,74020,0
2408,103623,73993,0
2352,103632,73974,0
2308,103618,74051,0
2262,103624,74021,0
2224,103616,73962,0
2188,103641,74043,0
2168,103637,73978,0
2128,103615,74025,0
2100,103553,74047,0
2042,103676,74005,0
2017,103618,74022,0
2028,103606,73992,0
1972,103629,74030,0
1978,103610,74049,0
1956,103664,74015,0
1904,103625,73961,0
1919,103611,74059,0
1900,103584,74049,0
1888,103634,74050,0
1876,103643,74060,0
1870,103647,73993,0
1848,103633,74044,0
1840,103621,74025,0
1842,103613,74062,0
1836,103664,74024,0
1828,103622,73993,0
1788,103619,74106,0
1816,103638,74032,0
1820,103634,74053,0
1829,103579,74023,0
1812,103665,74021,0
1822,103605,74087,0
1814,103634,74040,0
1808,103655,74001,0
1808,103646,74064,0
1808,103640,74047,0
1804,103618,74017,0
1753,103617,74086,0
1808,103701,74034,0
1800,103598,74063,0
1804,103576,74083,0
1764,103644,74065,0
1770,103650,74074,0
1786,103667,74056,0
1800,103617,73997,0
1828,103612,74122,0
1828,103647,74045,0
1832,103643,74037,0
1844,103610,74091,0
1846,103603,74078,0
1848,103636,74100,0
1844,103623,74049,0
1825,103677,74052,0
1848,103639,74048,0
1858,103634,74095,0
1846,103653,74076,0
1848,103637,74018,0
1856,103648,74110,0
1846,103685,74042,0
1856,103623,74105,0
1858,103583,74091,0
1860,103684,74069,0
1860,103642,74091,0
1836,103648,74079,0
1878,103640,74058,0
1882,103603,74125,0
1881,103696,74087,0
1918,103653,74065,0
1900,103592,74072,0
1904,103688,74093,0
1896,103631,74108,0
1908,103693,74057,0
1909,103636,74020,0
1876,103623,74118,0
1872,103664,74106,0
1865,103649,74069,0
1862,103621,74100,0
1888,103683,74071,0
1889,103641,74125,0
1896,103614,74088,0
1910,103676,74086,0
1905,103651,74056,0
1916,103633,74096,0
1919,103637,74130,0
1922,103642,74074,0
1938,103700,74116,0
1938,103638,74086,0
1953,103652,74076,0
1954,103636,74162,0
1960,103662,74086,0
1964,103678,74026,0
1964,103636,74133,0
1960,103682,74093,0
1957,103627,74127,0
1996,103599,74084,0
1948,103714,74091,0
1960,103639,74094,0
1958,103676,74113,0
1952,103646,74105,0
1952,103659,74136,0
1944,103706,74103,0
1968,103636,74048,0
1961,103616,74170,0
1976,103660,74090,0
1972,103659,74123,0
1948,103612,74097,0
1952,103674,74098,0
1964,103633,74161,0
1962,103669,74105,0
1992,103670,74069,0
2000,103649,74132,0
1997,103679,74124,0
2002,103652,74157,0
2008,103640,74119,0
2005,103696,74109,0
2002,103637,74094,0
1994,103644,74164,0
1992,103625,74106,0
1992,103641,74152,0
2000,103719,74100,0
1997,103662,74127,0
2000,103652,74142,0
1996,103681,74131,0
1984,103676,74160,0
2004,103690,74120,0
2012,103664,74064,0
2006,103636,74191,0
2016,103686,74140,0
2012,103690,74145,0
2033,103602,74116,0
2024,103693,74147,0
2020,103625,74173,0
2016,103684,74129,0
2012,103677,74093,0
1985,103650,74177,0
2002,103690,74162,0
1960,103631,74141,0
1960,103625,74140,0
1976,103726,74141,0
1984,103658,74154,0
2009,103659,74169,0
2018,103650,74113,0
2008,103680,74170,0
2020,103694,74132,0
2028,103652,74157,0
2037,103640,74156,0
2037,103636,74157,0
2034,103675,74171,0
2028,103675,74139,0
2052,103646,74201,0
2057,103676,74151,0
2047,103663,74150,0
2047,103640,74159,0
2047,103710,74135,0
2047,103652,74200,0
2040,103617,74145,0
2042,103702,74141,0
2033,103667,74168,0
2044,103684,74142,0
2066,103650,74122,0
2044,103617,74185,0
2047,103728,74124,0
2056,103672,74147,0
2058,103611,74133,0
2061,103666,74155,0
2062,103649,74165,0
2056,103702,74115,0
2064,103643,74060,0
2025,103637,74195,0
2038,103674,74137,0
2036,103655,74094,0
2028,103646,74172,0
2027,103682,74120,0
2064,103660,74162,0
2047,103585,74141,0
2052,103703,74143,0
2040,103646,74104,0
2044,103654,74134,0
2041,103650,74153,0
2044,103619,74135,0
2047,103669,74142,0
2056,103621,74066,0
2058,103644,74142,0
2064,103652,74136,0
2076,103621,74071,0
2040,103626,74132,0
2074,103667,74080,0
2084,103620,74134,0
2084,103567,74106,0
2084,103700,74082,0
2076,103652,74116,0
2078,103654,74082,0
2076,103611,74050,0
2072,103606,74135,0
2070,103653,74084,0
2068,103616,74087,0
2036,103562,74071,0
2072,103656,74094,0
2066,103611,74092,0
2072,103659,74062,0
2030,103612,74028,0
2040,103598,74097,0
2050,103627,74069,0
2056,103589,74000,0
2088,103628,74083,0
2088,103631,74045,0
2090,103592,74077,0
2089,103539,74052,0
2094,103637,74017,0
2054,103552,74053,0
2088,103615,74021,0
2092,103575,74045,0
2084,103579,74034,0
2084,103590,74041,0
2084,103562,74037,0
2076,103640,74023,0
2064,103564,74069,0
2080,103551,74023,0
2074,103594,73984,0
2064,103568,74034,0
2076,103604,74010,0
2076,103533,73976,0
2047,103550,74064,0
2081,103624,74008,0
2080,103545,73983,0
2084,103506,74018,0
2108,103587,74010,0
2096,103560,74009,0
2120,103548,73980,0
2090,103579,73960,0
2096,103547,74032,0
2094,103543,73984,0
2045,103568,73930,0
2062,103535,74014,0
2056,103579,73973,0
2040,103536,74005,0
2068,103486,73991,0
2076,103608,73956,0
2068,103529,73980,0
2074,103524,73967,0
2072,103528,74020,0
2072,103522,74002,0
2097,103541,73964,0
2076,103536,73936,0
2086,103520,73965,0
2080,103506,74004,0
2056,103549,73942,0
2092,103530,73905,0
2084,103508,73977,0
2080,103552,73987,0
2090,103516,73968,0
2078,103486,73972,0
2077,103587,73962,0
2066,103527,73965,0
2064,103477,73977,0
2072,103523,73944,0
2060,103541,73971,0
2065,103554,73939,0
2052,103507,73890,0
2064,103485,74038,0
2065,103529,73954,0
2074,103542,73941,0
2072,103463,73965,0
2076,103569,73952,0
2053,103499,73973,0
2056,103497,73961,0
2065,103557,73929,0
2064,103519,73954,0
2089,103528,73969,0
2096,103489,73914,0
2096,103524,73982,0
2100,103536,73935,0
2104,103481,73884,0
2090,103514,74003,0
2092,103514,73928,0
2082,103540,73973,0
2086,103523,73924,0
2084,103512,73974,0
2092,103524,73972,0
2090,103501,73909,0
2092,103516,73977,0
2096,103554,73918,0
2100,103488,73964,0
2092,103440,73958,0
2112,103558,73945,0
2112,103516,73957,0
2102,103466,73920,0
2098,103520,73953,0
2112,103501,73971,0
2108,103552,73934,0
2114,103517,73902,0
2104,103501,73961,0
2094,103510,73967,0
2086,103456,73909,0
2088,103507,73991,0
2076,103554,73938,0
2052,103491,73954,0
2068,103454,73960,0
2052,103538,73932,0
2050,103529,73965,0
2084,103514,73919,0
2096,103506,73946,0
2096,103476,73980,0
2092,103531,73935,0
2112,103542,73938,0
2114,103459,73922,0
2112,103498,73989,0
2104,103475,73982,0
2124,103512,73922,0
2080,103493,73975,0
2108,103535,73927,0
2114,103493,73991,0
2110,103419,73950,0
2106,103557,73939,0
2112,103498,73960,0
2105,103504,73938,0
2098,103492,73934,0
2100,103488,73974,0
2108,103552,73934,0
2114,103492,73882,0
2110,103457,73989,0
2122,103526,73942,0
2116,103505,73968,0
2116,103484,73941,0
2137,103514,73924,0
2128,103490,73997,0
2128,103512,73949,0
2134,103521,73920,0
2106,103502,73948,0
2114,103530,73939,0
2108,103482,73921,0
2101,103467,73996,0
2130,103578,73938,0
2124,103510,73939,0
2112,103447,73952,0
2116,103545,73965,0
2116,103465,73951,0
2104,103526,73951,0
2114,103485,73939,0
2108,103501,73938,0
2106,103517,73950,0
2118,103448,73949,0
2116,103553,73946,0
2120,103490,73962,0
2120,103447,73963,0
2120,103515,73956,0
2120,103536,73980,0
2126,103529,73945,0
2132,103516,73925,0
2136,103486,74002,0
2133,103527,73964,0
2128,103522,73899,0
2121,103501,73980,0
2124,103539,73944,0
2120,103499,73979,0
2106,103474,73986,0
2104,103565,73952,0
2112,103498,73961,0
2126,103485,73978,0
2092,103533,73962,0
2072,103516,73980,0
2070,103544,73949,0
2088,103493,73908,0
2084,103502,74013,0
2112,103512,73955,0
2112,103544,73908,0
2114,103493,73999,0
2114,103546,73961,0
2122,103490,74007,0
2121,103516,73965,0
2112,103503,73980,0
2076,103521,73956,0
2128,103526,73962,0
2104,103464,74033,0
2144,103555,73953,0
2100,103532,73991,0
2104,103486,73969,0
2101,103534,73981,0
2096,103499,74036,0
2106,103548,73971,0
2100,103527,73928,0
2104,103498,74006,0
2150,103546,74001,0
2128,103499,73955,0
2144,103502,73996,0
2114,103571,73970,0
2120,103511,73999,0
2121,103451,74010,0
2117,103556,73986,0
2141,103545,74014,0
2122,103547,73962,0
2116,103518,73946,0
2080,103530,74050,0
2086,103543,73988,0
2076,103551,73974,0
2100,103487,73981,0
2096,103581,74000,0
2140,103508,74029,0
2100,103531,73967,0
2122,103553,73991,0
2104,103537,73954,0
2120,103532,74024,0
2112,103505,74009,0
2142,103540,73978,0
2152,103520,73965,0
2128,103531,73976,0
2122,103504,74038,0
2124,103552,73989,0
2132,103544,73927,0
2124,103509,74019,0
2130,103548,73985,0
2136,103518,74007,0
2104,103464,74002,0
2104,103586,73996,0
2112,103524,73994,0
2112,103525,73991,0
2108,103500,73972,0
2101,103536,74015,0
2132,103575,73998,0
2116,103510,73956,0
2122,103477,74059,0
2128,103538,74006,0
2138,103553,74002,0
2092,103497,73987,0
2096,103563,73994,0
2100,103518,74045,0
2096,103528,73994,0
2130,103537,73963,0
2138,103512,74022,0
2120,103560,73977,0
2124,103513,73988,0
2122,103470,73991,0
2104,103547,73990,0
2132,103518,73966,0
2128,103552,74019,0
2124,103520,74035,0
2128,103514,74003,0
2128,103575,73987,0
2130,103516,74010,0
2133,103531,74011,0
2164,103500,73976,0
2134,103542,74023,0
2140,103541,73982,0
2108,103519,73959,0
2144,103509,74081,0
2156,103540,73999,0
2152,103549,74007,0
2142,103466,73985,0
2140,103581,73988,0
2139,103519,74040,0
2138,103515,73987,0
2130,103563,73985,0
2128,103500,74006,0
2130,103515,74021,0
2052,103502,73957,0
2109,103521,74025,0
2114,103575,73975,0
2114,103526,73996,0
2098,103471,74008,0
2140,103559,73994,0
2148,103529,74003,0
2144,103548,73987,0
2146,103507,73971,0
2152,103501,74011,0
2152,103485,73959,0
2152,103534,74025,0
2156,103537,73972,0
2148,103494,74016,0
2160,103489,74050,0
2149,103533,73976,0
2160,103524,73960,0
2144,103481,74012,0
2137,103554,74006,0
2136,103493,74037,0
2126,103501,73984,0
2124,103556,73984,0
2152,103497,74003,0
2121,103523,74011,0
2128,103505,73983,0
2132,103531,74021,0
2129,103551,73973,0
2124,103498,73953,0
2132,103461,74041,0
2130,103554,73978,0
2129,103525,73996,0
2138,103460,73974,0
2136,103534,73997,0
2096,103490,74028,0
2108,103527,73982,0
2092,103531,73946,0
2093,103498,73997,0
2136,103530,73998,0
2124,103492,74021,0
2100,103452,73997,0
2116,103552,73981,0
2116,103503,73976,0
2084,103485,74018,0
2122,103448,73994,0
2114,103522,73969,0
2120,103510,74007,0
2130,103498,73985,0
2126,103485,74006,0
2136,103513,73979,0
2128,103538,74008,0
2133,103519,73964,0
2140,103491,73951,0
2128,103476,74040,0
2100,103538,73982,0
2124,103534,74016,0
2124,103483,73972,0
2118,103515,74025,0
2112,103491,74035,0
2108,103542,73970,0
2098,103514,73929,0
2100,103490,74024,0
2100,103535,74018,0
2112,103470,74014,0
2100,103482,74005,0
2072,103548,73982,0
2072,103502,74007,0
2088,103519,73997,0
2094,103493,73966,0
2106,103526,74037,0
2140,103519,73988,0
2136,103483,73964,0
2152,103451,74044,0
2142,103544,74004,0
2144,103562,73980,0
2144,103496,73965,0
2156,103486,74026,0
2142,103504,73994,0
2152,103540,73995,0
2156,103517,74051,0
2148,103541,73987,0
2149,103495,74025,0
2152,103442,74035,0
2161,103566,73994,0
2168,103521,74031,0
2164,103498,73997,0
2164,103516,74017,0
2172,103496,74030,0
2212,103541,73996,0
2176,103516,73970,0
2184,103463,74048,0
2182,103557,74025,0
2178,103504,74034,0
2184,103545,73985,0
2188,103514,73987,0
2186,103515,74064,0
2188,103520,74025,0
2186,103530,73967,0
2140,103515,74062,0
2146,103535,74009,0
2138,103506,74043,0
2134,103477,74032,0
2160,103572,74022,0
2156,103521,74047,0
2163,103523,74015,0
2157,103525,74043,0
2164,103504,74037,0
2168,103536,74020,0
2168,103539,73982,0
2174,103535,74058,0
2200,103492,74011,0
2180,103519,74059,0
2168,103591,74029,0
2173,103513,73958,0
2162,103520,74077,0
2164,103533,74053,0
2156,103535,74023,0
2120,103485,74031,0
2146,103562,74015,0
2144,103515,74072,0
2144,103526,74047,0
2150,103554,73991,0
2134,103532,74052,0
2144,103556,74026,0
2144,103523,74018,0
2152,103495,74076,0
2148,103585,74033,0
2156,103528,74025,0
2158,103446,74048,0
2160,103565,74058,0
2128,103521,74046,0
2128,103530,74029,0
2138,103550,74023,0
2129,103519,74086,0
2152,103543,74039,0
2158,103557,73976,0
2146,103521,74052,0
2157,103572,74021,0
2180,103535,74059,0
2142,103527,74043,0
2136,103596,74067,0
2106,103517,74060,0
2142,103524,74043,0
2106,103470,74097,0
2142,103540,74032,0
2150,103561,74049,0
2146,103481,74022,0
2152,103557,74046,0
2156,103507,74094,0
2162,103550,74044,0
2160,103538,74000,0
2168,103519,74059,0
2166,103556,74056,0
2166,103526,74032,0
2134,103508,74082,0
2162,103588,74038,0
2156,103503,74046,0
2146,103483,74073,0
2142,103533,74046,0
2141,103534,74074,0
2140,103535,74026,0
2136,103506,74009,0
2104,103504,74107,0
2106,103556,74045,0
2110,103531,74036,0
2108,103462,74039,0
2144,103545,74064,0
2125,103504,74093,0
2148,103551,74043,0
2154,103558,74020,0
2152,103534,74030,0
2148,103483,74080,0
2150,103501,74032,0
2149,103531,74081,0
2152,103528,74056,0
2144,103548,74049,0
2144,103522,74067,0
2134,103504,74103,0
2134,103578,74051,0
2128,103545,73991,0
2112,103515,74102,0
2124,103549,74082,0
2130,103512,74064,0
2125,103487,74068,0
2129,103550,74037,0
2136,103505,74098,0
2138,103506,74078,0
2152,103543,74041,0
2146,103549,74096,0
2140,103557,74048,0
2154,103511,74046,0
2124,103497,74124,0
2152,103591,74050,0
2144,103538,74079,0
2088,103506,74054,0
2094,103530,74084,0
2082,103515,74093,0
2072,103576,74040,0
2082,103528,74004,0
2072,103508,74105,0
2076,103551,74088,0
2053,103516,74071,0
2044,103538,74066,0
2052,103518,74056,0
2036,103540,74096,0
2041,103510,74089,0
2047,103519,74068,0
2040,103593,74059,0
2047,103521,74066,0
2064,103542,74101,0
2076,103518,74060,0
2088,103550,74111,0
2112,103568,74060,0
2128,103508,74027,0
2140,103514,74138,0
2188,103564,74082,0
2220,103557,74103,0
2272,103523,74062,0
2328,103540,74076,0
2388,103523,74134,0
2464,103565,74074,0
2540,103567,74055,0
2654,103514,74111,0
2696,103561,74097,0
2796,103515,74109,0
2888,103471,74096,0
2960,103603,74090,0
3065,103528,74095,0
3168,103500,74112,0
3278,103544,74084,0
3390,103529,74126,0
3480,103579,74092,0
3568,103539,74035,0
3706,103548,74101,0
3742,103529,74077,0
3768,103542,74108,0
3760,103543,74101,0
3732,103539,74085,0
3716,103523,74165,0
3673,103556,74106,0
3632,103547,74036,0
3583,103523,74131,0
3520,103569,74105,0
3450,103526,74098,0
3378,103501,74149,0
3304,103603,74074,0
3228,103547,74107,0
3144,103523,74123,0
3066,103537,74112,0
3024,103567,74141,0
2908,103594,74076,0
2832,103548,74035,0
2802,103520,74187,0
2692,103581,74118,0
2620,103559,74124,0
2556,103515,74101,0
2494,103564,74101,0
2408,103545,74161,0
2361,103574,74111,0
2309,103577,74057,0
2258,103536,74149,0
2244,103586,74147,0
2210,103532,74139,0
2176,103515,74123,0
2141,103625,74096,0
2122,103548,74101,0
2086,103551,74125,0
2068,103477,74133,0
2036,103562,74146,0
2024,103552,74123,0
2022,103608,74113,0
1970,103544,74172,0
1952,103531,74120,0
1940,103609,74091,0
1908,103558,74121,0
1894,103582,74114,0
1880,103554,74090,0
1865,103543,74175,0
1856,103628,74112,0
1856,103546,74118,0
1832,103520,74155,0
1830,103620,74147,0
1824,103556,74154,0
1828,103554,74127,0
1826,103563,74104,0
1822,103546,74172,0
1825,103574,74135,0
1822,103569,74089,0
1824,103567,74162,0
1777,103597,74111,0
1778,103551,74114,0
1782,103507,74167,0
1778,103636,74115,0
1812,103558,74143,0
1812,103520,74132,0
1810,103569,74158,0
1804,103542,74169,0
1800,103613,74125,0
1801,103607,74111,0
1805,103493,74152,0
1766,103557,74159,0
1813,103561,74082,0
1824,103587,74087,0
1820,103546,74165,0
1828,103583,74173,0
1845,103527,74094,0
1840,103551,74177,0
1848,103615,74132,0
1856,103554,74154,0
1860,103518,74171,0
1862,103580,74150,0
1858,103581,74154,0
1808,103586,74122,0
1818,103563,74112,0
1861,103547,74219,0
1864,103579,74156,0
1854,103583,74120,0
1868,103536,74140,0
1854,103597,74155,0
1856,103530,74189,0
1852,103545,74141,0
1836,103615,74132,0
1832,103562,74164,0
1832,103571,74172,0
1830,103543,74106,0
1878,103575,74169,0
1880,103591,74130,0
1892,103547,74094,0
1904,103530,74203,0
1902,103545,74158,0
1908,103599,74139,0
1913,103597,74140,0
1912,103570,74146,0
1912,103544,74192,0
1914,103530,74191,0
1920,103621,74131,0
1914,103564,74113,0
1872,103524,74216,0
1918,103574,74173,0
1916,103562,74160,0
1928,103533,74172,0
1922,103597,74153,0
1920,103555,74194,0
1926,103517,74170,0
1934,103588,74142,0
1936,103569,74169,0
1941,103551,74135,0
1938,103563,74156,0
1940,103538,74177,0
1940,103599,74147,0
1912,103568,74106,0
1944,103552,74204,0
1946,103560,74159,0
1909,103539,74114,0
1904,103543,74174,0
1908,103596,74137,0
1910,103540,74191,0
1944,103484,74178,0
1940,103620,74153,0
1936,103577,74167,0
1936,103565,74138,0
1956,103538,74202,0
1958,103525,74187,0
1952,103586,74152,0
1960,103576,74154,0
1972,103567,74182,0
1968,103547,74146,0
1976,103530,74215,0
1976,103628,74151,0
1988,103556,74127,0
1982,103539,74219,0
1984,103582,74199,0
1996,103564,74191,0
1985,103529,74174,0
1964,103604,74145,0
1986,103562,74219,0
1992,103548,74195,0
1988,103592,74157,0
1984,103576,74202,0
1988,103589,74166,0
1986,103550,74154,0
2000,103552,74225,0
2008,103619,74204,0
2004,103575,74141,0
2012,103550,74219,0
1970,103593,74194,0
1983,103546,74191,0
1992,103532,74185,0
1989,103619,74171,0
2044,103581,74205,0
2052,103521,74205,0
2020,103593,74184,0
2021,103590,74201,0
2016,103572,74170,0
2014,103550,74215,0
2010,103567,74240,0
2008,103575,74210,0
2016,103602,74204,0
2004,103570,74136,0
2020,103556,74254,0
2004,103596,74201,0
2016,103604,74195,0
2012,103543,74193,0
2012,103636,74201,0
2016,103559,74262,0
2014,103558,74200,0
2026,103618,74191,0
2028,103565,74224,0
2024,103606,74223,0
2034,103573,74168,0
2032,103562,74236,0
2036,103626,74208,0
2037,103590,74165,0
2034,103521,74234,0
2042,103606,74201,0
2040,103584,74207,0
2040,103588,74190,0
1998,103590,74162,0
2006,103558,74239,0
2008,103575,74190,0
2012,103590,74160,0
2044,103583,74221,0
2046,103576,74185,0
2054,103563,74164,0
2053,103542,74232,0
2056,103567,74167,0
2040,103558,74159,0
2066,103574,74212,0
2064,103576,74190,0
2060,103543,74175,0
2064,103580,74135,0
2064,103561,74188,0
2064,103592,74175,0
2068,103550,74136,0
2053,103554,74209,0
2057,103622,74163,0
2047,103565,74148,0
2010,103496,74223,0
2044,103590,74161,0
2058,103588,74171,0
2047,103531,74146,0
2046,103590,74135,0
2047,103540,74192,0
2058,103561,74151,0
2064,103580,74100,0
2060,103556,74165,0
2060,103550,74126,0
2068,103519,74107,0
2032,103531,74170,0
2041,103599,74122,0
2076,103528,74091,0
2043,103494,74165,0
2045,103558,74145,0
2104,103531,74138,0
2058,103503,74123,0
2060,103579,74100,0
2058,103509,74160,0
2038,103544,74145,0
2044,103549,74097,0
2060,103516,74111,0
2042,103539,74100,0
2056,103514,74149,0
2052,103499,74120,0
2028,103497,74080,0
2072,103560,74085,0
2070,103508,74123,0
2086,103491,74107,0
2088,103515,74084,0
2080,103527,74108,0
2088,103542,74059,0
2072,103518,74051,0
2112,103488,74147,0
2072,103548,74079,0
2064,103524,74046,0
2024,103457,74087,0
2060,103545,74096,0
2046,103493,74092,0
2047,103464,74076,0
2046,103555,74038,0
2046,103484,74070,0
2056,103511,74080,0
2038,103473,74032,0
2030,103508,74081,0
2216,103524,74038,0
2038,103478,73999,0
2068,103446,74111,0
2072,103524,74049,0
2018,103505,74052,0
2076,103433,74024,0
2088,103431,74046,0
2088,103442,74065,0
2084,103471,73997,0
2082,103500,74047,0
2086,103523,74009,0
2080,103471,74019,0
2096,103445,74052,0
2076,103520,74037,0
2080,103481,73982,0
2084,103442,74055,0
2076,103516,74049,0
2082,103439,74048,0
2088,103441,74031,0
2090,103508,74009,0
2088,103453,74063,0
2096,103430,74042,0
2096,103481,74026,0
2104,103489,74055,0
2122,103498,74011,0
2112,103450,73987,0
2108,103434,74072,0
2104,103491,74011,0
2072,103469,73991,0
2104,103439,74028,0
2064,103492,74031,0
2070,103440,74036,0
2072,103417,74000,0
2056,103503,74006,0
2094,103450,74025,0
2088,103469,74018,0
2082,103445,74000,0
2122,103487,74011,0
2098,103449,73995,0
2090,103446,73983,0
2084,103414,74043,0
2096,103431,73959,0
2096,103495,73991,0
2104,103437,73958,0
2090,103424,74038,0
2092,103462,74016,0
2096,103452,74028,0
2092,103423,73993,0
2092,103494,73990,0
2088,103439,74050,0
2076,103444,73999,0
2052,103471,73986,0
2082,103473,74028,0
2080,103464,73980,0
2080,103447,73981,0
2082,103424,74051,0
2088,103510,74001,0
2082,103459,73956,0
2084,103413,74052,0
2086,103460,74026,0
2098,103461,74022,0
2048,103448,73993,0
2074,103491,73988,0
2074,103442,74029,0
2068,103457,74012,0
2101,103455,74002,0
2098,103470,74024,0
2100,103467,73970,0
2110,103432,73984,0
2092,103443,74011,0
2096,103489,73997,0
2096,103417,74017,0
2088,103456,73974,0
2090,103436,74012,0
2088,103438,74042,0
2084,103500,74012,0
2096,103464,73939,0
2096,103428,74037,0
2100,103467,74012,0
2080,103435,74021,0
2104,103431,74012,0
2113,103495,73977,0
2120,103439,74049,0
2117,103446,74011,0
2112,103447,73944,0
2122,103458,74029,0
2112,103470,73977,0
2121,103456,73971,0
2096,103418,74037,0
2108,103476,73999,0
2104,103475,73953,0
2104,103414,74003,0
2124,103480,74030,0
2068,103410,74019,0
2065,103427,74028,0
2064,103488,73987,0
2070,103424,74021,0
2100,103448,74022,0
2101,103454,73964,0
2106,103464,74017,0
2106,103467,73960,0
2120,103422,73994,0
2116,103413,74052,0
2138,103468,73987,0
2116,103487,74026,0
2120,103439,73947,0
2116,103441,73973,0
2120,103419,74046,0
2110,103476,73980,0
2104,103455,73969,0
2104,103419,74026,0
2104,103476,74020,0
2097,103420,74023,0
2080,103410,73996,0
2101,103483,73978,0
2104,103422,74010,0
2104,103465,74013,0
2088,103417,73953,0
2104,103464,74031,0
2098,103461,73967,0
2101,103410,73958,0
2106,103410,74074,0
2116,103481,73993,0
2116,103451,73999,0
2113,103396,73999,0
2072,103479,73995,0
2087,103412,74049,0
2082,103457,74006,0
2073,103482,73979,0
2100,103446,74005,0
2096,103450,74029,0
2096,103422,73956,0
2096,103428,74042,0
2098,103435,73974,0
2090,103436,74004,0
2092,103441,74016,0
2096,103424,73987,0
2088,103434,74017,0
2068,103483,73997,0
2104,103429,74028,0
2100,103420,74035,0
2112,103460,73985,0
2110,103468,74020,0
2106,103469,73989,0
2106,103420,73963,0
2112,103401,74064,0
2110,103508,74021,0
2108,103454,74016,0
2112,103392,74025,0
2096,103486,74022,0
2108,103414,74052,0
2096,103444,74008,0
2100,103463,73991,0
2084,103439,74024,0
2084,103460,74048,0
2100,103425,73969,0
2098,103464,74058,0
2072,103490,74005,0
2082,103462,74013,0
2080,103404,74070,0
2089,103476,74017,0
2114,103467,74049,0
2124,103409,74012,0
2120,103485,74015,0
2132,103419,74062,0
2132,103450,74027,0
2126,103476,74003,0
2120,103426,74013,0
2120,103435,74044,0
2120,103434,74073,0
2116,103495,74023,0
2114,103461,74056,0
2122,103458,73995,0
2112,103449,74017,0
2108,103426,74084,0
2112,103502,74015,0
2072,103454,73966,0
2112,103436,74078,0
2122,103493,74064,0
2113,103448,74029,0
2128,103439,74047,0
2128,103522,74032,0
2128,103431,74071,0
2132,103428,74050,0
2136,103478,74027,0
2128,103478,74062,0
2122,103493,74017,0
2170,103473,74019,0
2124,103413,74090,0
2084,103504,74030,0
2090,103458,74048,0
2085,103395,74028,0
2082,103461,74075,0
2112,103434,74056,0
2112,103511,74039,0
2112,103446,74005,0
2116,103445,74080,0
2117,103467,74065,0
2120,103457,74063,0
2118,103477,74015,0
2102,103467,74037,0
2144,103423,74075,0
2136,103463,74046,0
2168,103445,73995,0
2149,103458,74088,0
2140,103484,74023,0
2133,103444,74060,0
2138,103390,74063,0
2128,103519,74035,0
2140,103476,74048,0
2128,103397,74019,0
2128,103488,74059,0
2120,103436,74076,0
2084,103492,74037,0
2116,103469,74024,0
2112,103430,74070,0
2116,103458,74062,0
2116,103432,74022,0
2112,103471,74076,0
2116,103482,74034,0
2120,103437,74006,0
2096,103412,74124,0
2106,103482,74042,0
2104,103456,74046,0
2104,103395,74048,0
2140,103482,74071,0
2120,103424,74079,0
2137,103408,74058,0
2134,103517,74034,0
2172,103429,74031,0
2132,103445,74068,0
2124,103465,74046,0
2124,103481,74069,0
2124,103478,74029,0
2141,103443,74086,0
2136,103467,74070,0
2124,103435,74008,0
2140,103473,74079,0
2140,103466,74034,0
2142,103427,74040,0
2144,103398,74088,0
2148,103498,74047,0
2144,103439,74061,0
2152,103390,74028,0
2160,103470,74064,0
2152,103432,74089,0
2164,103497,74037,0
2150,103468,73991,0
2146,103436,74110,0
2158,103456,74072,0
2116,103418,74014,0
2148,103431,74083,0
2146,103485,74045,0
2097,103430,74050,0
2110,103379,74094,0
2120,103493,74044,0
2117,103464,74074,0
2152,103423,74030,0
2152,103440,74047,0
2144,103418,74110,0
2144,103457,74058,0
2158,103454,74040,0
2156,103438,74051,0
2186,103442,74081,0
2150,103444,74044,0
2156,103475,74040,0
2152,103436,74074,0
2148,103457,74029,0
2144,103422,74057,0
2134,103422,74099,0
2150,103475,74057,0
2136,103436,73993,0
2136,103426,74102,0
2130,103466,74081,0
2108,103442,74056,0
2132,103405,74052,0
2136,103478,74036,0
2141,103420,74104,0
2148,103456,74072,0
2145,103457,74029,0
2153,103451,74086,0
2144,103455,74036,0
2152,103422,74033,0
2157,103386,74104,0
2148,103480,74040,0
2114,103428,74048,0
2124,103366,74048,0
2124,103460,74071,0
2130,103393,74092,0
2156,103468,74070,0
2148,103442,74030,0
2148,103418,74091,0
2152,103441,74073,0
2152,103470,74063,0
2152,103407,74067,0
2154,103428,74024,0
2152,103416,74102,0
2152,103441,74045,0
2164,103444,74089,0
2160,103456,74044,0
2166,103415,73985,0
2174,103394,74105,0
2172,103444,74077,0
2176,103433,74044,0
2162,103379,74073,0
2160,103463,74052,0
2156,103406,74111,0
2160,103345,74052,0
2146,103470,74052,0
2140,103419,74075,0
2136,103436,74043,0
2122,103411,74047,0
2090,103409,74106,0
2136,103487,74051,0
2126,103407,74043,0
2132,103363,74106,0
2137,103457,74080,0
2100,103416,74087,0
2120,103425,74075,0
2124,103437,74036,0
2158,103402,74109,0
2192,103422,74092,0
2164,103434,74021,0
2136,103419,74090,0
2178,103445,74113,0
2166,103338,74096,0
2168,103409,74117,0
2168,103431,74058,0
2158,103404,74063,0
2156,103441,74080,0
2152,103402,74081,0
2152,103371,74098,0
2150,103496,74065,0
2146,103405,74073,0
2149,103379,74085,0
2156,103424,74080,0
2152,103414,74109,0
2156,103469,74072,0
2156,103395,74029,0
2156,103403,74152,0
2164,103454,74079,0
2164,103432,74045,0
2162,103397,74106,0
2169,103445,74067,0
2161,103398,74118,0
2155,103345,74090,0
2156,103466,74074,0
2166,103407,74080,0
2121,103428,74085,0
2124,103406,74075,0
2129,103403,74133,0
2122,103465,74074,0
2164,103419,74037,0
2156,103349,74136,0
2160,103440,74077,0
2164,103408,74111,0
2164,103382,74113,0
2166,103411,74055,0
2169,103406,74100,0
2148,103417,74083,0
2188,103414,74094,0
2178,103447,74075,0
2186,103397,74094,0
2186,103429,74121,0
2184,103389,74067,0
2180,103421,74134,0
2168,103454,74067,0
2164,103393,74088,0
2153,103349,74138,0
2182,103450,74097,0
2146,103443,74122,0
2144,103382,74073,0
2148,103408,74098,0
2144,103401,74144,0
2148,103433,74094,0
2150,103428,74049,0
2150,103387,74129,0
2164,103431,74117,0
2172,103382,74071,0
2157,103381,74121,0
2136,103458,74093,0
2140,103399,74098,0
2137,103327,74127,0
2148,103421,74105,0
2168,103426,74117,0
2148,103426,74091,0
2170,103426,74093,0
2162,103393,74161,0
2164,103409,74091,0
2160,103443,74085,0
2172,103434,74095,0
2157,103442,74160,0
2192,103389,74096,0
2152,103417,74117,0
2162,103375,74098,0
2168,103453,74107,0
2140,103419,74167,0
2168,103388,74120,0
2168,103445,74099,0
2172,103416,74130,0
2173,103438,74102,0
2164,103387,74104,0
2172,103397,74164,0
2168,103479,74122,0
2169,103401,74075,0
2164,103383,74174,0
2152,103450,74158,0
2128,103388,74145,0
2160,103381,74132,0
2148,103436,74107,0
2156,103408,74172,0
2148,103419,74155,0
2116,103431,74095,0
2108,103417,74170,0
2120,103445,74102,0
2120,103417,74112,0
2156,103377,74197,0
2162,103485,74135,0
2144,103418,74143,0
2152,103382,74119,0
2156,103392,74134,0
2160,103375,74143,0
2156,103440,74154,0
2156,103417,74153,0
2160,103401,74104,0
2148,103383,74171,0
2140,103437,74134,0
2148,103457,74171,0
2136,103442,74130,0
2138,103413,74118,0
2136,103418,74202,0
2132,103459,74149,0
2126,103434,74089,0
2116,103407,74166,0
2124,103472,74177,0
2118,103406,74165,0
2116,103403,74182,0
2116,103499,74163,0
2114,103428,74168,0
2104,103395,74175,0
2100,103443,74161,0
2100,103450,74176,0
2092,103460,74155,0
2080,103435,74117,0
2040,103409,74231,0
2050,103460,74168,0
2034,103463,74130,0
2016,103406,74192,0
2056,103456,74198,0
2053,103428,74199,0
2064,103399,74185,0
2068,103508,74172,0
2084,103429,74162,0
2140,103439,74228,0
2132,103410,74221,0
2164,103447,74159,0
2196,103414,74168,0
2245,103427,74195,0
2308,103407,74203,0
2368,103472,74181,0
2438,103452,74198,0
2512,103478,74146,0
2586,103438,74140,0
2670,103440,74228,0
2748,103457,74171,0
2824,103461,74136,0
2912,103397,74195,0
2992,103472,74178,0
3069,103434,74224,0
3160,103411,74175,0
3256,103487,74180,0
3352,103452,74202,0
3444,103467,74204,0
3504,103435,74167,0
3568,103464,74227,0
3628,103499,74175,0
3648,103436,74139,0
3672,103408,74258,0
3660,103476,74186,0
3634,103481,74213,0
3600,103387,74179,0
3560,103486,74195,0
3510,103433,74227,0
3448,103436,74169,0
3388,103457,74190,0
3326,103462,74178,0
3244,103413,74211,0
3164,103451,74228,0
3088,103453,74230,0
3020,103473,74208,0
2932,103471,74172,0
2864,103452,74176,0
2788,103428,74249,0
2732,103504,74192,0
2668,103447,74149,0
2603,103417,74216,0
2569,103468,74227,0
2522,103441,74214,0
2468,103412,74219,0
2428,103484,74188,0
2376,103438,74226,0
2332,103446,74215,0
2290,103450,74188,0
2289,103464,74246,0
2216,103465,74179,0
2190,103440,74157,0
2156,103425,74277,0
2122,103496,74191,0
2060,103459,74186,0
2036,103409,74223,0
2024,103483,74225,0
1990,103439,74235,0
2010,103465,74181,0
1982,103479,74179,0
1976,103447,74229,0
1952,103469,74237,0
1952,103409,74199,0
1936,103478,74232,0
1924,103477,74167,0
1897,103466,74185,0
1924,103463,74215,0
1872,103457,74212,0
1904,103467,74238,0
1894,103495,74183,0
1888,103443,74206,0
1880,103429,74251,0
1865,103477,74201,0
1860,103463,74210,0
1856,103419,74215,0
1849,103488,74230,0
1852,103434,74239,0
1850,103445,74207,0
1805,103492,74202,0
1842,103449,74244,0
1842,103450,74235,0
1840,103439,74177,0
1842,103470,74228,0
1848,103487,74187,0
1857,103437,74162,0
1852,103411,74285,0
1816,103488,74219,0
1833,103466,74215,0
1818,103410,74222,0
1805,103490,74235,0
1857,103438,74244,0
1844,103431,74211,0
1844,103521,74210,0
1849,103440,74238,0
1852,103436,74232,0
1849,103405,74225,0
1858,103434,74206,0
1888,103470,74241,0
1889,103441,74202,0
1860,103438,74222,0
1880,103428,74250,0
1890,103510,74199,0
1900,103439,74148,0
1894,103410,74268,0
1904,103475,74237,0
1905,103440,74224,0
1931,103411,74224,0
1904,103486,74185,0
1902,103433,74260,0
1912,103407,74221,0
1914,103485,74230,0
1916,103467,74238,0
1910,103442,74200,0
1914,103422,74213,0
1910,103429,74246,0
1872,103488,74224,0
1928,103456,74176,0
1924,103402,74248,0
1881,103479,74249,0
1896,103404,74243,0
1906,103433,74217,0
1904,103467,74188,0
1944,103412,74249,0
1950,103438,74237,0
1958,103417,74162,0
1960,103440,74244,0
1960,103439,74220,0
1972,103421,74251,0
1957,103394,74256,0
1964,103461,74217,0
1957,103452,74211,0
1952,103454,74202,0
1980,103432,74277,0
1958,103443,74231,0
1956,103443,74181,0
1956,103437,74250,0
1956,103462,74194,0
1962,103408,74212,0
1964,103379,74249,0
1976,103498,74217,0
1976,103433,74234,0
1977,103385,74240,0
1992,103460,74251,0
1992,103409,74253,0
1996,103478,74212,0
2000,103393,74176,0
2000,103425,74277,0
2004,103411,74220,0
2020,103437,74175,0
1994,103424,74270,0
1957,103460,74215,0
1970,103413,74260,0
1956,103357,74256,0
1950,103497,74235,0
1980,103432,74249,0
1982,103380,74232,0
1990,103449,74257,0
1982,103429,74295,0
1992,103465,74247,0
1997,103385,74204,0
2006,103431,74257,0
2047,103381,74272,0
1978,103456,74242,0
2014,103458,74174,0
2020,103424,74286,0
2032,103453,74260,0
2033,103403,74274,0
2030,103376,74258,0
2032,103491,74248,0
2042,103453,74262,0
2040,103444,74281,0
2028,103417,74244,0
2026,103448,74277,0
2028,103489,74249,0
2028,103446,74221,0
2022,103417,74328,0
2028,103463,74268,0
2032,103469,74235,0
2040,103418,74265,0
2046,103496,74257,0
2042,103442,74293,0
2022,103394,74258,0
2046,103498,74264,0
2038,103433,74265,0
2040,103434,74283,0
2073,103448,74252,0
2072,103455,74288,0
2058,103476,74255,0
2076,103434,74214,0
2084,103425,74295,0
2072,103450,74269,0
2076,103471,74280,0
2065,103435,74240,0
2072,103447,74274,0
2070,103452,74298,0
2072,103444,74250,0
2076,103473,74305,0
2064,103475,74240,0
2080,103439,74248,0
2088,103400,74322,0
2044,103512,74251,0
2084,103461,74282,0
2085,103404,74248,0
2089,103441,74275,0
2096,103429,74297,0
2088,103454,74251,0
2093,103463,74221,0
2088,103436,74292,0
2088,103468,74273,0
2088,103432,74245,0
2080,103422,74291,0
2077,103488,74240,0
2078,103419,74262,0
2037,103374,74273,0
2031,103470,74239,0
2028,103456,74275,0
2042,103419,74230,0
2074,103453,74227,0
2074,103421,74279,0
2076,103430,74237,0
2076,103445,74165,0
2080,103408,74197,0
2080,103408,74229,0
2084,103429,74234,0
2061,103433,74208,0
2096,103458,74217,0
2096,103452,74192,0
2096,103407,74190,0
2104,103359,74262,0
2089,103473,74200,0
2092,103414,74222,0
2116,103354,74206,0
2086,103451,74242,0
2080,103378,74229,0
2081,103432,74200,0
2086,103426,74170,0
2092,103401,74231,0
2056,103425,74209,0
2088,103392,74134,0
2092,103416,74216,0
2096,103429,74166,0
2092,103389,74178,0
2102,103362,74244,0
2104,103453,74160,0
2100,103410,74191,0
2066,103347,74159,0
2073,103404,74189,0
2065,103361,74206,0
2066,103425,74159,0
2092,103369,74112,0
2074,103354,74209,0
2092,103411,74184,0
2082,103365,74163,0
2088,103401,74151,0
2084,103379,74152,0
2084,103367,74158,0
2132,103383,74151,0
2090,103323,74144,0
2088,103393,74112,0
2098,103351,74161,0
2093,103370,74154,0
2068,103336,74123,0
2104,103341,74161,0
2100,103423,74126,0
2096,103339,74132,0
2104,103283,74161,0
2108,103369,74137,0
2116,103388,74145,0
2108,103366,74103,0
2102,103343,74086,0
2093,103333,74165,0
2096,103359,74129,0
2088,103362,74056,0
2084,103332,74129,0
2052,103355,74105,0
2088,103305,74113,0
2085,103285,74128,0
2050,103413,74101,0
2053,103311,74095,0
2060,103339,74100,0
2058,103324,74091,0
2100,103326,74144,0
2104,103369,74075,0
2094,103323,74056,0
2096,103280,74149,0
2092,103296,74072,0
2092,103315,74093,0
2088,103336,74084,0
2092,103296,74091,0
2089,103309,74108,0
2080,103353,74077,0
2092,103333,74048,0
2088,103281,74089,0
2088,103360,74079,0
2082,103301,74103,0
2100,103288,74070,0
2100,103344,74053,0
2097,103317,74086,0
2070,103326,74087,0
2100,103290,74046,0
2124,103292,74102,0
2116,103365,74070,0
2116,103306,74064,0
2120,103242,74096,0
2120,103322,74068,0
2120,103337,74088,0
2112,103347,74054,0
2114,103297,74019,0
2112,103282,74137,0
2068,103319,74065,0
2070,103312,74057,0
2054,103273,74064,0
2048,103341,74051,0
2104,103301,74110,0
2068,103283,74069,0
2072,103349,74034,0
2077,103296,74082,0
2080,103223,74085,0
2094,103277,74071,0
2096,103290,74091,0
2104,103326,74045,0
2108,103257,74058,0
2116,103317,74085,0
2112,103277,74028,0
2124,103309,74094,0
2122,103336,74056,0
2122,103277,74064,0
2112,103234,74119,0
2117,103339,74059,0
2116,103327,74074,0
2106,103274,74044,0
2100,103313,74074,0
2104,103276,74110,0
2104,103323,74055,0
2101,103312,74010,0
2104,103287,74083,0
2106,103313,74088,0
2104,103278,74045,0
2309,103295,74096,0
2112,103340,74052,0
2124,103283,74074,0
2092,103239,74094,0
2094,103322,74065,0
2108,103307,74087,0
2112,103327,74041,0
2130,103307,74037,0
2124,103289,74132,0
2128,103298,74059,0
2138,103318,74025,0
2136,103295,74068,0
2104,103296,74084,0
2108,103293,74102,0
2116,103330,74063,0
2104,103330,74069,0
2104,103324,74038,0
2104,103290,74113,0
2112,103292,74075,0
2104,103299,74007,0
2112,103295,74122,0
2100,103311,74052,0
2109,103264,74082,0
2088,103223,74075,0
2128,103357,74062,0
2120,103268,74098,0
2122,103278,74063,0
2137,103296,74081,0
2132,103275,74091,0
2142,103347,74065,0
2128,103272,74005,0
2130,103245,74121,0
2124,103315,74080,0
2124,103277,74087,0
2112,103272,74082,0
2082,103330,74060,0
2094,103276,74126,0
2088,103275,74088,0
2084,103300,74035,0
2116,103299,74106,0
2120,103314,74042,0
2126,103281,74065,0
2116,103262,74111,0
2132,103305,74076,0
2132,103319,74053,0
2132,103285,74061,0
2134,103288,74108,0
2124,103274,74013,0
2132,103299,74117,0
2136,103321,74049,0
2128,103285,74071,0
2128,103214,74128,0
2116,103346,74076,0
2120,103308,74092,0
2108,103259,74055,0
2114,103307,74089,0
2108,103261,74129,0
2116,103318,74064,0
2113,103295,74042,0
2112,103279,74106,0
2120,103326,74106,0
2112,103269,74060,0
2116,103264,74105,0
2128,103342,74065,0
2128,103281,74105,0
2144,103243,74096,0
2140,103307,74093,0
2104,103300,74101,0
2129,103312,74056,0
2116,103273,74064,0
2098,103255,74151,0
2136,103312,74078,0
2081,103298,74047,0
2112,103243,74092,0
2136,103322,74082,0
2098,103260,74141,0
2112,103312,74097,0
2109,103297,74090,0
2106,103280,74073,0
2112,103317,74108,0
2104,103264,74126,0
2114,103340,74090,0
2128,103287,74047,0
2118,103297,74120,0
2128,103326,74113,0
2136,103282,74070,0
2128,103273,74108,0
2140,103337,74086,0
2132,103269,74119,0
2136,103280,74110,0
2121,103302,74073,0
2116,103294,74124,0
2118,103326,74071,0
2133,103282,74076,0
2122,103229,74140,0
2130,103352,74086,0
2125,103289,74095,0
2125,103232,74097,0
2092,103319,74127,0
2100,103258,74137,0
2104,103321,74109,0
2112,103288,74062,0
2140,103277,74149,0
2140,103310,74124,0
2144,103261,74052,0
2144,103285,74145,0
2153,103322,74105,0
2144,103235,74103,0
2148,103252,74130,0
2124,103267,74096,0
2136,103306,74130,0
2128,103217,74093,0
2128,103296,74135,0
2124,103267,74148,0
2120,103319,74093,0
2133,103298,74065,0
2130,103290,74146,0
2124,103315,74136,0
2128,103244,74087,0
2124,103286,74168,0
2104,103348,74095,0
2146,103281,74126,0
2148,103226,74173,0
2148,103327,74097,0
2170,103310,74141,0
2174,103290,74093,0
2144,103284,74114,0
2141,103282,74161,0
2142,103318,74106,0
2142,103303,74057,0
2100,103272,74136,0
2106,103298,74149,0
2102,103259,74097,0
2101,103277,74155,0
2132,103353,74099,0
2128,103268,74110,0
2146,103210,74151,0
2152,103307,74143,0
2146,103294,74105,0
2146,103254,74112,0
2192,103262,74141,0
2172,103288,74108,0
2152,103255,74134,0
2158,103285,74113,0
2170,103302,74101,0
2160,103262,74156,0
2156,103276,74121,0
2158,103295,74068,0
2156,103290,74158,0
2146,103287,74090,0
2142,103253,74092,0
2128,103242,74192,0
2120,103324,74119,0
2120,103293,74117,0
2112,103218,74126,0
2124,103312,74150,0
2120,103252,74162,0
2112,103295,74109,0
2128,103279,74085,0
2136,103269,74154,0
2144,103290,74143,0
2148,103262,74098,0
2114,103272,74154,0
2125,103321,74105,0
2128,103272,74166,0
2128,103208,74152,0
2150,103326,74121,0
2152,103281,74146,0
2144,103285,74097,0
2144,103262,74112,0
2148,103233,74136,0
2138,103287,74124,0
2132,103286,74131,0
2136,103293,74094,0
2124,103280,74146,0
2146,103299,74131,0
2132,103283,74118,0
2128,103239,74117,0
2142,103327,74144,0
2144,103264,74185,0
2144,103265,74115,0
2148,103327,74119,0
2128,103262,74138,0
2156,103300,74137,0
2168,103248,74093,0
2158,103273,74175,0
2156,103338,74132,0
2148,103263,74123,0
2148,103227,74180,0
2144,103317,74135,0
2162,103290,74162,0
2138,103284,74122,0
2164,103283,74113,0
2132,103262,74173,0
2092,103272,74139,0
2105,103315,74095,0
2096,103275,74171,0
2093,103307,74122,0
2124,103263,74119,0
2128,103259,74171,0
2129,103325,74132,0
2134,103265,74088,0
2128,103248,74119,0
2132,103253,74184,0
2132,103278,74122,0
2128,103236,74135,0
2129,103251,74106,0
2061,103256,74155,0
2144,103220,74188,0
2116,103334,74118,0
2108,103286,74162,0
2104,103252,74131,0
2116,103299,74161,0
2104,103245,74165,0
2106,103324,74143,0
2108,103275,74091,0
2108,103274,74192,0
2116,103298,74174,0
2120,103259,74157,0
2116,103240,74160,0
2116,103316,74123,0
2132,103269,74193,0
2132,103249,74158,0
2149,103322,74141,0
2140,103291,74173,0
2136,103284,74134,0
2112,103254,74119,0
2122,103251,74201,0
2124,103325,74143,0
2120,103284,74121,0
2146,103249,74172,0
2154,103321,74191,0
2136,103247,74185,0
2145,103268,74143,0
2162,103265,74172,0
2172,103266,74178,0
2162,103252,74210,0
2169,103248,74160,0
2172,103307,74187,0
2172,103323,74140,0
2178,103286,74181,0
2176,103205,74186,0
2174,103319,74155,0
2178,103284,74172,0
2178,103299,74134,0
2144,103269,74153,0
2180,103259,74204,0
2175,103335,74166,0
2176,103290,74168,0
2168,103232,74161,0
2156,103315,74204,0
2154,103269,74214,0
2154,103317,74154,0
2152,103281,74145,0
2142,103264,74190,0
2148,103297,74199,0
2158,103271,74137,0
2164,103295,74214,0
2122,103303,74140,0
2138,103263,74154,0
2140,103254,74238,0
2154,103343,74175,0
2174,103295,74196,0
2175,103214,74180,0
2177,103308,74206,0
2178,103253,74207,0
2170,103289,74166,0
2168,103273,74153,0
2168,103249,74178,0
2130,103290,74207,0
2153,103255,74175,0
2156,103288,74217,0
2154,103343,74162,0
2160,103293,74223,0
2152,103209,74209,0
2144,103323,74186,0
2152,103316,74206,0
2150,103314,74144,0
2154,103270,74173,0
2168,103268,74242,0
2168,103325,74182,0
2160,103297,74147,0
2136,103257,74201,0
2162,103319,74226,0
2162,103271,74216,0
2166,103280,74172,0
2164,103306,74180,0
2160,103286,74205,0
2152,103293,74217,0
2154,103270,74120,0
2120,103294,74230,0
2150,103313,74185,0
2112,103274,74197,0
2110,103201,74238,0
2140,103319,74195,0
2128,103313,74215,0
2144,103286,74181,0
2144,103294,74201,0
2144,103238,74217,0
2153,103297,74214,0
2156,103320,74179,0
2152,103268,74202,0
2158,103300,74224,0
2170,103271,74210,0
2160,103244,74236,0
2154,103314,74197,0
2124,103249,74221,0
2148,103276,74226,0
2140,103276,74193,0
2164,103307,74248,0
2140,103316,74182,0
2136,103266,74167,0
2124,103258,74279,0
2124,103319,74213,0
2128,103303,74192,0
2130,103230,74214,0
2136,103326,74234,0
2148,103256,74247,0
2144,103258,74220,0
2120,103333,74204,0
2165,103259,74233,0
2161,103302,74236,0
2128,103266,74201,0
2136,103286,74251,0
2140,103323,74217,0
2136,103271,74182,0
2165,103244,74278,0
2160,103313,74199,0
2152,103307,74247,0
2152,103236,74200,0
2146,103282,74202,0
2144,103277,74264,0
2130,103279,74234,0
2144,103334,74199,0
2129,103237,74232,0
2132,103291,74238,0
2140,103271,74209,0
2132,103286,74254,0
2128,103325,74205,0
2138,103267,74197,0
2137,103239,74287,0
2136,103297,74236,0
2160,103296,74244,0
2112,103240,74218,0
2114,103335,74227,0
2136,103268,74274,0
2140,103275,74242,0
2130,103339,74196,0
2164,103284,74246,0
2108,103305,74216,0
2096,103274,74211,0
2090,103275,74281,0
2088,103355,74227,0
2076,103270,74234,0
2036,103234,74267,0
2034,103316,74233,0
2038,103292,74253,0
2024,103318,74230,0
2056,103302,74208,0
2052,103275,74297,0
2056,103288,74241,0
2056,103316,74206,0
2060,103286,74212,0
2062,103270,74176,0
2064,103295,74255,0
2094,103287,74230,0
2074,103317,74263,0
2082,103350,74230,0
2101,103289,74265,0
2112,103267,74276,0
2128,103307,74245,0
2156,103310,74259,0
2185,103317,74233,0
2218,103272,74247,0
2264,103264,74297,0
2341,103332,74230,0
2408,103312,74232,0
2472,103253,74260,0
2548,103344,74265,0
2630,103274,74267,0
2714,103273,74249,0
2772,103334,74246,0
2886,103280,74275,0
2968,103299,74281,0
3056,103287,74219,0
3140,103312,74289,0
3212,103337,74236,0
3300,103294,74209,0
3364,103264,74335,0
3424,103341,74247,0
3480,103308,74274,0
3508,103228,74252,0
3540,103323,74299,0
3520,103269,74302,0
3496,103287,74291,0
3472,103298,74282,0
3428,103300,74251,0
3388,103319,74279,0
3349,103286,74295,0
3296,103358,74246,0
3238,103300,74227,0
3166,103281,74305,0
3088,103328,74287,0
3024,103272,74258,0
2992,103286,74274,0
2876,103360,74258,0
2824,103282,74294,0
2740,103238,74296,0
2684,103333,74278,0
2628,103329,74314,0
2588,103324,74250,0
2532,103288,74280,0
2484,103284,74322,0
2448,103333,74267,0
2396,103314,74236,0
2356,103280,74290,0
2316,103327,74293,0
2248,103263,74279,0
2220,103272,74310,0
2198,103361,74273,0
2168,103292,74322,0
2180,103291,74293,0
2144,103331,74264,0
2107,103328,74295,0
2081,103319,74254,0
2060,103303,74302,0
2041,103307,74309,0
2017,103281,74298,0
1960,103318,74293,0
1974,103320,74262,0
1960,103299,74311,0
1944,103308,74318,0
1930,103310,74254,0
1932,103337,74326,0
1914,103311,74271,0
1898,103292,74270,0
1886,103264,74330,0
1892,103353,74295,0
1880,103283,74303,0
1872,103244,74291,0
1872,103336,74319,0
1874,103302,74326,0
1864,103331,74282,0
1853,103294,74255,0
1856,103291,74327,0
1854,103334,74334,0
1849,103289,74252,0
1849,103312,74339,0
1844,103367,74290,0
1808,103273,74343,0
1812,103243,74306,0
1812,103354,74292,0
1793,103329,74320,0
1838,103318,74284,0
1820,103306,74309,0
1856,103281,74351,0
1848,103354,74280,0
1844,103313,74223,0
1866,103293,74268,0
1880,103310,74319,0
1874,103323,74290,0
1877,103290,74306,0
1876,103321,74292,0
1872,103295,74279,0
1876,103278,74363,0
1840,103322,74286,0
1880,103318,74257,0
1892,103273,74336,0
1876,103351,74305,0
1876,103282,74358,0
1872,103279,74304,0
1872,103342,74295,0
1880,103304,74323,0
1869,103308,74323,0
1886,103279,74297,0
1892,103326,74327,0
1857,103339,74295,0
1904,103294,74263,0
1914,103264,74361,0
1924,103336,74299,0
1929,103332,74312,0
1896,103251,74308,0
1902,103324,74321,0
1904,103275,74360,0
1904,103300,74300,0
1936,103338,74297,0
1934,103279,74332,0
1936,103338,74324,0
1940,103297,74281,0
1964,103307,74303,0
1934,103333,74320,0
1920,103303,74306,0
1961,103307,74332,0
1930,103238,74311,0
1944,103353,74329,0
1936,103294,74333,0
1958,103288,74315,0
1949,103294,74341,0
1966,103286,74340,0
1964,103345,74324,0
1960,103299,74254,0
1964,103272,74378,0
1938,103317,74343,0
1974,103297,74332,0
1974,103260,74339,0
1968,103346,74309,0
1956,103289,74367,0
1961,103251,74323,0
1964,103338,74321,0
1964,103307,74351,0
1960,103327,74325,0
1956,103291,74298,0
1965,103275,74365,0
1936,103354,74328,0
1952,103291,74286,0
1945,103261,74359,0
1944,103334,74365,0
1992,103287,74360,0
1998,103267,74316,0
2000,103326,74310,0
2012,103282,74366,0
2010,103287,74375,0
2010,103327,74326,0
2004,103340,74324,0
2004,103292,74325,0
2018,103289,74335,0
2004,103303,74344,0
2004,103322,74361,0
1992,103347,74326,0
2002,103295,74275,0
2000,103274,74421,0
2000,103319,74341,0
2000,103327,74346,0
2004,103256,74329,0
2002,103352,74342,0
2012,103293,74398,0
2018,103297,74345,0
2014,103350,74327,0
2028,103292,74354,0
2032,103331,74352,0
2030,103277,74328,0
2040,103290,74392,0
2047,103371,74320,0
2047,103314,74353,0
2052,103254,74400,0
2010,103349,74374,0
2020,103323,74360,0
2018,103314,74328,0
2004,103312,74345,0
2034,103304,74405,0
2040,103344,74347,0
2018,103340,74305,0
1960,103305,74383,0
2044,103312,74345,0
2016,103298,74381,0
2046,103316,74355,0
2064,103284,74361,0
2064,103338,74353,0
2058,103255,74386,0
2057,103350,74382,0
2080,103328,74386,0
2061,103317,74343,0
2068,103318,74329,0
2047,103307,74423,0
2060,103312,74371,0
2024,103324,74313,0
2060,103308,74395,0
2044,103360,74351,0
2056,103290,74402,0
2044,103253,74357,0
2047,103382,74348,0
2047,103329,74377,0
2046,103305,74336,0
2096,103295,74348,0
2064,103310,74393,0
2073,103365,74340,0
2037,103297,74293,0
2048,103287,74410,0
2060,103336,74375,0
2072,103313,74370,0
2070,103277,74337,0
2096,103343,74314,0
2088,103298,74395,0
2096,103301,74331,0
2088,103336,74323,0
2084,103314,74325,0
2080,103319,74332,0
2080,103262,74360,0
2082,103297,74342,0
2110,103322,74351,0
2081,103333,74333,0
2080,103283,74352,0
2084,103254,74347,0
2085,103316,74311,0
2081,103311,74345,0
2080,103307,74297,0
2088,103278,74299,0
2090,103275,74385,0
2104,103323,74321,0
2089,103307,74316,0
2094,103227,74321,0
2092,103328,74343,0
2088,103252,74345,0
2088,103311,74291,0
2092,103319,74267,0
2084,103276,74322,0
2092,103283,74323,0
2088,103267,74242,0
2082,103270,74326,0
2048,103311,74265,0
2064,103266,74275,0
2054,103222,74336,0
2052,103306,74300,0
2092,103273,74316,0
2088,103231,74267,0
2080,103284,74289,0
2088,103233,74319,0
2088,103285,74255,0
2088,103291,74254,0
2096,103284,74232,0
2090,103272,74278,0
2094,103217,74280,0
2088,103257,74266,0
2084,103232,74240,0
2080,103298,74235,0
2084,103233,74310,0
2081,103234,74240,0
2084,103272,74228,0
2057,103245,74262,0
2080,103264,74222,0
2082,103232,74202,0
2084,103225,74256,0
2076,103305,74235,0
2096,103229,74201,0
2086,103173,74265,0
2076,103266,74232,0
2077,103236,74250,0
2081,103234,74209,0
2080,103247,74190,0
2080,103216,74258,0
2084,103209,74206,0
2072,103242,74173,0
2058,103223,74238,0
2065,103253,74196,0
2060,103204,74193,0
2084,103162,74243,0
2080,103288,74195,0
2076,103230,74215,0
2072,103186,74143,0
2074,103190,74221,0
2060,103156,74185,0
2076,103252,74205,0
2076,103207,74174,0
2066,103214,74216,0
2066,103185,74169,0
2064,103217,74226,0
2068,103251,74200,0
2060,103191,74132,0
2082,103171,74239,0
2072,103234,74199,0
2074,103201,74217,0
2080,103159,74177,0
2096,103249,74185,0
2074,103179,74221,0
2068,103197,74177,0
2064,103217,74148,0
2056,103206,74199,0
2080,103223,74162,0
2052,103173,74154,0
2056,103193,74228,0
2064,103232,74163,0
2044,103200,74114,0
2004,103152,74222,0
2054,103203,74196,0
2028,103203,74204,0
2037,103169,74178,0
2068,103234,74162,0
2076,103173,74221,0
2076,103201,74172,0
2076,103230,74144,0
2076,103186,74154,0
2082,103174,74117,0
2076,103160,74214,0
2072,103180,74153,0
2076,103161,74170,0
2076,103195,74160,0
2068,103195,74155,0
2064,103182,74212,0
2032,103206,74178,0
2061,103204,74128,0
2060,103189,74199,0
2060,103221,74185,0
2066,103169,74195,0
2066,103164,74202,0
2076,103237,74165,0
2076,103179,74183,0
2072,103184,74182,0
2080,103182,74172,0
2074,103210,74194,0
2040,103237,74144,0
2076,103184,74108,0
2077,103178,74253,0
2076,103195,74165,0
2080,103206,74158,0
2064,103142,74199,0
2032,103224,74168,0
2032,103164,74209,0
2024,103181,74163,0
2060,103229,74156,0
2064,103174,74172,0
2064,103217,74181,0
2080,103171,74136,0
2080,103194,74154,0
2060,103243,74164,0
2080,103190,74168,0
2088,103181,74189,0
2088,103163,74183,0
2094,103253,74163,0
2092,103196,74185,0
2098,103148,74159,0
2096,103208,74197,0
2089,103176,74205,0
2089,103215,74176,0
2088,103205,74136,0
2088,103183,74198,0
2080,103226,74198,0
2080,103183,74121,0
2080,103193,74219,0
2082,103229,74166,0
2082,103182,74171,0
2084,103116,74230,0
2082,103245,74167,0
2088,103191,74189,0
2092,103123,74179,0
2096,103223,74218,0
2112,103147,74235,0
2072,103244,74172,0
2080,103213,74147,0
2076,103179,74201,0
2073,103216,74212,0
2101,103186,74135,0
2108,103209,74229,0
2116,103215,74152,0
2097,103203,74169,0
2092,103127,74169,0
2088,103209,74202,0
2084,103213,74159,0
2082,103170,74194,0
2080,103186,74216,0
2075,103192,74166,0
2080,103192,74215,0
2084,103228,74177,0
2080,103183,74130,0
2088,103152,74252,0
2092,103217,74198,0
2090,103176,74172,0
2088,103135,74175,0
2101,103242,74170,0
2097,103174,74231,0
2096,103189,74192,0
2104,103190,74138,0
2096,103192,74203,0
2064,103203,74186,0
2102,103166,74172,0
2104,103161,74235,0
2097,103240,74173,0
2100,103176,74173,0
2088,103125,74203,0
2060,103216,74198,0
2070,103192,74204,0
2062,103201,74184,0
2060,103210,74185,0
2082,103181,74251,0
2088,103200,74183,0
2126,103209,74158,0
2076,103190,74209,0
2120,103194,74206,0
2117,103173,74201,0
2120,103171,74187,0
2122,103213,74188,0
2118,103190,74165,0
2121,103177,74226,0
2122,103154,74208,0
2116,103204,74200,0
2116,103202,74220,0
2108,103205,74156,0
2076,103167,74193,0
2112,103153,74243,0
2112,103233,74190,0
2124,103205,74147,0
2136,103158,74209,0
2112,103236,74215,0
2102,103181,74222,0
2109,103176,74192,0
2112,103228,74175,0
2110,103188,74230,0
2109,103212,74208,0
2116,103170,74163,0
2112,103204,74228,0
2084,103210,74168,0
2076,103176,74147,0
2088,103146,74245,0
2080,103245,74178,0
2088,103201,74216,0
2106,103130,74164,0
2101,103207,74215,0
2090,103163,74228,0
2105,103231,74208,0
2096,103204,74198,0
2104,103174,74229,0
2108,103188,74232,0
2112,103176,74196,0
2096,103213,74214,0
2120,103133,74201,0
2116,103221,74188,0
2130,103185,74255,0
2124,103189,74187,0
2124,103218,74183,0
2117,103179,74216,0
2122,103202,74204,0
2116,103140,74169,0
2112,103148,74237,0
2106,103241,74193,0
2112,103170,74204,0
2068,103159,74209,0
2068,103186,74214,0
2101,103181,74215,0
2096,103217,74180,0
2100,103188,74160,0
2101,103167,74264,0
2108,103184,74226,0
2104,103198,74164,0
2072,103156,74221,0
2076,103210,74186,0
2085,103165,74256,0
2088,103128,74223,0
2136,103247,74193,0
2110,103173,74206,0
2088,103206,74183,0
2112,103162,74195,0
2138,103179,74162,0
2116,103182,74159,0
2120,103175,74199,0
2130,103202,74228,0
2152,103192,74241,0
2120,103180,74189,0
2116,103145,74242,0
2120,103229,74193,0
2116,103180,74263,0
2088,103094,74232,0
2116,103257,74226,0
2128,103183,74221,0
2128,103197,74201,0
2129,103168,74221,0
2128,103153,74238,0
2166,103212,74206,0
2132,103175,74133,0
2136,103173,74247,0
2148,103194,74226,0
2152,103179,74228,0
2154,103133,74202,0
2144,103201,74179,0
2122,103156,74264,0
2144,103151,74208,0
2104,103190,74176,0
2098,103191,74241,0
2118,103208,74177,0
2100,103169,74175,0
2130,103134,74259,0
2126,103233,74213,0
2116,103174,74176,0
2128,103124,74240,0
2109,103175,74236,0
2124,103159,74213,0
2132,103182,74233,0
2122,103190,74224,0
2137,103164,74212,0
2136,103146,74257,0
2140,103212,74206,0
2140,103196,74145,0
2136,103171,74236,0
2138,103204,74228,0
2132,103136,74180,0
2128,103162,74231,0
2132,103219,74207,0
2126,103141,74189,0
2104,103090,74245,0
2120,103201,74210,0
2120,103180,74243,0
2112,103131,74204,0
2120,103197,74187,0
2122,103149,74249,0
2134,103170,74213,0
2128,103195,74158,0
2136,103143,74236,0
2136,103211,74217,0
2112,103141,74238,0
2115,103134,74215,0
2116,103226,74198,0
2114,103167,74218,0
2106,103158,74221,0
2144,103160,74189,0
2136,103174,74234,0
2132,103202,74206,0
2128,103169,74159,0
2120,103134,74263,0
2106,103147,74230,0
2120,103215,74222,0
2110,103187,74249,0
2102,103195,74202,0
2109,103132,74238,0
2105,103089,74236,0
2109,103236,74205,0
2124,103149,74214,0
2116,103136,74224,0
2130,103185,74240,0
2148,103168,74231,0
2140,103205,74197,0
2140,103152,74155,0
2144,103151,74269,0
2142,103158,74224,0
2136,103169,74185,0
2124,103142,74246,0
2120,103220,74199,0
2124,103156,74245,0
2125,103087,74224,0
2128,103221,74219,0
2136,103160,74235,0
2096,103178,74196,0
2096,103149,74215,0
2100,103149,74258,0
2109,103222,74206,0
2132,103165,74154,0
2134,103142,74287,0
2140,103192,74231,0
2148,103165,74265,0
2150,103189,74185,0
2144,103139,74216,0
2164,103167,74248,0
2145,103169,74242,0
2144,103192,74230,0
2140,103180,74215,0
2128,103164,74180,0
2136,103153,74303,0
2136,103172,74227,0
2120,103178,74176,0
2109,103153,74254,0
2116,103191,74227,0
2112,103152,74245,0
2120,103119,74245,0
2118,103224,74226,0
2118,103168,74231,0
2132,103121,74241,0
2126,103178,74225,0
2124,103168,74249,0
2140,103203,74224,0
2140,103171,74167,0
2112,103174,74319,0
2144,103170,74272,0
2108,103177,74215,0
2108,103144,74251,0
2105,103197,74232,0
2112,103154,74280,0
2130,103146,74232,0
2126,103199,74220,0
2128,103164,74261,0
2124,103191,74240,0
2128,103165,74265,0
2128,103135,74226,0
2136,103226,74238,0
2140,103113,74250,0
2128,103156,74279,0
2158,103107,74259,0
2160,103198,74253,0
2170,103186,74272,0
2172,103188,74228,0
2176,103161,74231,0
2181,103171,74307,0
2180,103231,74258,0
2188,103188,74235,0
2186,103126,74281,0
2190,103230,74289,0
2186,103150,74280,0
2184,103213,74260,0
2189,103182,74211,0
2186,103177,74295,0
2188,103205,74282,0
2176,103191,74219,0
2174,103205,74299,0
2184,103217,74252,0
2194,103178,74250,0
2153,103158,74343,0
2166,103207,74272,0
2164,103196,74263,0
2166,103134,74263,0
2160,103224,74290,0
2192,103168,74305,0
2201,103165,74261,0
2196,103229,74262,0
2192,103187,74265,0
2194,103194,74299,0
2188,103126,74286,0
2173,103227,74277,0
2182,103176,74197,0
2208,103216,74297,0
2170,103173,74318,0
2175,103131,74286,0
2176,103266,74269,0
2148,103169,74283,0
2168,103179,74300,0
2176,103183,74288,0
2168,103183,74323,0
2174,103239,74284,0
2178,103174,74232,0
2180,103177,74352,0
2184,103207,74292,0
2176,103210,74264,0
2184,103165,74298,0
2180,103227,74290,0
2156,103167,74334,0
2170,103114,74285,0
2188,103256,74287,0
2160,103193,74306,0
2130,103190,74306,0
2128,103207,74306,0
2124,103183,74329,0
2130,103243,74288,0
2152,103189,74219,0
2154,103185,74345,0
2160,103206,74301,0
2170,103207,74305,0
2174,103187,74267,0
2144,103229,74313,0
2138,103151,74342,0
2164,103159,74331,0
2168,103240,74292,0
2173,103222,74287,0
2165,103185,74256,0
2188,103161,74378,0
2157,103221,74309,0
2154,103210,74315,0
2156,103155,74306,0
2144,103248,74309,0
2148,103201,74358,0
2140,103215,74316,0
2112,103224,74272,0
2142,103200,74321,0
2140,103222,74318,0
2140,103188,74285,0
2142,103215,74350,0
2148,103254,74297,0
2136,103194,74281,0
2140,103152,74371,0
2152,103221,74320,0
2144,103214,74346,0
2100,103157,74301,0
2126,103224,74316,0
2120,103194,74379,0
2118,103203,74302,0
2141,103236,74313,0
2137,103211,74321,0
2133,103218,74329,0
2134,103189,74304,0
2132,103198,74293,0
2132,103231,74341,0
2132,103214,74300,0
2140,103212,74336,0
2141,103196,74354,0
2150,103248,74317,0
2150,103207,74291,0
2142,103178,74359,0
2136,103240,74366,0
2150,103193,74349,0
2158,103188,74361,0
2160,103267,74321,0
2160,103190,74361,0
2168,103152,74356,0
2164,103231,74325,0
2156,103232,74357,0
2152,103227,74306,0
2140,103213,74323,0
2140,103203,74401,0
2121,103242,74333,0
2128,103224,74316,0
2170,103158,74329,0
2124,103249,74370,0
2120,103180,74351,0
2084,103213,74326,0
2080,103257,74335,0
2098,103210,74339,0
2102,103233,74381,0
2130,103202,74300,0
2132,103228,74378,0
2128,103259,74323,0
2132,103214,74337,0
2116,103248,74362,0
2114,103235,74346,0
2105,103210,74319,0
2096,103225,74348,0
2088,103200,74340,0
2076,103245,74383,0
2066,103219,74380,0
2052,103255,74348,0
2040,103208,74301,0
2032,103205,74418,0
2024,103244,74376,0
2026,103236,74334,0
2001,103210,74384,0
2032,103250,74322,0
2034,103202,74389,0
2044,103149,74369,0
2056,103289,74369,0
2084,103233,74360,0
2092,103245,74347,0
2116,103202,74370,0
2136,103206,74394,0
2188,103278,74357,0
2210,103219,74305,0
2270,103189,74418,0
2290,103222,74392,0
2360,103195,74399,0
2444,103203,74357,0
2500,103259,74349,0
2594,103217,74400,0
2672,103193,74389,0
2764,103255,74347,0
2848,103228,74378,0
2932,103248,74336,0
3036,103245,74400,0
3134,103211,74379,0
3244,103278,74379,0
3344,103229,74363,0
3448,103272,74385,0
3552,103216,74412,0
3640,103197,74367,0
3706,103304,74363,0
3758,103209,74392,0
3786,103240,74380,0
3792,103204,74354,0
3776,103218,74397,0
3748,103266,74370,0
3710,103226,74324,0
3672,103211,74446,0
3616,103243,74405,0
3548,103234,74393,0
3488,103204,74399,0
3416,103276,74382,0
3336,103227,74450,0
3264,103202,74374,0
3180,103268,74368,0
3100,103214,74405,0
2996,103241,74393,0
2928,103216,74382,0
2840,103229,74434,0
2788,103296,74383,0
2740,103217,74320,0
2638,103205,74451,0
2568,103259,74409,0
2520,103225,74371,0
2448,103264,74382,0
2388,103227,74379,0
2328,103237,74397,0
2284,103202,74411,0
2232,103208,74378,0
2193,103236,74341,0
2152,103213,74435,0
2114,103255,74432,0
2092,103205,74410,0
2060,103204,74412,0
2002,103295,74374,0
1984,103239,74432,0
2001,103204,74419,0
1970,103240,74383,0
1957,103253,74420,0
1944,103272,74376,0
1920,103222,74384,0
1908,103199,74465,0
1893,103287,74396,0
1880,103261,74427,0
1858,103180,74386,0
1850,103254,74423,0
1840,103211,74428,0
1837,103244,74398,0
1780,103261,74395,0
1776,103226,74405,0
1765,103247,74414,0
1761,103232,74368,0
1794,103252,74460,0
1782,103285,74387,0
1808,103219,74395,0
1796,103198,74449,0
1797,103222,74436,0
1802,103273,74397,0
1808,103265,74384,0
1764,103259,74400,0
1802,103211,74426,0
1812,103203,74420,0
1808,103293,74398,0
1808,103235,74436,0
1810,103217,74432,0
1800,103224,74401,0
1804,103256,74440,0
1838,103277,74390,0
1808,103233,74370,0
1816,103207,74487,0
1813,103264,74419,0
1816,103255,74448,0
1778,103209,74409,0
1814,103264,74407,0
1824,103221,74465,0
1824,103252,74430,0
1832,103279,74380,0
1844,103236,74471,0
1840,103263,74438,0
1844,103220,74441,0
1814,103211,74440,0
1829,103301,74403,0
1820,103237,74421,0
1817,103204,74446,0
1861,103234,74409,0
1852,103243,74438,0
1852,103290,74393,0
1862,103290,74431,0
1865,103234,74467,0
1862,103243,74412,0
1866,103295,74438,0
1868,103244,74388,0
1858,103230,74376,0
1874,103215,74495,0
1876,103262,74419,0
1888,103246,74392,0
1904,103193,74435,0
1898,103280,74458,0
1910,103226,74457,0
1908,103198,74443,0
1905,103303,74407,0
1905,103242,74444,0
1920,103248,74458,0
1910,103238,74437,0
1908,103268,74448,0
1904,103279,74403,0
1872,103213,74378,0
1903,103201,74497,0
1900,103276,74423,0
1912,103244,74451,0
1912,103195,74424,0
1868,103265,74415,0
1872,103219,74498,0
1890,103242,74434,0
1890,103269,74397,0
1925,103237,74454,0
1937,103262,74451,0
1938,103215,74411,0
1944,103246,74468,0
1942,103290,74467,0
1922,103233,74406,0
1938,103197,74480,0
1950,103232,74476,0
1949,103248,74408,0
1952,103268,74453,0
1952,103264,74425,0
1954,103227,74410,0
1960,103215,74491,0
1954,103297,74428,0
1952,103253,74427,0
1924,103183,74472,0
1920,103285,74470,0
1957,103237,74482,0
1960,103248,74440,0
1970,103248,74403,0
1968,103249,74485,0
1970,103241,74450,0
1981,103257,74405,0
1990,103247,74495,0
1984,103270,74415,0
1985,103252,74458,0
1988,103188,74497,0
1994,103305,74452,0
1958,103255,74466,0
1964,103199,74467,0
1952,103279,74484,0
1945,103231,74492,0
1978,103270,74459,0
1980,103277,74442,0
1980,103235,74481,0
1977,103253,74498,0
1986,103234,74467,0
1986,103265,74494,0
1988,103227,74427,0
2005,103260,74471,0
2012,103212,74508,0
2030,103275,74466,0
2024,103269,74437,0
2029,103253,74496,0
2030,103279,74498,0
2034,103229,74468,0
2016,103209,74487,0
2016,103306,74474,0
2018,103241,74481,0
2018,103212,74511,0
2026,103268,74487,0
2014,103275,74493,0
2020,103268,74447,0
2020,103271,74461,0
2020,103255,74514,0
2024,103270,74474,0
2038,103268,74412,0
2028,103241,74482,0
2029,103283,74485,0
2032,103225,74457,0
1996,103246,74496,0
2020,103338,74469,0
2016,103249,74451,0
2020,103194,74483,0
2044,103256,74469,0
2058,103268,74468,0
2056,103283,74448,0
2029,103255,74406,0
2060,103239,74455,0
2056,103257,74465,0
2046,103259,74500,0
2064,103236,74457,0
2046,103253,74425,0
2052,103265,74462,0
2047,103220,74474,0
2056,103215,74438,0
2056,103271,74423,0
2060,103242,74493,0
2029,103239,74435,0
2064,103238,74423,0
2073,103245,74452,0
2080,103268,74418,0
2076,103223,74398,0
2074,103201,74484,0
2078,103264,74416,0
2076,103237,74413,0
2074,103179,74439,0
2062,103266,74440,0
2068,103193,74451,0
2058,103254,74411,0
2068,103241,74396,0
2021,103205,74444,0
2022,103239,74431,0
2028,103229,74357,0
2032,103215,74439,0
2042,103244,74400,0
2070,103195,74423,0
2072,103124,74422,0
2078,103264,74408,0
2086,103231,74400,0
2120,103095,74315,0
2096,103185,74336,0
2080,103210,74294,0
2082,103147,74346,0
2089,103149,74330,0
2088,103155,74263,0
2112,103169,74332,0
2098,103167,74280,0
2101,103123,74309,0
2117,103114,74356,0
2098,103207,74282,0
2105,103148,74306,0
2106,103115,74289,0
2104,103163,74327,0
2076,103118,74333,0
2102,103192,74272,0
2097,103118,74217,0
2085,103129,74335,0
2096,103162,74307,0
2088,103126,74279,0
2076,103114,74327,0
2085,103168,74261,0
2068,103125,74308,0
2086,103073,74287,0
2088,103197,74271,0
2060,103149,74292,0
2080,103163,74255,0
2072,103132,74270,0
2068,103121,74325,0
2108,103177,74279,0
2106,103145,74238,0
2108,103095,74281,0
2125,103176,74307,0
2124,103104,74254,0
2104,103104,74254,0
2112,103104,74254,0
2104,103104,74254,0
2106,103104,74292,0
2104,103154,74281,0
2108,103154,74281,0
2092,103154,74281,0
2096,103154,74281,0
2096,103154,74281,0
2096,103154,74281,0
2088,103154,74281,0
2096,103165,74258,0
2096,103165,74258,0
2100,103165,74258,0
2100,103165,74258,0
2108,103165,74258,0
2110,103165,74258,0
2108,103165,74258,0
2108,103143,74290,0
2108,103143,74290,0
2114,103143,74290,0
2096,103143,74290,0
2092,103143,74290,0
2066,103143,74290,0
2068,103143,74290,0
2080,103143,74215,0
2072,103116,74307,0
2100,103116,74307,0
2098,103116,74307,0
2100,103116,74307,0
2106,103116,74307,0
2112,103094,74302,0
2088,103118,74263,0
2122,103113,74221,0
2128,103121,74288,0
2128,103141,74246,0
2132,103098,74229,0
2128,103074,74320,0
2120,103149,74269,0
2128,103125,74260,0
2132,103065,74262,0
2124,103134,74282,0
2136,103092,74292,0
2088,103131,74270,0
2122,103125,74247,0
2108,103104,74274,0
2112,103131,74302,0
2124,103074,74234,0
2108,103113,74304,0
2114,103149,74246,0
2108,103101,74271,0
2108,103045,74321,0
2116,103134,74270,0
2120,103127,74290,0
2098,103094,74252,0
2092,103126,74279,0
2106,103097,74332,0
2112,103132,74256,0
2104,103119,74204,0
2128,103066,74250,0
2121,103135,74308,0
2118,103071,74298,0
2121,103141,74277,0
2116,103122,74283,0
2120,103128,74233,0
2121,103098,74266,0
2116,103090,74301,0
2109,103147,74256,0
2108,103116,74198,0
2120,103085,74317,0
2114,103111,74286,0
2124,103099,74262,0
2130,103103,74284,0
2121,103157,74248,0
2132,103079,74297,0
2122,103041,74271,0
2120,103147,74257,0
2116,103113,74292,0
2116,103120,74254,0
2120,103098,74272,0
2112,103081,74296,0
2084,103145,74253,0
2112,103114,74221,0
2081,103091,74281,0
2078,103134,74282,0
2069,103098,74281,0
2088,103076,74277,0
2110,103143,74237,0
2116,103082,74297,0
2122,103087,74280,0
2128,103137,74309,0
2130,103119,74228,0
2130,103091,74263,0
2116,103089,74272,0
2128,103106,74289,0
2140,103103,74261,0
2136,103057,74276,0
2130,103146,74240,0
2132,103104,74326,0
2124,103070,74269,0
2108,103142,74258,0
2122,103122,74302,0
2122,103132,74248,0
2134,103080,74247,0
2084,103099,74310,0
2120,103167,74269,0
2124,103102,74253,0
2124,103061,74305,0
2128,103137,74298,0
2124,103094,74299,0
2124,103083,74269,0
2132,103160,74273,0
2132,103105,74301,0
2140,103104,74276,0
2104,103114,74262,0
2104,103131,74308,0
2094,103133,74252,0
2084,103091,74241,0
2128,103066,74326,0
2132,103162,74271,0
2128,103123,74283,0
2128,103062,74267,0
2120,103137,74274,0
2126,103107,74275,0
2120,103146,74303,0
2125,103119,74288,0
2120,103096,74312,0
2106,103103,74316,0
2128,103059,74290,0
2132,103174,74280,0
2134,103118,74298,0
2172,103118,74283,0
2142,103102,74276,0
2132,103127,74340,0
2122,103158,74277,0
2132,103107,74232,0
2136,103089,74369,0
2134,103135,74308,0
2136,103131,74269,0
2124,103080,74301,0
2120,103151,74290,0
2112,103100,74340,0
2120,103057,74288,0
2128,103167,74296,0
2128,103121,74304,0
2134,103137,74287,0
2106,103120,74280,0
2116,103109,74341,0
2122,103174,74289,0
2124,103117,74246,0
2156,103096,74344,0
2154,103157,74315,0
2156,103113,74322,0
2156,103118,74277,0
2156,103151,74274,0
2150,103106,74327,0
2144,103092,74315,0
2153,103155,74300,0
2136,103133,74285,0
2141,103114,74266,0
2140,103069,74362,0
2132,103158,74312,0
2130,103140,74295,0
2124,103080,74289,0
2122,103146,74303,0
2124,103091,74346,0
2117,103120,74310,0
2132,103157,74278,0
2146,103089,74308,0
2148,103139,74324,0
2148,103116,74278,0
2150,103105,74325,0
2148,103183,74298,0
2152,103105,74297,0
2148,103061,74354,0
2148,103145,74312,0
2132,103112,74320,0
2134,103116,74285,0
2096,103148,74274,0
2104,103119,74350,0
2097,103130,74300,0
2096,103136,74267,0
2124,103112,74320,0
2158,103141,74309,0
2124,103086,74273,0
2138,103085,74356,0
2128,103183,74288,0
2128,103116,74278,0
2132,103144,74330,0
2136,103102,74290,0
2150,103123,74307,0
2112,103132,74312,0
2120,103050,74310,0
2140,103156,74320,0
2146,103082,74301,0
2146,103079,74295,0
2138,103166,74285,0
2136,103099,74330,0
2131,103127,74317,0
2156,103099,74240,0
2116,103124,74330,0
2126,103143,74278,0
2120,103113,74302,0
2122,103061,74326,0
2130,103162,74292,0
2124,103123,74297,0
2134,103110,74274,0
2140,103117,74298,0
2157,103098,74324,0
2146,103147,74278,0
2120,103130,74227,0
2148,103109,74304,0
2136,103125,74316,0
2153,103079,74258,0
2172,103107,74331,0
2172,103175,74288,0
2180,103103,74293,0
2156,103044,74323,0
2163,103098,74286,0
2160,103155,74315,0
2164,103090,74270,0
2160,103089,74296,0
2160,103131,74300,0
2152,103109,74289,0
2152,103075,74294,0
2154,103138,74274,0
2164,103100,74336,0
2161,103082,74297,0
2172,103124,74293,0
2136,103113,74317,0
2172,103116,74256,0
2168,103094,74256,0
2216,103085,74339,0
2181,103162,74283,0
2208,103112,74250,0
2166,103062,74324,0
2168,103152,74326,0
2160,103086,74294,0
2158,103068,74310,0
2164,103153,74261,0
2156,103095,74334,0
2160,103050,74302,0
2112,103119,74271,0
2108,103127,74318,0
2138,103120,74283,0
2120,103088,74268,0
2141,103068,74360,0
2152,103150,74298,0
2149,103118,74252,0
2148,103069,74328,0
2152,103070,74308,0
2152,103083,74299,0
2154,103143,74269,0
2144,103093,74303,0
2192,103131,74300,0
2146,103084,74343,0
2148,103128,74285,0
2137,103141,74255,0
2138,103110,74324,0
2152,103138,74314,0
2130,103101,74306,0
2134,103071,74314,0
2144,103187,74304,0
2141,103114,74314,0
2141,103087,74318,0
2132,103095,74323,0
2120,103135,74327,0
2152,103164,74296,0
2186,103114,74271,0
2150,103101,74388,0
2161,103130,74307,0
2164,103125,74260,0
2192,103089,74345,0
2153,103165,74307,0
2124,103108,74343,0
2122,103046,74310,0
2116,103192,74322,0
2108,103118,74322,0
2164,103124,74321,0
2156,103130,74354,0
2170,103111,74346,0
2152,103180,74316,0
2141,103109,74309,0
2160,103150,74318,0
2129,103142,74348,0
2134,103153,74330,0
2132,103113,74310,0
2168,103111,74337,0
2152,103160,74344,0
2146,103107,74310,0
2120,103100,74355,0
2144,103177,74308,0
2136,103116,74354,0
2148,103111,74336,0
2140,103149,74327,0
2140,103165,74350,0
2164,103148,74325,0
2138,103119,74304,0
2124,103123,74389,0
2124,103165,74346,0
2120,103148,74280,0
2144,103121,74353,0
2114,103173,74350,0
2093,103117,74334,0
2130,103102,74378,0
2122,103200,74325,0
2100,103143,74342,0
2098,103064,74387,0
2114,103154,74340,0
2118,103145,74355,0
2144,103120,74298,0
2146,103155,74326,0
2140,103121,74404,0
2136,103154,74343,0
2138,103156,74331,0
2132,103152,74327,0
2136,103131,74360,0
2129,103101,74353,0
2140,103151,74314,0
2124,103166,74376,0
2124,103146,74314,0
2164,103126,74320,0
2160,103092,74399,0
2136,103186,74325,0
2136,103146,74331,0
2152,103076,74350,0
2152,103166,74376,0
2136,103100,74368,0
2146,103125,74350,0
2164,103153,74321,0
2174,103121,74385,0
2192,103125,74374,0
2188,103126,74320,0
2194,103154,74390,0
2194,103161,74326,0
2200,103118,74330,0
2196,103105,74403,0
2192,103161,74361,0
2168,103165,74289,0
2172,103102,74376,0
2172,103167,74366,0
2160,103098,74386,0
2192,103092,74349,0
2192,103200,74344,0
2198,103123,74374,0
2200,103121,74361,0
2204,103102,74364,0
2201,103137,74371,0
2209,103163,74330,0
2224,103090,74363,0
2194,103120,74365,0
2196,103105,74377,0
2204,103176,74359,0
2196,103109,74284,0
2200,103113,74419,0
2192,103156,74388,0
2186,103135,74347,0
2178,103124,74376,0
2168,103159,74336,0
2180,103115,74412,0
2162,103069,74361,0
2160,103185,74359,0
2156,103154,74380,0
2168,103145,74346,0
2152,103123,74381,0
2130,103128,74410,0
2164,103180,74364,0
2168,103145,74336,0
2172,103112,74406,0
2178,103168,74384,0
2148,103139,74398,0
2148,103101,74387,0
2154,103191,74364,0
2152,103132,74424,0
2180,103138,74382,0
2172,103147,74358,0
2148,103158,74412,0
2166,103169,74386,0
2160,103142,74388,0
2152,103105,74396,0
2161,103165,74344,0
2154,103144,74401,0
2156,103104,74411,0
2148,103176,74407,0
2156,103127,74384,0
2168,103116,74403,0
2170,103192,74375,0
2170,103104,74411,0
2168,103129,74392,0
2165,103152,74357,0
2168,103172,74408,0
2178,103183,74365,0
2160,103155,74365,0
2164,103119,74456,0
2154,103184,74376,0
2160,103154,74343,0
2156,103104,74403,0
2152,103161,74430,0
2149,103116,74400,0
2149,103110,74409,0
2138,103219,74377,0
2120,103138,74417,0
2124,103129,74412,0
2140,103156,74393,0
2140,103165,74433,0
2166,103166,74385,0
2174,103153,74339,0
2175,103131,74435,0
2188,103192,74395,0
2212,103169,74434,0
2186,103175,74376,0
2176,103163,74402,0
2144,103144,74427,0
2170,103130,74407,0
2168,103181,74426,0
2164,103181,74380,0
2149,103129,74392,0
2172,103117,74466,0
2160,103214,74399,0
2152,103160,74402,0
2152,103099,74408,0
2152,103189,74438,0
2144,103123,74426,0
2148,103135,74399,0
2161,103221,74405,0
2156,103156,74455,0
2164,103156,74415,0
2164,103171,74412,0
2173,103164,74439,0
2172,103186,74399,0
2176,103141,74383,0
2192,103116,74472,0
2162,103186,74402,0
2121,103156,74361,0
2129,103137,74453,0
2122,103193,74444,0
2115,103120,74425,0
2136,103129,74431,0
2112,103233,74397,0
2128,103150,74426,0
2116,103141,74442,0
2122,103160,74434,0
2108,103162,74386,0
2098,103153,74452,0
2102,103162,74434,0
2097,103145,74453,0
2108,103106,74441,0
2096,103224,74424,0
2094,103154,74418,0
2047,103171,74442,0
2066,103139,74422,0
2084,103170,74462,0
2072,103220,74409,0
2080,103150,74374,0
2077,103152,74506,0
2080,103165,74448,0
2092,103160,74383,0
2100,103149,74461,0
2124,103211,74414,0
2144,103154,74449,0
2137,103093,74465,0
2204,103232,74428,0
2242,103177,74438,0
2290,103149,74441,0
2354,103156,74449,0
2388,103157,74448,0
2458,103206,74431,0
2552,103154,74370,0
2618,103141,74504,0
2714,103183,74472,0
2796,103179,74400,0
2876,103152,74460,0
2958,103219,74408,0
3050,103157,74394,0
3136,103150,74476,0
3232,103180,74415,0
3327,103179,74437,0
3408,103098,74426,0
3500,103182,74461,0
3556,103135,74393,0
3612,103188,74493,0
3652,103206,74422,0
3666,103161,74455,0
3662,103112,74477,0
3650,103205,74450,0
3620,103181,74475,0
3592,103186,74443,0
3552,103178,74457,0
3496,103143,74494,0
3444,103219,74440,0
3376,103178,74375,0
3316,103161,74470,0
3240,103195,74474,0
3160,103134,74441,0
3071,103157,74495,0
3000,103216,74450,0
2920,103160,74462,0
2820,103118,74481,0
2766,103207,74451,0
2704,103200,74472,0
2614,103162,74434,0
2576,103175,74451,0
2520,103158,74513,0
2472,103214,74448,0
2430,103184,74401,0
2384,103185,74423,0
2348,103185,74470,0
2298,103181,74466,0
2261,103162,74457,0
2232,103215,74448,0
2192,103218,74438,0
2156,103162,74509,0
2128,103188,74465,0
2104,103201,74446,0
2064,103165,74456,0
2044,103195,74460,0
2032,103162,74445,0
1988,103164,74503,0
1972,103218,74462,0
1954,103162,74400,0
1941,103157,74522,0
1926,103180,74457,0
1922,103193,74449,0
1896,103147,74475,0
1898,103215,74445,0
1890,103154,74505,0
1882,103117,74480,0
1886,103217,74467,0
1874,103185,74485,0
1836,103171,74451,0
1837,103171,74474,0
1824,103154,74514,0
1800,103214,74471,0
1868,103186,74409,0
1842,103163,74517,0
1832,103199,74492,0
1754,103163,74476,0
1806,103199,74459,0
1786,103216,74474,0
1830,103182,74515,0
1829,103178,74500,0
1832,103215,74448,0
1834,103198,74494,0
1848,103188,74451,0
1845,103176,74478,0
1848,103157,74542,0
1852,103223,74468,0
1860,103186,74436,0
1858,103164,74512,0
1820,103198,74493,0
1862,103153,74497,0
1872,103149,74501,0
1869,103248,74478,0
1876,103170,74505,0
1876,103161,74492,0
1864,103177,74483,0
1872,103205,74509,0
1860,103201,74462,0
1866,103175,74464,0
1868,103147,74559,0
1828,103212,74491,0
1836,103203,74491,0
1856,103130,74488,0
1849,103214,74515,0
1849,103118,74517,0
1904,103149,74481,0
1904,103225,74462,0
1918,103167,74488,0
1912,103199,74532,0
1916,103168,74495,0
1922,103161,74478,0
1920,103207,74466,0
1930,103185,74492,0
1928,103167,74532,0
1924,103222,74494,0
1930,103210,74511,0
1922,103154,74454,0
1922,103203,74495,0
1918,103174,74517,0
1912,103196,74498,0
1916,103200,74449,0
1900,103177,74489,0
1918,103202,74501,0
1948,103151,74456,0
1932,103193,74541,0
1936,103227,74474,0
1944,103170,74477,0
1944,103132,74537,0
1958,103200,74502,0
1949,103206,74511,0
1957,103178,74477,0
1960,103180,74489,0
1944,103175,74546,0
1932,103199,74490,0
1936,103197,74443,0
1930,103185,74523,0
1936,103197,74509,0
1965,103155,74503,0
1966,103140,74516,0
1976,103261,74481,0
1974,103168,74496,0
1972,103173,74540,0
1978,103173,74492,0
1977,103183,74492,0
1981,103219,74511,0
1968,103167,74496,0
2000,103214,74514,0
2012,103163,74511,0
2013,103226,74498,0
2015,103195,74476,0
2014,103167,74530,0
2010,103204,74510,0
1968,103171,74447,0
2000,103181,74526,0
1998,103203,74489,0
1993,103167,74510,0
2000,103122,74554,0
1992,103238,74491,0
1994,103197,74524,0
1996,103178,74479,0
2004,103196,74514,0
2010,103170,74532,0
2008,103231,74498,0
1990,103193,74452,0
2024,103155,74547,0
1988,103227,74532,0
1993,103181,74518,0
2010,103153,74512,0
2010,103228,74488,0
2046,103208,74524,0
2047,103161,74532,0
2068,103196,74499,0
2032,103202,74554,0
2054,103203,74492,0
2072,103191,74526,0
2040,103187,74516,0
2000,103191,74526,0
2044,103235,74474,0
2024,103186,74545,0
2028,103212,74551,0
2040,103164,74505,0
2038,103169,74550,0
2047,103242,74515,0
2044,103183,74525,0
2052,103126,74533,0
2054,103198,74515,0
2064,103223,74546,0
2044,103226,74503,0
2056,103182,74505,0
2052,103183,74587,0
2047,103215,74514,0
2056,103223,74470,0
2060,103186,74554,0
2053,103220,74538,0
2018,103163,74514,0
2056,103180,74566,0
2056,103263,74516,0
2018,103188,74509,0
2020,103138,74574,0
2028,103216,74536,0
2034,103223,74536,0
2064,103152,74513,0
2076,103223,74502,0
2070,103175,74562,0
2078,103155,74510,0
2082,103239,74500,0
2088,103244,74500,0
2092,103185,74540,0
2097,103166,74471,0
2104,103139,74527,0
2100,103251,74509,0
2096,103159,74499,0
2096,103138,74508,0
2092,103206,74496,0
2092,103177,74520,0
2088,103193,74488,0
2068,103175,74444,0
2088,103169,74562,0
2090,103198,74508,0
2092,103209,74487,0
2088,103152,74503,0
2086,103216,74485,0
2104,103156,74542,0
2096,103107,74500,0
2102,103246,74480,0
2080,103177,74484,0
2104,103186,74468,0
2106,103159,74464,0
2064,103158,74510,0
2066,103226,74480,0
2072,103152,74454,0
2064,103127,74505,0
2088,103196,74482,0
2092,103174,74473,0
2084,103161,74449,0
2088,103201,74455,0
2092,103155,74347,0
2093,103159,74445,0
2092,103137,74452,0
2089,103162,74457,0
2084,103153,74428,0
2096,103149,74512,0
2108,103162,74440,0
2100,103183,74412,0
2108,103129,74448,0
2112,103194,74435,0
2118,103130,74462,0
2124,103108,74420,0
2116,103210,74423,0
2084,103154,74423,0
2106,103149,74416,0
2112,103108,74397,0
2110,103149,74443,0
2104,103198,74399,0
2098,103136,74356,0
2096,103119,74483,0
2092,103156,74426,0
2102,103147,74389,0
2096,103093,74408,0
2106,103169,74396,0
2068,103106,74449,0
2082,103088,74385,0
2080,103187,74399,0
2080,103129,74420,0
2116,103139,74401,0
2120,103111,74389,0
2128,103122,74417,0
2116,103188,74360,0