2410,38237,0
2444,38220,0
2420,38214,0
2362,38216,0
2256,38239,0
2128,38237,0
1992,38249,0
1840,38247,0
1716,38256,0
1616,38223,0
1544,38224,0
1511,38234,0
1520,38231,0
1530,38239,0
1676,38235,0
1754,38221,0
1932,38208,0
2036,38237,0
2212,38257,0
2300,38261,0
2344,38259,0
2384,38241,0
2368,38234,0
2296,38236,0
2188,38239,0
2096,38243,0
1952,38247,0
1826,38242,0
1678,38233,0
1508,38232,0
1440,38229,0
1405,38260,0
1530,38237,0
1596,38238,0
1676,38251,0
1808,38257,0
1956,38245,0
2096,38258,0
2236,38238,0
2338,38240,0
2420,38252,0
2436,38247,0
2420,38242,0
2352,38245,0
2240,38230,0
2072,38222,0
1976,38253,0
1780,38275,0
1700,38275,0
1544,38270,0
1524,38255,0
1494,38254,0
1534,38242,0
1488,38247,0
1608,38249,0
1728,38239,0
1880,38249,0
2080,38243,0
2228,38227,0
2320,38239,0
2400,38260,0
2400,38268,0
2360,38257,0
2296,38268,0
2234,38239,0
2096,38242,0
1957,38258,0
1816,38234,0
1684,38237,0
1584,38259,0
1516,38266,0
1488,38235,0
1514,38231,0
1578,38238,0
1676,38241,0
1778,38242,0
1948,38242,0
2047,38231,0
2248,38226,0
2304,38223,0
2420,38253,0
2440,38255,0
2428,38263,0
2352,38256,0
2240,38238,0
2042,38230,0
1894,38234,0
1744,38239,0
1636,38236,0
1577,38235,0
1528,38228,0
1513,38220,0
1562,38242,0
1558,38257,0
1685,38258,0
1808,38265,0
2036,38253,0
2192,38247,0
2322,38231,0
2428,38266,0
2504,38258,0
2502,38235,0
2492,38237,0
2426,38237,0
2296,38239,0
2170,38232,0
2020,38225,0
1865,38216,0
1740,38242,0
1576,38260,0
1588,38252,0
1504,38252,0
1568,38254,0
1552,38237,0
1709,38231,0
1824,38239,0
1972,38233,0
2056,38253,0
2196,38227,0
2304,38235,0
2376,38225,0
2432,38229,0
2409,38246,0
2348,38262,0
2256,38263,0
2064,38262,0
1898,38229,0
1750,38236,0
1716,38248,0
1616,38243,0
1556,38245,0
1526,38257,0
1556,38233,0
1616,38244,0
1716,38246,0
1840,38242,0
1972,38248,0
2120,38227,0
2248,38233,0
2350,38250,0
2416,38271,0
2404,38267,0
2416,38276,0
2308,38240,0
2228,38240,0
2044,38234,0
1952,38248,0
1804,38243,0
1684,38244,0
1496,38247,0
1424,38228,0
1408,38246,0
1436,38263,0
1568,38281,0
1664,38276,0
1802,38276,0
1952,38247,0
2048,38251,0
2176,38252,0
2312,38262,0
2408,38291,0
2432,38259,0
2400,38279,0
2332,38271,0
2220,38266,0
2098,38259,0
1944,38237,0
1818,38251,0
1692,38274,0
1609,38282,0
1552,38272,0
1503,38288,0
1552,38261,0
1544,38271,0
1708,38263,0
1762,38261,0
1938,38267,0
2012,38269,0
2156,38248,0
2216,38259,0
2249,38277,0
2192,38290,0
2136,38293,0
2016,38293,0
1878,38282,0
1764,38276,0
1598,38272,0
1451,38270,0
1324,38286,0
1140,38280,0
1085,38283,0
1074,38276,0
1240,38302,0
1326,38293,0
1458,38276,0
1636,38283,0
1824,38276,0
2012,38286,0
2224,38280,0
2400,38296,0
2568,38314,0
2660,38327,0
2736,38312,0
2790,38318,0
2820,38302,0
2812,38302,0
2844,38293,0
2848,38304,0
2856,38301,0
2840,38314,0
2860,38314,0
2864,38305,0
2912,38303,0
2900,38333,0
2960,38340,0
3024,38349,0
3104,38342,0
3194,38329,0
3269,38324,0
3336,38317,0
3376,38329,0
3392,38331,0
3348,38325,0
3290,38325,0
3188,38353,0
3096,38331,0
2978,38351,0
2852,38340,0
2724,38341,0
2636,38337,0
2552,38338,0
2505,38344,0
2492,38350,0
2512,38339,0
2552,38331,0
2595,38343,0
2672,38373,0
2720,38370,0
2800,38382,0
2800,38369,0
2820,38354,0
2752,38358,0
2686,38365,0
2548,38360,0
2394,38371,0
2160,38370,0
1972,38368,0
1800,38359,0
1642,38372,0
1588,38408,0
1515,38398,0
1481,38412,0
1504,38395,0
1498,38387,0
1593,38382,0
1728,38381,0
1944,38384,0
2076,38398,0
2208,38399,0
2292,38421,0
2352,38395,0
2356,38395,0
2324,38396,0
2248,38404,0
2112,38401,0
1984,38406,0
1836,38406,0
1664,38400,0
1564,38394,0
1412,38421,0
1424,38446,0
1348,38447,0
1442,38442,0
1452,38439,0
1606,38418,0
1728,38423,0
1880,38428,0
1940,38431,0
2082,38442,0
2177,38442,0
2240,38429,0
2284,38430,0
2249,38453,0
2164,38466,0
2040,38470,0
1848,38477,0
1684,38454,0
1528,38477,0
1448,38453,0
1384,38426,0
1386,38460,0
1416,38463,0
1508,38467,0
1604,38463,0
1756,38458,0
1884,38464,0
2016,38461,0
2144,38475,0
2237,38452,0
2292,38447,0
2268,38453,0
2264,38464,0
2140,38485,0
2060,38483,0
1860,38495,0
1784,38483,0
1609,38457,0
1404,38472,0
1328,38467,0
1268,38461,0
1264,38468,0
1309,38472,0
1456,38469,0
1558,38444,0
1708,38473,0
1850,38495,0
1948,38485,0
2092,38498,0
2182,38483,0
2304,38477,0
2306,38470,0
2268,38491,0
2182,38477,0
2066,38496,0
1922,38494,0
1776,38490,0
1648,38483,0
1533,38466,0
1444,38464,0
1404,38468,0
1369,38465,0
1432,38471,0
1446,38470,0
1628,38454,0
1716,38448,0
1916,38480,0
2012,38485,0
2184,38497,0
2280,38490,0
2336,38476,0
2280,38456,0
2224,38460,0
2134,38457,0
2005,38452,0
1900,38465,0
1750,38447,0
1604,38441,0
1500,38454,0
1333,38474,0
1285,38480,0
1280,38493,0
1434,38451,0
1520,38486,0
1632,38484,0
1780,38454,0
1928,38468,0
2068,38460,0
2194,38458,0
2297,38453,0
2348,38452,0
2360,38445,0
2306,38454,0
2210,38449,0
2104,38435,0
1908,38471,0
1802,38467,0
1632,38477,0
1568,38478,0
1422,38446,0
1434,38455,0
1416,38448,0
1473,38448,0
1448,38438,0
1562,38439,0
1712,38436,0
1868,38439,0
2064,38465,0
2192,38461,0
2286,38474,0
2356,38477,0
2324,38450,0
2272,38442,0
2188,38437,0
2136,38436,0
1986,38464,0
1848,38457,0
1720,38447,0
1612,38424,0
1509,38439,0
1480,38448,0
1468,38436,0
1512,38424,0
1600,38420,0
1696,38440,0
1839,38454,0
1986,38455,0
2104,38452,0
2260,38441,0
2320,38425,0
2404,38431,0
2376,38424,0
2376,38428,0
2276,38416,0
2174,38420,0
1962,38404,0
1816,38393,0
1676,38407,0
1563,38437,0
1553,38426,0
1508,38439,0
1512,38437,0
1572,38404,0
1600,38397,0
1717,38395,0
1872,38393,0
2100,38388,0
2240,38415,0
2360,38382,0
2428,38408,0
2496,38383,0
2496,38372,0
2440,38361,0
2354,38352,0
2236,38379,0
2092,38389,0
1953,38390,0
1808,38385,0
1720,38361,0
1592,38351,0
1620,38351,0
1557,38340,0
1668,38352,0
1708,38327,0
1876,38322,0
2005,38313,0
2168,38341,0
2242,38344,0
2377,38339,0
2464,38341,0
2520,38312,0
2540,38301,0
2494,38300,0
2426,38297,0
2282,38277,0
2128,38284,0
1976,38270,0
1825,38256,0
1800,38288,0
1713,38275,0
1668,38260,0
1668,38271,0
1717,38259,0
1796,38271,0
1904,38257,0
2036,38228,0
2180,38230,0
2320,38221,0
2432,38229,0
2516,38220,0
2570,38212,0
2528,38177,0
2508,38191,0
2380,38218,0
2290,38214,0
2114,38230,0
2012,38190,0
1872,38182,0
1776,38178,0
1590,38176,0
1548,38167,0
1541,38160,0
1588,38158,0
1720,38135,0
1818,38155,0
1952,38155,0
2094,38164,0
2168,38174,0
2288,38149,0
2370,38123,0
2456,38141,0
2440,38118,0
2384,38124,0
2272,38132,0
2146,38139,0
2000,38117,0
1856,38112,0
1725,38095,0
1612,38088,0
1541,38098,0
1490,38121,0
1487,38117,0
1538,38114,0
1561,38097,0
1732,38085,0
1824,38085,0
2016,38071,0
2104,38079,0
2260,38087,0
2329,38070,0
2392,38044,0
2328,38054,0
2264,38058,0
2156,38075,0
2029,38081,0
1914,38081,0
1773,38052,0
1640,38051,0
1545,38046,0
1388,38047,0
1356,38047,0
1370,38042,0
1556,38063,0
1610,38046,0
1728,38044,0
1864,38058,0
2012,38034,0
2144,38016,0
2252,38027,0
2344,38048,0
2384,38063,0
2368,38045,0
2305,38062,0
2208,38040,0
2080,38032,0
1888,38026,0
1792,38028,0
1604,38023,0
1558,38025,0
1416,38031,0
1452,38020,0
1440,38008,0
1520,38027,0
1514,38046,0
1633,38053,0
1793,38061,0
1937,38046,0
2128,38029,0
2242,38032,0
2320,38037,0
2370,38038,0
2320,38039,0
2262,38036,0
2160,38037,0
2092,38063,0
1956,38042,0
1818,38065,0
1674,38045,0
1580,38047,0
1504,38047,0
1474,38050,0
1484,38057,0
1535,38043,0
1628,38040,0
1744,38068,0
1866,38078,0
2032,38087,0
2124,38091,0
2276,38068,0
2321,38055,0
2394,38076,0
2344,38071,0
2314,38081,0
2208,38081,0
2088,38079,0
1864,38084,0
1714,38071,0
1585,38088,0
1464,38107,0
1464,38122,0
1432,38122,0
1456,38111,0
1516,38090,0
1548,38102,0
1674,38110,0
2052,38125,0
2188,38108,0
2304,38115,0
2376,38104,0
2416,38115,0
2396,38097,0
2328,38096,0
2234,38094,0
2096,38119,0
1948,38135,0
1808,38140,0
1678,38147,0
1578,38119,0
1450,38123,0
1485,38122,0
1444,38107,0
1560,38125,0
1600,38123,0
1780,38112,0
1906,38102,0
1992,38098,0
2144,38127,0
2260,38144,0
2344,38136,0
2376,38141,0
2388,38130,0
2329,38125,0
2224,38118,0
2096,38122,0
1896,38124,0
1754,38120,0
1624,38126,0
1600,38125,0
1534,38147,0
1508,38125,0
1520,38127,0
1584,38148,0
1672,38113,0
1784,38100,0
1930,38133,0
2080,38139,0
2212,38148,0
2314,38141,0
2376,38122,0
2420,38118,0
2368,38114,0
2338,38115,0
2192,38111,0
2112,38115,0
1920,38098,0
1832,38093,0
1704,38098,0
1608,38126,0
1444,38132,0
1420,38131,0
1440,38143,0
1500,38124,0
1652,38101,0
1776,38100,0
1926,38099,0
2080,38103,0
2160,38103,0
2288,38110,0
2360,38099,0
2456,38118,0
2424,38113,0
2368,38104,0
2258,38130,0
2137,38115,0
1980,38119,0
1848,38122,0
1718,38123,0
1618,38117,0
1546,38107,0
1524,38100,0
1528,38113,0
1602,38115,0
1648,38116,0
1812,38106,0
1922,38111,0
2100,38103,0
2200,38105,0
2340,38125,0
2412,38143,0
2448,38143,0
2384,38146,0
2304,38133,0
2196,38120,0
2056,38107,0
1952,38119,0
1814,38117,0
1680,38112,0
1588,38117,0
1448,38102,0
1441,38091,0
1461,38113,0
1620,38135,0
1714,38107,0
1834,38095,0
1976,38113,0
2120,38126,0
2248,38149,0
2352,38137,0
2420,38146,0
2442,38117,0
2422,38106,0
2344,38115,0
2243,38119,0
2108,38111,0
1920,38117,0
1826,38106,0
1652,38088,0
1609,38094,0
1493,38114,0
1534,38128,0
1522,38126,0
1608,38129,0
1618,38120,0
1744,38100,0
1888,38105,0
2040,38098,0
2224,38100,0
2336,38110,0
2392,38094,0
2434,38088,0
2360,38089,0
2304,38107,0
2180,38123,0
2114,38093,0
1970,38109,0
1832,38107,0
1704,38103,0
1616,38086,0
1550,38114,0
1522,38119,0
1544,38102,0
1594,38083,0
1697,38097,0
1836,38076,0
1957,38083,0
2120,38079,0
2208,38080,0
2348,38071,0
2392,38067,0
2440,38084,0
2394,38097,0
2352,38092,0
2240,38095,0
2116,38072,0
1892,38073,0
1737,38070,0
1608,38074,0
1501,38076,0
1496,38070,0
1472,38051,0
1496,38043,0
1554,38073,0
1600,38079,0
1728,38081,0
1878,38079,0
2112,38065,0
2248,38070,0
2344,38051,0
2420,38065,0
2444,38056,0
2420,38073,0
2346,38046,0
2240,38046,0
2108,38055,0
1961,38053,0
1820,38044,0
1670,38048,0
1596,38030,0
1480,38033,0
1520,38048,0
1496,38050,0
1616,38066,0
1658,38067,0
1836,38051,0
1972,38038,0
2128,38023,0
2184,38023,0
2290,38028,0
2360,38017,0
2384,38026,0
2380,38005,0
2300,38008,0
2184,38029,0
2048,38038,0
1856,38044,0
1712,38045,0
1577,38011,0
1592,38010,0
1534,38009,0
1514,38035,0
1544,38035,0
1617,38038,0
1724,38034,0
1848,38010,0
1990,38012,0
2138,38000,0
2260,38006,0
2368,38006,0
2431,38002,0
2452,38003,0
2396,37998,0
2344,38003,0
2196,38022,0
2108,38031,0
1904,38030,0
1816,38022,0
1656,38000,0
1584,37995,0
1428,37989,0
1417,38006,0
1436,38003,0
1507,38009,0
1672,37988,0
1808,37975,0
1952,37986,0
2104,38025,0
2192,38031,0
2300,38034,0
2368,38006,0
2440,37999,0
2400,38020,0
2324,38009,0
2226,38009,0
2080,37991,0
1945,38018,0
1794,38031,0
1673,38031,0
1560,38034,0
1520,38014,0
1513,38004,0
1538,37997,0
1610,38010,0
1665,38010,0
1850,38012,0
1956,37996,0
2144,37982,0
2232,37984,0
2369,38017,0
2428,38032,0
2456,38023,0
2352,38028,0
2264,38006,0
2152,38009,0
2004,38006,0
1893,38012,0
1755,38011,0
1632,38014,0
1545,37991,0
1416,38002,0
1408,38015,0
1442,38046,0
1618,38000,0
1728,38022,0
1856,38044,0
1996,38038,0
2129,38034,0
2260,38049,0
2360,38014,0
2450,38025,0
2436,38025,0
2404,38029,0
2324,38031,0
2216,38017,0
2080,38031,0
1888,38007,0
1780,38023,0
1620,38039,0
1584,38052,0
1458,38062,0
1508,38044,0
1534,38024,0
1612,38028,0
1626,38025,0
1764,38035,0
1920,38035,0
2068,38028,0
2249,38016,0
2353,38022,0
2413,38057,0
2428,38059,0
2360,38065,0
2280,38054,0
2096,38082,0
1944,38058,0
1804,38051,0
1688,38040,0
1596,38045,0
1544,38040,0
1522,38035,0
1562,38043,0
1612,38060,0
1726,38038,0
1864,38043,0
1983,38029,0
2140,38068,0
2242,38073,0
2372,38071,0
2404,38089,0
2464,38055,0
2392,38057,0
2321,38057,0
2232,38051,0
2024,38061,0
1861,38063,0
1712,38045,0
1590,38039,0
1505,38069,0
1504,38081,0
1482,38081,0
1518,38092,0
1592,38070,0
1640,38055,0
1785,38060,0
1937,38072,0
2152,38082,0
2288,38064,0
2380,38077,0
2444,38081,0
2448,38060,0
2416,38066,0
2332,38071,0
2224,38078,0
2072,38075,0
1934,38067,0
1788,38057,0
1663,38072,0
1592,38091,0
1472,38093,0
1520,38096,0
1498,38109,0
1632,38075,0
1682,38070,0
1872,38073,0
2116,38081,0
2168,38078,0
2240,38079,0
2336,38059,0
2396,38067,0
2408,38087,0
2400,38104,0
2316,38096,0
2187,38101,0
2044,38088,0
1846,38084,0
1712,38081,0
1584,38099,0
1592,38085,0
1546,38096,0
1534,38089,0
1569,38091,0
1648,38099,0
1760,38092,0
1880,38086,0
2024,38094,0
2170,38089,0
2290,38097,0
2384,38087,0
2428,38076,0
2452,38069,0
2360,38104,0
2320,38111,0
2172,38102,0
2064,38120,0
1874,38100,0
1796,38085,0
1656,38078,0
1584,38087,0
1440,38091,0
1432,38094,0
1461,38092,0
1538,38083,0
1700,38080,0
1836,38117,0
1988,38124,0
2140,38125,0
2224,38128,0
2321,38099,0
2381,38099,0
2444,38100,0
2416,38112,0
2330,38105,0
2216,38094,0
2080,38090,0
1940,38095,0
1804,38098,0
1688,38107,0
1600,38101,0
1557,38093,0
1556,38082,0
1573,38105,0
1657,38124,0
1702,38125,0
1876,38131,0
1970,38117,0
2156,38106,0
2240,38100,0
2376,38116,0
2416,38110,0
2440,38107,0
2352,38112,0
2273,38088,0
2156,38118,0
2020,38127,0
1937,38127,0
1813,38137,0
1714,38118,0
1632,38113,0
1516,38110,0
1528,38107,0
1562,38119,0
1736,38124,0
1842,38136,0
1968,38121,0
2098,38099,0
2232,38122,0
2352,38115,0
2430,38132,0
2480,38141,0
2488,38140,0
2440,38138,0
2352,38113,0
2215,38115,0
2088,38117,0
1890,38120,0
1804,38121,0
1634,38117,0
1609,38107,0
1488,38112,0
1544,38139,0
1570,38148,0
1670,38142,0
1682,38144,0
1828,38120,0
1968,38130,0
2120,38115,0
2288,38120,0
2372,38125,0
2428,38117,0
2433,38110,0
2352,38103,0
2256,38111,0
2120,38139,0
2058,38137,0
1912,38145,0
1768,38119,0
1664,38128,0
1584,38122,0
1544,38147,0
1540,38142,0
1576,38123,0
1664,38123,0
1772,38117,0
1904,38117,0
2042,38116,0
2200,38110,0
2280,38119,0
2404,38107,0
2412,38101,0
2472,38110,0
2368,38135,0
2320,38145,0
2176,38141,0
2047,38150,0
1832,38103,0
1698,38117,0
1580,38127,0
1500,38116,0
1500,38124,0
1510,38124,0
1557,38106,0
1648,38112,0
1696,38127,0
1836,38142,0
2013,38142,0
2192,38132,0
2292,38116,0
2388,38135,0
2444,38132,0
2416,38146,0
2372,38123,0
2280,38123,0
2146,38129,0
1996,38129,0
1854,38126,0
1708,38110,0
1556,38100,0
1488,38111,0
1360,38130,0
1402,38145,0
1362,38147,0
1480,38154,0
1504,38138,0
1672,38128,0
1788,38125,0
1930,38130,0
1936,38129,0
2032,38126,0
2070,38121,0
2053,38115,0
2045,38109,0
1954,38114,0
1837,38141,0
1708,38151,0
1520,38161,0
1416,38145,0
1344,38122,0
1418,38149,0
1456,38122,0
1513,38133,0
1643,38124,0
1828,38130,0
2040,38133,0
2308,38129,0
2600,38134,0
2880,38121,0
3152,38114,0
3376,38152,0
3543,38163,0
3632,38150,0
3664,38150,0
3600,38140,0
3488,38128,0
3332,38123,0
3144,38141,0
2968,38128,0
2800,38135,0
2680,38129,0
2570,38128,0
2538,38121,0
2530,38115,0
2594,38148,0
2692,38167,0
2856,38155,0
3032,38159,0
3168,38143,0
3296,38131,0
3376,38135,0
3408,38163,0
3344,38150,0
3216,38125,0
3068,38125,0
2880,38147,0
2686,38157,0
2496,38163,0
2332,38159,0
2192,38149,0
2090,38141,0
2046,38130,0
1997,38137,0
2017,38130,0
2034,38136,0
2148,38132,0
2208,38125,0
2328,38113,0
2364,38131,0
2440,38156,0
2442,38164,0
2372,38163,0
2292,38156,0
2168,38140,0
2024,38146,0
1862,38142,0
1744,38154,0
1621,38146,0
1504,38139,0
1440,38135,0
1314,38130,0
1324,38144,0
1373,38172,0
1568,38204,0
1688,38146,0
1824,38179,0
1952,38159,0
2096,38166,0
2208,38177,0
2292,38184,0
2328,38171,0
2320,38156,0
2261,38156,0
2174,38145,0
2012,38169,0
1888,38173,0
1688,38154,0
1612,38167,0
1456,38162,0
1450,38174,0
1332,38195,0
1408,38197,0
1436,38205,0
1535,38194,0
1548,38177,0
1706,38188,0
1856,38177,0
1992,38192,0
2162,38189,0
2244,38180,0
2288,38184,0
2280,38174,0
2180,38182,0
2080,38215,0
1924,38224,0
1856,38204,0
1722,38205,0
1584,38214,0
1484,38207,0
1402,38239,0
1372,38213,0
1380,38204,0
1437,38215,0
1535,38219,0
1650,38218,0
1792,38222,0
1935,38215,0
2072,38212,0
2146,38212,0
2264,38234,0
2264,38247,0
2276,38255,0
2176,38252,0
2116,38242,0
1968,38231,0
1852,38232,0
1608,38232,0
1488,38231,0
1378,38234,0
1316,38229,0
1300,38224,0
1365,38229,0
1422,38261,0
1528,38263,0
1580,38264,0
1729,38273,0
1882,38258,0
2088,38238,0
2234,38271,0
2290,38273,0
2320,38273,0
2304,38248,0
2252,38255,0
2152,38264,0
2022,38256,0
1876,38260,0
1728,38262,0
1602,38250,0
1473,38243,0
1440,38256,0
1314,38279,0
1408,38285,0
1396,38289,0
1548,38286,0
1616,38269,0
1816,38274,0
1948,38258,0
2090,38268,0
2144,38274,0
2224,38264,0
2262,38261,0
2249,38251,0
2226,38277,0
2130,38280,0
1996,38295,0
1858,38307,0
1664,38286,0
1514,38272,0
1420,38274,0
1452,38289,0
1420,38292,0
1437,38270,0
1500,38260,0
1594,38273,0
1723,38283,0
1872,38288,0
2009,38282,0
2144,38278,0
2256,38271,0
2332,38277,0
2348,38288,0
2344,38310,0
2244,38303,0
2184,38315,0
2020,38296,0
1913,38282,0
1724,38288,0
1642,38283,0
1528,38297,0
1478,38294,0
1336,38288,0
1354,38290,0
1412,38288,0
1512,38319,0
1688,38321,0
1840,38318,0
1988,38326,0
2132,38306,0
2200,38299,0
2289,38293,0
2336,38285,0
2376,38332,0
2320,38298,0
2220,38295,0
2106,38292,0
1952,38323,0
1824,38301,0
1712,38308,0
1610,38305,0
1552,38312,0
1524,38309,0
1548,38301,0
1609,38283,0
1704,38296,0
1776,38320,0
1972,38340,0
2080,38337,0
2252,38328,0
2324,38297,0
2440,38311,0
2472,38310,0
2472,38311,0
2356,38314,0
2256,38318,0
2112,38311,0
1964,38301,0
1873,38308,0
1748,38336,0
1645,38333,0
1592,38342,0
1504,38350,0
1507,38324,0
1570,38313,0
1768,38331,0
1892,38338,0
2026,38319,0
2166,38327,0
2300,38322,0
2408,38312,0
2480,38314,0
2516,38321,0
2488,38319,0
2442,38321,0
2352,38313,0
2216,38300,0
2098,38308,0
1920,38337,0
1864,38323,0
1752,38332,0
1720,38320,0
1648,38293,0
1746,38303,0
1778,38287,0
1888,38301,0
1932,38300,0
2072,38289,0
2202,38279,0
2342,38270,0
2466,38278,0
2529,38297,0
2568,38297,0
2562,38296,0
2441,38294,0
2340,38272,0
2212,38264,0
2136,38276,0
2006,38248,0
1912,38266,0
1800,38267,0
1733,38251,0
1724,38238,0
1732,38239,0
1791,38249,0
1880,38224,0
1976,38211,0
2114,38211,0
2228,38241,0
2360,38239,0
2432,38241,0
2532,38231,0
2524,38211,0
2512,38196,0
2408,38201,0
2336,38191,0
2196,38185,0
2058,38194,0
1840,38184,0
1713,38174,0
1610,38168,0
1536,38202,0
1564,38201,0
1592,38206,0
1652,38204,0
1744,38178,0
1804,38172,0
1942,38164,0
2086,38169,0
2288,38168,0
2376,38167,0
2432,38163,0
2448,38154,0
2424,38150,0
2344,38142,0
2232,38150,0
2106,38159,0
1980,38151,0
1836,38143,0
1716,38130,0
1615,38127,0
1544,38141,0
1476,38151,0
1546,38150,0
1553,38169,0
1692,38148,0
1760,38137,0
1944,38125,0
2058,38135,0
2200,38132,0
2232,38135,0
2304,38136,0
2326,38124,0
2304,38112,0
2272,38107,0
2154,38137,0
2019,38148,0
1892,38139,0
1676,38144,0
1562,38132,0
1505,38111,0
1482,38133,0
1500,38131,0
1564,38119,0
1668,38127,0
1784,38109,0
1918,38102,0
2064,38093,0
2176,38113,0
2278,38126,0
2344,38132,0
2362,38133,0
2341,38134,0
2264,38114,0
2160,38105,0
2001,38115,0
1896,38112,0
1706,38112,0
1633,38105,0
1540,38097,0
1380,38095,0
1365,38091,0
1396,38094,0
1456,38130,0
1552,38134,0
1740,38133,0
1902,38127,0
2024,38126,0
2160,38107,0
2232,38102,0
2305,38109,0
2313,38106,0
2360,38111,0
2302,38118,0
2184,38101,0
2068,38127,0
1928,38106,0
1786,38113,0
1668,38106,0
1572,38117,0
1506,38114,0
1480,38094,0
1492,38093,0
1535,38093,0
1660,38124,0
1720,38141,0
1912,38137,0
2001,38144,0
2180,38122,0
2256,38110,0
2360,38116,0
2372,38119,0
2357,38116,0
2228,38123,0
2113,38112,0
1996,38110,0
1844,38099,0
1744,38120,0
1630,38141,0
1536,38149,0
1485,38158,0
1388,38136,0
1408,38126,0
1472,38134,0
1672,38120,0
1788,38141,0
1932,38136,0
2076,38155,0
2188,38131,0
2284,38133,0
2344,38124,0
2400,38130,0
2340,38122,0
2264,38115,0
2160,38132,0
2031,38155,0
1908,38156,0
1704,38154,0
1648,38168,0
1504,38137,0
1508,38140,0
1424,38139,0
1514,38137,0
1562,38135,0
1696,38148,0
1728,38134,0
1878,38128,0
2020,38127,0
2146,38165,0
2288,38169,0
2356,38162,0
2368,38160,0
2342,38140,0
2228,38152,0
2112,38140,0
1968,38146,0
1922,38144,0
1784,38163,0
1661,38144,0
1594,38148,0
1528,38156,0
1528,38148,0
1541,38140,0
1610,38152,0
1736,38145,0
1840,38137,0
1968,38132,0
2090,38156,0
2226,38182,0
2288,38166,0
2384,38178,0
2368,38173,0
2364,38160,0
2240,38144,0
2160,38151,0
2032,38155,0
1900,38168,0
1676,38163,0
1568,38159,0
1478,38149,0
1412,38142,0
1480,38141,0
1504,38172,0
1574,38184,0
1696,38176,0
1764,38187,0
1908,38169,0
2048,38159,0
2240,38173,0
2330,38166,0
2388,38182,0
2408,38160,0
2376,38138,0
2300,38180,0
2192,38184,0
2064,38154,0
1920,38162,0
1792,38172,0
1680,38155,0
1570,38169,0
1535,38157,0
1472,38155,0
1568,38145,0
1578,38179,0
1728,38191,0
1808,38197,0
1988,38189,0
2120,38177,0
2260,38183,0
2308,38170,0
2354,38180,0
2368,38178,0
2337,38180,0
2293,38167,0
2176,38166,0
2036,38156,0
1906,38173,0
1705,38195,0
1600,38197,0
1498,38208,0
1544,38174,0
1534,38191,0
1572,38180,0
1648,38199,0
1732,38197,0
1858,38182,0
1996,38181,0
2132,38192,0
2248,38192,0
2344,38190,0
2400,38190,0
2407,38184,0
2376,38171,0
2264,38193,0
2184,38204,0
2020,38216,0
1926,38237,0
1746,38224,0
1692,38209,0
1580,38207,0
1568,38203,0
1456,38201,0
1498,38209,0
1560,38214,0
1674,38200,0
1848,38196,0
1991,38226,0
2124,38241,0
2244,38246,0
2296,38220,0
2363,38207,0
2368,38211,0
2380,38232,0
2300,38218,0
2192,38235,0
2056,38225,0
1924,38231,0
1793,38209,0
1696,38229,0
1609,38222,0
1557,38223,0
1557,38230,0
1578,38213,0
1640,38215,0
1760,38250,0
1828,38256,0
2016,38250,0
2104,38246,0
2258,38228,0
2312,38223,0
2412,38233,0
2420,38231,0
2388,38227,0
2264,38234,0
2160,38240,0
2028,38227,0
1898,38218,0
1804,38249,0
1704,38258,0
1620,38264,0
1562,38266,0
1488,38247,0
1516,38232,0
1586,38237,0
1776,38258,0
1888,38249,0
2016,38232,0
2148,38244,0
2248,38243,0
2340,38242,0
2396,38242,0
2408,38247,0
2376,38233,0
2300,38223,0
2192,38238,0
2057,38267,0
1936,38263,0
1760,38275,0
1706,38266,0
1584,38230,0
1580,38252,0
1513,38244,0
1601,38244,0
1654,38245,0
1756,38244,0
1808,38230,0
1934,38228,0
2082,38240,0
2188,38264,0
2312,38277,0
2356,38272,0
2354,38263,0
2328,38242,0
2200,38234,0
2084,38246,0
1960,38249,0
1898,38243,0
1776,38236,0
1680,38248,0
1610,38264,0
1573,38235,0
1582,38245,0
1626,38247,0
1705,38243,0
1824,38242,0
1942,38241,0
2080,38222,0
2213,38246,0
2312,38261,0
2372,38273,0
2448,38278,0
2404,38270,0
2384,38252,0
2272,38246,0
2192,38244,0
2032,38252,0
1921,38245,0
1698,38259,0
1600,38241,0
1516,38234,0
1478,38227,0
1621,38259,0
1584,38262,0
1664,38272,0
1780,38267,0
1844,38256,0
1994,38248,0
2296,38254,0
2392,38227,0
2428,38250,0
2428,38263,0
2384,38237,0
2304,38246,0
2192,38240,0
2056,38229,0
1920,38248,0
1816,38266,0
1706,38281,0
1625,38274,0
1600,38260,0
1537,38247,0
1638,38244,0
1664,38245,0
1808,38251,0
1876,38245,0
2072,38248,0
2178,38232,0
2232,38239,0
2320,38257,0
2360,38270,0
2364,38272,0
2316,38281,0
2272,38256,0
2154,38245,0
2017,38247,0
1896,38260,0
1708,38252,0
1609,38256,0
1544,38246,0
1610,38254,0
1618,38275,0
1662,38241,0
1744,38279,0
1832,38261,0
1964,38262,0
2088,38252,0
2216,38237,0
2316,38251,0
2388,38265,0
2418,38282,0
2413,38278,0
2372,38275,0
2240,38263,0
2176,38244,0
2008,38250,0
1918,38254,0
1744,38252,0
1688,38250,0
1620,38257,0
1600,38249,0
1497,38240,0
1548,38242,0
1629,38281,0
1748,38283,0
1926,38282,0
2061,38266,0
2188,38261,0
2300,38254,0
2344,38255,0
2392,38258,0
2392,38262,0
2400,38245,0
2302,38259,0
2196,38269,0
2090,38265,0
1924,38278,0
1828,38262,0
1700,38250,0
1622,38257,0
1594,38265,0
1600,38266,0
1633,38263,0
1695,38253,0
1818,38255,0
1898,38242,0
2088,38248,0
2178,38277,0
2312,38284,0
2353,38281,0
2428,38295,0
2424,38277,0
2386,38264,0
2232,38260,0
2112,38261,0
1976,38270,0
1840,38276,0
1752,38272,0
1665,38268,0
1602,38264,0
1568,38248,0
1496,38271,0
1550,38291,0
1628,38299,0
1830,38275,0
1960,38249,0
2092,38253,0
2232,38270,0
2340,38281,0
2416,38262,0
2460,38269,0
2460,38273,0
2420,38269,0
2328,38247,0
2220,38255,0
2077,38268,0
1960,38288,0
1784,38293,0
1740,38288,0
1620,38294,0
1648,38277,0
1594,38273,0
1702,38263,0
1768,38263,0
1892,38273,0
1945,38275,0
2092,38270,0
2228,38271,0
2344,38270,0
2464,38253,0
2502,38267,0
2496,38294,0
2448,38293,0
2328,38293,0
2209,38287,0
2072,38276,0
2008,38264,0
1892,38279,0
1784,38276,0
1720,38289,0
1661,38302,0
1680,38293,0
1712,38287,0
1770,38303,0
1864,38274,0
1986,38261,0
2116,38255,0
2212,38273,0
2320,38270,0
2360,38278,0
2420,38269,0
2388,38263,0
2376,38249,0
2252,38274,0
2178,38292,0
2040,38292,0
1928,38297,0
1716,38295,0
1620,38269,0
1552,38266,0
1520,38271,0
1572,38264,0
1639,38274,0
1718,38264,0
1831,38277,0
1904,38257,0
2048,38250,0
2166,38271,0
2336,38243,0
2408,38263,0
2448,38266,0
2428,38287,0
2376,38275,0
2272,38246,0
2160,38234,0
2038,38270,0
1908,38281,0
1798,38283,0
1700,38282,0
1634,38287,0
1616,38269,0
1568,38254,0
1668,38255,0
1704,38258,0
1864,38255,0
1936,38257,0
2130,38262,0
2232,38262,0
2338,38242,0
2356,38248,0
2392,38274,0
2376,38283,0
2320,38285,0
2257,38291,0
2132,38275,0
2008,38258,0
1888,38256,0
1720,38252,0
1629,38266,0
1572,38264,0
1632,38272,0
1644,38264,0
1693,38269,0
1784,38261,0
1872,38279,0
1992,38282,0
2108,38249,0
2216,38256,0
2292,38261,0
2340,38254,0
2340,38263,0
2307,38253,0
2216,38257,0
2056,38253,0
1944,38254,0
1746,38235,0
1652,38263,0
1460,38282,0
1422,38287,0
1340,38286,0
1328,38271,0
1241,38264,0
1284,38256,0
1384,38262,0
1496,38260,0
1706,38254,0
1876,38260,0
2029,38257,0
2176,38249,0
2264,38236,0
2357,38257,0
2418,38283,0
2476,38273,0
2508,38271,0
2472,38278,0
2464,38259,0
2456,38270,0
2488,38262,0
2528,38246,0
2596,38262,0
2672,38256,0
2754,38261,0
2832,38260,0
2924,38237,0
3000,38246,0
3072,38278,0
3144,38281,0
3176,38286,0
3248,38292,0
3224,38266,0
3224,38260,0
3184,38263,0
3140,38255,0
3048,38273,0
2960,38263,0
2896,38254,0
2808,38261,0
2764,38274,0
2732,38294,0
2692,38289,0
2700,38300,0
2704,38284,0
2740,38274,0
2880,38333,0
2948,38289,0
3010,38288,0
3048,38294,0
3071,38276,0
3080,38282,0
3040,38275,0
2944,38287,0
2836,38264,0
2676,38263,0
2520,38272,0
2326,38299,0
2156,38306,0
1964,38312,0
1884,38314,0
1748,38281,0
1744,38282,0
1688,38286,0
1760,38292,0
1800,38292,0
1812,38297,0
1920,38295,0
2038,38293,0
2140,38281,0
2224,38293,0
2312,38317,0
2329,38319,0
2300,38326,0
2224,38327,0
2072,38313,0
1958,38305,0
1816,38299,0
1772,38333,0
1662,38318,0
1584,38324,0
1516,38330,0
1500,38304,0
1518,38340,0
1568,38339,0
1632,38313,0
1748,38316,0
1874,38319,0
2002,38318,0
2107,38324,0
2204,38322,0
2232,38326,0
2288,38317,0
2232,38313,0
2192,38336,0
2068,38347,0
2000,38353,0
1844,38354,0
1744,38353,0
1540,38334,0
1450,38329,0
1389,38334,0
1368,38335,0
1449,38337,0
1501,38343,0
1585,38343,0
1685,38337,0
1764,38331,0
1890,38330,0
2012,38340,0
2162,38353,0
2220,38371,0
2258,38343,0
2236,38338,0
2168,38338,0
2072,38351,0
1952,38337,0
1828,38335,0
1704,38340,0
1588,38372,0
1484,38371,0
1448,38391,0
1452,38381,0
1416,38381,0
1540,38364,0
1586,38348,0
1728,38359,0
1816,38359,0
2016,38364,0
2097,38369,0
2208,38375,0
2208,38365,0
2232,38349,0
2196,38356,0
2128,38393,0
2076,38398,0
1938,38401,0
1811,38409,0
1670,38383,0
1516,38367,0
1424,38366,0
1385,38377,0
1464,38384,0
1482,38386,0
1570,38385,0
1660,38392,0
1754,38384,0
1892,38374,0
2020,38379,0
2138,38387,0
2260,38391,0
2292,38388,0
2313,38386,0
2261,38384,0
2208,38373,0
2072,38378,0
1994,38382,0
1816,38407,0
1740,38415,0
1572,38418,0
1535,38416,0
1472,38417,0
1468,38398,0
1388,38392,0
1448,38401,0
1552,38398,0
1672,38395,0
1850,38393,0
1985,38401,0
2104,38394,0
2197,38394,0
2226,38393,0
2244,38416,0
2216,38429,0
2216,38409,0
2122,38434,0
1996,38432,0
1872,38407,0
1752,38402,0
1640,38437,0
1556,38436,0
1502,38441,0
1492,38438,0
1516,38435,0
1586,38421,0
1663,38419,0
1780,38425,0
1864,38434,0
2047,38429,0
2129,38425,0
2264,38427,0
2294,38414,0
2352,38420,0
2312,38419,0
2264,38433,0
2104,38453,0
1988,38460,0
1852,38465,0
1728,38466,0
1748,38456,0
1584,38440,0
1536,38443,0
1520,38445,0
1482,38453,0
1536,38442,0
1632,38445,0
1832,38433,0
1948,38452,0
2084,38458,0
2204,38454,0
2282,38431,0
2356,38447,0
2372,38451,0
2348,38458,0
2292,38460,0
2200,38464,0
2088,38450,0
1952,38457,0
1864,38462,0
1714,38446,0
1704,38442,0
1604,38467,0
1652,38479,0
1624,38477,0
1744,38477,0
1820,38481,0
1938,38470,0
1988,38465,0
2114,38458,0
2232,38450,0
2329,38469,0
2418,38462,0
2429,38468,0
2404,38458,0
2340,38457,0
2200,38439,0
2090,38448,0
1957,38471,0
1922,38470,0
1824,38457,0
1748,38456,0
1712,38451,0
1700,38488,0
1730,38475,0
1794,38477,0
1890,38479,0
2004,38470,0
2138,38456,0
2256,38444,0
2353,38445,0
2458,38441,0
2474,38463,0
2520,38439,0
2466,38437,0
2428,38432,0
2298,38422,0
2204,38451,0
2068,38453,0
1962,38464,0
1782,38452,0
1700,38458,0
1650,38435,0
1654,38424,0
1714,38423,0
1797,38412,0
1892,38398,0
1998,38410,0
2092,38413,0
2224,38398,0
2328,38383,0
2468,38409,0
2518,38397,0
2514,38379,0
2488,38362,0
2410,38355,0
2320,38363,0
2200,38384,0
2073,38378,0
1952,38372,0
1856,38368,0
1770,38343,0
1716,38333,0
1712,38325,0
1666,38321,0
1785,38313,0
1828,38318,0
1977,38317,0
2052,38295,0
2216,38295,0
2316,38266,0
2392,38263,0
2388,38272,0
2390,38296,0
2354,38300,0
2272,38289,0
2202,38301,0
2069,38283,0
1936,38268,0
1816,38253,0
1644,38257,0
1564,38248,0
1508,38244,0
1606,38256,0
1612,38247,0
1672,38241,0
1756,38238,0
1864,38235,0
2000,38229,0
2116,38230,0
2224,38220,0
2296,38212,0
2348,38203,0
2356,38204,0
2312,38222,0
2248,38240,0
2112,38230,0
2028,38230,0
1858,38219,0
1776,38203,0
1618,38200,0
1590,38194,0
1536,38198,0
1535,38199,0
1464,38197,0
1524,38195,0
1624,38181,0
1742,38187,0
1922,38178,0
2044,38181,0
2160,38212,0
2241,38216,0
2256,38205,0
2252,38205,0
2216,38195,0
2114,38198,0
1994,38192,0
1872,38173,0
1752,38181,0
1650,38177,0
1588,38173,0
1550,38172,0
1542,38166,0
1584,38154,0
1644,38175,0
1720,38203,0
1844,38198,0
1920,38198,0
2088,38208,0
2156,38173,0
2264,38181,0
2288,38171,0
2320,38173,0
2264,38181,0
2144,38181,0
2029,38182,0
1912,38174,0
1776,38164,0
1649,38153,0
1606,38179,0
1533,38192,0
1490,38194,0
1491,38194,0
1464,38206,0
1540,38182,0
1640,38168,0
1852,38195,0
1974,38193,0
2096,38191,0
2200,38196,0
2273,38180,0
2314,38185,0
2448,38176,0
2282,38174,0
2208,38177,0
2104,38190,0
1988,38182,0
1852,38178,0
1736,38180,0
1584,38185,0
1564,38180,0
1476,38172,0
1520,38161,0
1493,38167,0
1626,38191,0
1698,38214,0
1844,38218,0
1889,38213,0
2022,38224,0
2140,38210,0
2224,38197,0
2320,38196,0
2306,38193,0
2272,38198,0
2189,38198,0
2036,38198,0
1912,38195,0
1772,38205,0
1749,38218,0
1646,38221,0
1573,38195,0
1546,38203,0
1546,38190,0
1586,38179,0
1648,38213,0
1753,38227,0
1860,38235,0
1994,38228,0
2128,38238,0
2204,38213,0
2300,38204,0
2314,38207,0
2352,38203,0
2280,38202,0
2228,38212,0
2088,38211,0
1996,38212,0
1860,38204,0
1760,38204,0
1568,38203,0
1492,38223,0
1456,38231,0
1456,38235,0
1536,38236,0
1624,38218,0
1729,38207,0
1860,38215,0
1929,38216,0
2056,38213,0
2164,38215,0
2308,38210,0
2344,38225,0
2344,38231,0
2308,38225,0
2224,38232,0
2124,38215,0
1986,38221,0
1866,38222,0
1748,38214,0
1652,38221,0
1584,38222,0
1528,38210,0
1556,38197,0
1536,38217,0
1672,38241,0
1712,38241,0
1884,38240,0
1968,38241,0
2137,38226,0
2228,38219,0
2316,38227,0
2304,38218,0
2304,38218,0
2260,38231,0
2180,38238,0
2104,38229,0
1984,38209,0
1852,38214,0
1737,38232,0
1576,38253,0
1492,38254,0
1472,38258,0
1572,38233,0
1608,38231,0
1696,38228,0
1781,38240,0
1896,38246,0
2026,38245,0
2138,38229,0
2242,38229,0
2320,38236,0
2356,38242,0
2352,38238,0
2301,38242,0
2240,38233,0
2080,38230,0
2000,38222,0
1828,38227,0
1756,38257,0
1604,38255,0
1592,38262,0
1528,38262,0
1556,38271,0
1500,38254,0
1574,38248,0
1668,38247,0
1792,38240,0
1974,38257,0
2083,38255,0
2189,38243,0
2270,38255,0
2276,38226,0
2284,38243,0
2240,38257,0
2216,38261,0
2124,38255,0
1992,38266,0
1868,38259,0
1768,38271,0
1680,38264,0
1600,38264,0
1566,38249,0
1576,38252,0
1616,38240,0
1692,38245,0
1772,38256,0
1912,38278,0
1992,38280,0
2156,38286,0
2216,38283,0
2320,38252,0
2308,38261,0
2352,38254,0
2296,38257,0
2220,38263,0
2033,38257,0
1900,38265,0
1769,38250,0
1651,38244,0
1604,38239,0
1547,38263,0
1516,38280,0
1518,38277,0
1512,38283,0
1586,38277,0
1680,38256,0
1898,38261,0
2020,38249,0
2136,38242,0
2282,38255,0
2320,38234,0
2352,38230,0
2340,38262,0
2300,38278,0
2210,38275,0
2112,38268,0
1984,38271,0
1848,38268,0
1752,38240,0
1608,38242,0
1594,38238,0
1522,38246,0
1584,38254,0
1572,38252,0
1690,38252,0
1784,38252,0
1916,38242,0
1960,38236,0
2076,38226,0
2181,38246,0
2260,38255,0
2324,38274,0
2314,38263,0
2258,38276,0
2173,38265,0
2024,38258,0
1890,38238,0
1760,38241,0
1740,38240,0
1652,38258,0
1588,38251,0
1552,38229,0
1564,38271,0
1613,38252,0
1684,38241,0
1791,38236,0
1920,38233,0
2036,38239,0
2160,38241,0
2259,38235,0
2344,38236,0
2344,38231,0
2369,38213,0
2280,38235,0
2240,38252,0
2072,38253,0
1986,38256,0
1850,38250,0
1760,38232,0
1577,38228,0
1512,38223,0
1468,38219,0
1479,38218,0
1576,38214,0
1661,38219,0
1764,38224,0
1884,38211,0
1956,38209,0
2085,38199,0
2332,38216,0
2348,38213,0
2336,38223,0
2288,38207,0
2208,38202,0
2102,38204,0
1976,38213,0
1836,38207,0
1722,38215,0
1641,38211,0
1580,38212,0
1529,38213,0
1560,38201,0
1546,38197,0
1692,38208,0
1748,38235,0
1920,38234,0
2004,38231,0
2168,38235,0
2252,38223,0
2272,38206,0
2314,38207,0
2309,38208,0
2248,38214,0
2148,38210,0
2082,38215,0
1952,38205,0
1817,38210,0
1707,38206,0
1552,38191,0
1475,38185,0
1454,38210,0
1572,38237,0
1616,38212,0
1696,38222,0
1804,38219,0
1928,38217,0
2036,38236,0
2168,38226,0
2260,38209,0
2336,38218,0
2372,38213,0
2356,38216,0
2290,38223,0
2212,38227,0
2056,38216,0
1968,38225,0
1796,38208,0
1736,38215,0
1586,38210,0
1572,38212,0
1535,38248,0
1576,38243,0
1508,38250,0
1592,38260,0
1708,38245,0
1820,38224,0
2008,38221,0
2136,38226,0
2232,38227,0
2312,38241,0
2308,38235,0
2290,38239,0
2224,38225,0
2208,38237,0
2100,38229,0
1972,38230,0
1874,38246,0
1740,38252,0
1648,38235,0
1585,38241,0
1557,38233,0
1584,38240,0
1624,38249,0
1712,38244,0
1795,38243,0
1920,38242,0
2012,38232,0
2168,38229,0
2228,38233,0
2328,38238,0
2320,38254,0
2348,38271,0
2268,38277,0
2208,38287,0
2009,38284,0
1874,38275,0
1745,38249,0
1622,38245,0
1592,38258,0
1528,38266,0
1501,38265,0
1541,38258,0
1525,38277,0
1592,38253,0
1704,38247,0
1928,38271,0
2060,38252,0
2192,38288,0
2290,38264,0
2386,38286,0
2424,38260,0
2392,38276,0
2354,38273,0
2288,38277,0
2170,38264,0
2056,38262,0
1924,38268,0
1832,38288,0
1696,38294,0
1692,38304,0
1616,38321,0
1684,38316,0
1668,38304,0
1808,38291,0
1898,38286,0
2024,38291,0
2080,38294,0
2194,38288,0
2288,38306,0
2354,38293,0
2404,38286,0
2384,38289,0
2324,38288,0
2229,38314,0
2064,38333,0
1934,38328,0
1808,38325,0
1784,38278,0
1696,38306,0
1634,38337,0
1614,38309,0
1632,38284,0
1688,38305,0
1760,38297,0
1862,38308,0
1964,38341,0
2108,38330,0
2192,38340,0
2269,38340,0
2336,38349,0
2336,38328,0
2352,38320,0
2248,38321,0
2186,38327,0
2040,38327,0
1956,38341,0
1820,38328,0
1724,38326,0
1546,38324,0
1484,38318,0
1464,38314,0
1486,38351,0
1600,38351,0
1685,38363,0
1789,38362,0
1920,38373,0
2008,38350,0
2156,38343,0
2216,38337,0
2340,38359,0
2364,38351,0
2348,38356,0
2288,38345,0
2200,38363,0
2096,38354,0
1968,38356,0
1840,38348,0
1720,38351,0
1650,38353,0
1584,38353,0
1566,38348,0
1577,38338,0
1564,38341,0
1698,38363,0
1768,38369,0
1936,38380,0
2016,38388,0
2176,38382,0
2256,38386,0
2324,38364,0
2304,38357,0
2268,38365,0
2208,38357,0
2112,38367,0
2034,38368,0
1901,38368,0
1770,38375,0
1653,38372,0
1480,38356,0
1425,38363,0
1376,38355,0
1481,38386,0
1518,38373,0
1572,38391,0
1650,38374,0
1748,38401,0
1848,38384,0
1932,38367,0
2002,38373,0
2068,38372,0
2064,38390,0
2028,38399,0
1951,38411,0
1860,38413,0
1690,38413,0
1628,38427,0
1452,38396,0
1434,38400,0
1300,38412,0
1362,38397,0
1376,38406,0
1484,38406,0
1496,38410,0
1676,38410,0
1888,38405,0
2140,38391,0
2456,38402,0
2692,38418,0
2937,38429,0
3164,38444,0
3336,38444,0
3460,38451,0
3504,38439,0
3488,38430,0
3426,38424,0
3312,38440,0
3184,38408,0
3040,38440,0
2904,38444,0
2814,38438,0
2724,38433,0
2680,38438,0
2700,38439,0
2752,38435,0
2840,38442,0
2956,38446,0
3080,38447,0
3216,38438,0
3304,38433,0
3392,38433,0
3408,38453,0
3400,38478,0
3328,38474,0
3224,38483,0
3056,38491,0
2896,38488,0
2737,38481,0
2552,38466,0
2432,38463,0
2308,38457,0
2226,38463,0
2178,38460,0
2112,38473,0
2128,38478,0
2153,38469,0
2272,38493,0
2332,38489,0
2384,38498,0
2432,38483,0
2428,38473,0
2412,38474,0
2368,38475,0
2276,38481,0
2160,38488,0
2020,38485,0
1888,38467,0
1750,38465,0
1634,38477,0
1485,38500,0
1490,38502,0
1424,38515,0
1492,38519,0
1492,38525,0
1645,38520,0
1728,38512,0
1880,38498,0
1908,38509,0
2036,38504,0
2128,38501,0
2184,38510,0
2240,38517,0
2197,38503,0
2121,38506,0
2016,38504,0
1840,38500,0
1692,38517,0
1549,38554,0
1462,38531,0
1400,38524,0
1400,38543,0
1408,38519,0
1466,38547,0
1556,38538,0
1680,38518,0
1808,38530,0
1948,38538,0
2056,38528,0
2142,38537,0
2200,38543,0
2177,38527,0
2194,38526,0
2088,38514,0
2018,38517,0
1860,38519,0
1765,38544,0
1618,38550,0
1428,38556,0
1340,38568,0
1296,38563,0
1277,38569,0
1305,38551,0
1417,38536,0
1531,38540,0
1648,38538,0
1780,38541,0
1864,38548,0
1984,38551,0
2048,38554,0
2200,38554,0
2214,38563,0
2185,38579,0
2122,38543,0
2016,38563,0
1892,38544,0
1772,38537,0
1642,38547,0
1520,38557,0
1448,38576,0
1394,38590,0
1372,38595,0
1418,38593,0
1416,38585,0
1584,38573,0
1648,38562,0
1824,38568,0
1920,38563,0
2072,38565,0
2154,38566,0
2208,38563,0
2164,38576,0
2134,38554,0
2058,38553,0
1956,38572,0
1884,38584,0
1736,38594,0
1616,38597,0
1513,38594,0
1360,38603,0
1312,38585,0
1300,38573,0
1436,38582,0
1509,38575,0
1600,38569,0
1712,38582,0
1845,38597,0
1978,38608,0
2076,38584,0
2168,38588,0
2228,38572,0
2248,38587,0
2212,38586,0
2139,38586,0
2040,38591,0
1888,38591,0
1792,38582,0
1612,38586,0
1560,38578,0
1414,38570,0
1434,38581,0
1416,38611,0
1472,38609,0
1424,38611,0
1526,38619,0
1653,38610,0
1794,38597,0
1980,38585,0
2097,38590,0
2186,38594,0
2248,38587,0
2216,38584,0
2177,38586,0
2106,38592,0
2072,38593,0
1952,38601,0
1820,38617,0
1698,38603,0
1592,38617,0
1514,38596,0
1474,38593,0
1472,38580,0
1513,38572,0
1572,38594,0
1672,38607,0
1773,38614,0
1920,38617,0
1994,38639,0
2152,38626,0
2208,38613,0
2296,38604,0
2272,38603,0
2288,38613,0
2200,38600,0
2120,38598,0
1914,38611,0
1780,38601,0
1650,38602,0
1552,38601,0
1536,38587,0
1491,38595,0
1490,38596,0
1529,38620,0
1536,38624,0
1640,38636,0
1766,38623,0
1980,38625,0
2112,38620,0
2232,38593,0
2312,38600,0
2372,38627,0
2408,38638,0
2362,38617,0
2280,38603,0
2184,38610,0
2064,38607,0
1924,38602,0
1801,38601,0
1722,38603,0
1584,38610,0
1604,38600,0
1546,38604,0
1672,38601,0
1656,38590,0
1812,38581,0
1928,38582,0
2064,38600,0
2122,38605,0
2236,38618,0
2336,38619,0
2386,38628,0
2440,38606,0
2400,38596,0
2324,38597,0
2225,38584,0
2056,38576,0
1924,38579,0
1802,38583,0
1812,38599,0
1720,38573,0
1681,38571,0
1680,38570,0
1712,38581,0
1780,38565,0
1904,38557,0
1992,38567,0
2128,38556,0
2280,38559,0
2368,38556,0
2427,38547,0
2492,38531,0
2474,38521,0
2488,38513,0
2372,38514,0
2316,38536,0
2164,38528,0
2072,38533,0
1952,38519,0
1860,38522,0
1696,38502,0
1648,38480,0
1641,38476,0
1664,38465,0
1784,38458,0
1868,38456,0
1988,38448,0
2100,38438,0
2176,38435,0
2290,38407,0
2358,38393,0
2464,38412,0
2464,38407,0
2420,38373,0
2344,38385,0
2240,38404,0
2126,38395,0
1988,38391,0
1858,38374,0
1770,38375,0
1720,38361,0
1654,38338,0
1623,38341,0
1666,38326,0
1696,38324,0
1824,38319,0
1898,38311,0
2064,38308,0
2130,38310,0
2280,38293,0
2336,38295,0
2392,38276,0
2336,38277,0
2284,38266,0
2195,38290,0
2080,38296,0
2000,38290,0
1861,38300,0
1742,38285,0
1629,38278,0
1498,38265,0
1475,38253,0
1456,38253,0
1605,38276,0
1644,38267,0
1762,38255,0
1864,38253,0
1984,38270,0
2112,38270,0
2216,38241,0
2288,38235,0
2328,38239,0
2336,38237,0
2292,38235,0
2196,38234,0
2112,38233,0
1936,38229,0
1864,38230,0
1696,38230,0
1640,38221,0
1520,38203,0
1532,38195,0
1528,38209,0
1580,38223,0
1544,38236,0
1652,38238,0
1779,38236,0
1910,38243,0
2080,38213,0
2178,38204,0
2260,38211,0
2296,38208,0
2260,38202,0
2220,38205,0
2136,38204,0
2098,38205,0
1972,38195,0
1840,38222,0
1722,38197,0
1616,38188,0
1564,38181,0
1516,38197,0
1520,38212,0
1556,38214,0
1642,38218,0
1730,38221,0
1822,38224,0
1972,38194,0
2052,38198,0
2204,38196,0
2256,38185,0
2336,38187,0
2288,38189,0
2290,38192,0
2216,38191,0
2098,38181,0
1900,38186,0
1776,38173,0
1648,38170,0
1548,38184,0
1529,38202,0
1504,38207,0
1504,38216,0
1541,38212,0
1554,38203,0
1672,38176,0
2000,38197,0
2133,38175,0
2228,38187,0
2304,38199,0
2360,38192,0
2341,38172,0
2305,38171,0
2236,38178,0
2116,38187,0
1988,38201,0
1872,38209,0
1733,38218,0
1666,38210,0
1512,38206,0
1542,38179,0
1488,38193,0
1584,38179,0
1592,38188,0
1756,38180,0
1856,38187,0
1922,38191,0
2058,38183,0
2176,38185,0
2252,38177,0
2304,38179,0
2332,38170,0
2280,38174,0
2204,38209,0
2092,38210,0
1920,38216,0
1784,38207,0
1674,38199,0
1660,38197,0
1596,38183,0
1552,38216,0
1568,38189,0
1620,38199,0
1688,38196,0
1790,38197,0
1905,38201,0
2040,38187,0
2160,38198,0
2256,38198,0
2320,38193,0
2368,38197,0
2328,38193,0
2314,38204,0
2192,38188,0
2116,38175,0
1948,38182,0
1864,38202,0
1740,38213,0
1664,38217,0
1500,38226,0
1478,38230,0
1478,38209,0
1528,38188,0
1618,38208,0
1773,38211,0
1898,38201,0
2024,38209,0
2104,38206,0
2216,38215,0
2304,38208,0
2388,38221,0
2384,38221,0
2340,38220,0
2256,38225,0
2156,38218,0
2032,38212,0
1896,38217,0
1784,38215,0
1694,38205,0
1626,38212,0
1594,38203,0
1563,38206,0
1640,38198,0
1672,38227,0
1824,38247,0
1890,38244,0
2072,38242,0
2156,38247,0
2292,38247,0
2360,38222,0
2386,38222,0
2344,38227,0
2298,38222,0
2213,38225,0
2097,38238,0
2017,38227,0
1889,38223,0
1772,38223,0
1677,38216,0
1560,38221,0
1515,38210,0
1524,38211,0
1668,38245,0
1744,38247,0
1848,38233,0
1961,38235,0
2104,38218,0
2196,38236,0
2296,38230,0
2380,38215,0
2404,38217,0
2396,38220,0
2344,38239,0
2281,38257,0
2160,38261,0
1992,38270,0
1914,38262,0
1752,38258,0
1708,38245,0
1586,38218,0
1620,38233,0
1596,38237,0
1660,38233,0
1640,38236,0
1752,38233,0
1877,38235,0
2006,38228,0
2168,38234,0
2267,38233,0
2342,38217,0
2372,38212,0
2344,38224,0
2292,38239,0
2196,38260,0
2153,38239,0
2029,38244,0
1904,38223,0
1800,38247,0
1712,38248,0
1648,38261,0
1624,38250,0
1634,38242,0
1688,38259,0
1756,38225,0
1852,38222,0
1956,38224,0
2096,38220,0
2176,38219,0
2312,38212,0
2344,38221,0
2416,38221,0
2360,38226,0
2344,38210,0
2242,38204,0
2132,38205,0
1940,38213,0
1802,38231,0
1692,38238,0
1600,38240,0
1581,38234,0
1560,38237,0
1570,38226,0
1624,38210,0
1648,38214,0
1760,38216,0
1894,38206,0
2098,38216,0
2220,38207,0
2322,38211,0
2396,38204,0
2428,38176,0
2416,38199,0
2360,38199,0
2288,38209,0
2168,38199,0
2032,38208,0
1909,38206,0
1776,38197,0
1706,38185,0
1577,38184,0
1606,38189,0
1562,38206,0
1657,38221,0
1684,38228,0
1844,38221,0
1944,38221,0
2096,38218,0
2144,38186,0
2256,38184,0
2316,38186,0
2372,38191,0
2464,38193,0
2333,38206,0
2240,38195,0
2137,38198,0
1968,38189,0
1840,38177,0
1734,38184,0
1732,38181,0
1665,38171,0
1640,38179,0
1644,38205,0
1692,38189,0
1770,38181,0
1860,38180,0
1988,38175,0
2104,38180,0
2228,38160,0
2324,38164,0
2383,38167,0
2416,38172,0
2368,38199,0
2344,38189,0
2217,38188,0
2144,38185,0
1984,38192,0
1900,38166,0
1768,38173,0
1700,38166,0
1548,38176,0
1513,38168,0
1541,38169,0
1581,38172,0
1728,38162,0
1840,38161,0
1964,38167,0
2097,38168,0
2176,38144,0
2278,38139,0
2352,38151,0
2428,38174,0
2416,38157,0
2368,38173,0
2280,38161,0
2160,38164,0
2053,38162,0
1936,38152,0
1812,38161,0
1716,38166,0
1664,38172,0
1648,38165,0
1625,38166,0
1690,38167,0
1713,38155,0
1868,38139,0
1952,38148,0
2116,38159,0
2184,38186,0
2316,38181,0
2376,38192,0
2404,38194,0
2336,38191,0
2280,38165,0
2192,38163,0
2060,38169,0
1974,38176,0
1857,38162,0
1750,38174,0
1666,38184,0
1544,38180,0
1526,38169,0
1692,38200,0
1772,38173,0
1880,38194,0
1990,38181,0
2128,38183,0
2238,38174,0
2348,38183,0
2400,38173,0
2428,38165,0
2408,38164,0
2352,38164,0
2236,38180,0
2140,38199,0
1960,38204,0
1892,38209,0
1732,38209,0
1688,38215,0
1576,38196,0
1612,38186,0
1624,38184,0
1592,38192,0
1680,38191,0
1792,38188,0
1924,38184,0
2059,38186,0
2226,38197,0
2328,38201,0
2384,38189,0
2426,38199,0
2376,38200,0
2312,38186,0
2208,38177,0
2152,38211,0
2026,38193,0
1908,38197,0
1788,38212,0
1692,38218,0
1649,38199,0
1612,38205,0
1632,38196,0
1676,38182,0
1762,38197,0
1876,38224,0
1991,38221,0
2120,38232,0
2192,38228,0
2320,38233,0
2352,38226,0
2410,38215,0
2400,38201,0
2348,38212,0
2228,38210,0
2130,38200,0
1932,38208,0
1804,38212,0
1688,38211,0
1596,38216,0
1596,38207,0
1585,38192,0
1602,38190,0
1672,38203,0
1688,38206,0
1800,38226,0
1944,38228,0
2122,38211,0
2252,38238,0
2336,38223,0
2402,38211,0
2416,38222,0
2388,38248,0
2328,38243,0
2262,38220,0
2120,38222,0
1986,38215,0
1900,38217,0
1746,38225,0
1680,38218,0
1568,38224,0
1604,38232,0
1576,38218,0
1680,38221,0
1712,38212,0
1876,38213,0
1996,38212,0
2132,38227,0
2184,38243,0
2277,38253,0
2340,38249,0
2368,38251,0
2388,38255,0
2316,38234,0
2220,38228,0
2100,38225,0
1924,38233,0
1797,38238,0
1685,38226,0
1700,38236,0
1640,38227,0
1620,38243,0
1636,38243,0
1688,38255,0
1786,38243,0
1888,38242,0
2024,38253,0
2140,38241,0
2256,38247,0
2348,38238,0
2411,38248,0
2448,38247,0
2400,38245,0
2384,38250,0
2272,38252,0
2196,38239,0
2040,38238,0
1964,38259,0
1858,38265,0
1800,38283,0
1641,38278,0
1629,38283,0
1648,38279,0
1704,38267,0
1844,38257,0
1948,38254,0
2076,38260,0
2208,38264,0
2276,38272,0
2364,38273,0
2440,38272,0
2504,38268,0
2478,38257,0
2424,38276,0
2313,38284,0
2204,38295,0
2076,38274,0
1952,38270,0
1852,38265,0
1764,38257,0
1712,38266,0
1688,38259,0
1698,38280,0
1756,38287,0
1784,38295,0
1940,38306,0
2024,38310,0
2180,38307,0
2244,38305,0
2372,38287,0
2408,38289,0
2424,38292,0
2340,38292,0
2290,38288,0
2176,38303,0
2056,38297,0
2056,38298,0
1843,38302,0
1734,38289,0
1654,38271,0
1544,38280,0
1528,38290,0
1552,38320,0
1708,38291,0
1796,38315,0
1912,38314,0
2030,38310,0
2160,38301,0
2268,38310,0
2352,38314,0
2408,38300,0
2440,38291,0
2410,38292,0
2344,38290,0
2239,38301,0
2128,38323,0
1952,38337,0
1874,38336,0
1728,38334,0
1684,38340,0
1548,38316,0
1620,38310,0
1628,38317,0
1688,38315,0
1697,38308,0
1816,38308,0
1952,38318,0
2080,38327,0
2298,38313,0
2314,38304,0
2368,38307,0
2386,38303,0
2320,38315,0
2252,38332,0
2160,38341,0
2098,38311,0
1972,38315,0
1860,38297,0
1750,38330,0
1664,38327,0
1602,38323,0
1584,38313,0
1594,38307,0
1632,38305,0
1696,38324,0
1785,38320,0
1859,38333,0
1974,38347,0
2008,38347,0
2113,38354,0
2120,38346,0
2144,38331,0
2060,38327,0
2024,38329,0
1909,38324,0
1776,38327,0
1554,38333,0
1418,38331,0
1318,38332,0
1250,38333,0
1272,38331,0
1322,38321,0
1389,38307,0
1512,38308,0
1608,38322,0
1813,38319,0
2028,38343,0
2348,38331,0
2552,38302,0
2756,38329,0
2968,38335,0
3136,38332,0
3264,38318,0
3348,38304,0
3380,38318,0
3384,38328,0
3327,38337,0
3266,38346,0
3193,38349,0
3104,38349,0
3004,38355,0
2948,38342,0
2904,38322,0
2916,38318,0
2928,38319,0
3004,38325,0
3082,38322,0
3176,38320,0
3264,38323,0
3348,38326,0
3394,38328,0
3424,38318,0
3416,38321,0
3349,38313,0
3252,38301,0
3126,38304,0
2960,38325,0
2816,38342,0
2672,38354,0
2580,38333,0
2489,38309,0
2408,38344,0
2364,38341,0
2360,38327,0
2368,38328,0
2400,38319,0
2456,38318,0
2508,38301,0
2552,38304,0
2576,38319,0
2575,38325,0
2536,38335,0
2440,38345,0
2368,38343,0
2208,38349,0
2100,38353,0
1904,38346,0
1816,38324,0
1684,38330,0
1602,38323,0
1444,38324,0
1426,38326,0
1452,38325,0
1516,38339,0
1744,38331,0
1772,38331,0
1892,38323,0
2025,38311,0
2084,38314,0
2176,38315,0
2280,38361,0
2248,38326,0
2208,38323,0
2096,38327,0
1936,38343,0
1800,38351,0
1672,38359,0
1564,38355,0
1485,38361,0
1434,38367,0
1425,38341,0
1424,38326,0
1509,38331,0
1544,38334,0
1717,38334,0
1810,38345,0
1972,38334,0
2042,38343,0
2172,38339,0
2216,38346,0
2164,38340,0
2140,38337,0
2068,38332,0
1960,38326,0
1832,38334,0
1745,38353,0
1616,38362,0
1512,38371,0
1431,38372,0
1317,38373,0
1305,38386,0
1340,38379,0
1500,38361,0
1612,38348,0
1736,38371,0
1872,38383,0
1988,38365,0
2088,38390,0
2184,38370,0
2228,38360,0
2240,38361,0
2208,38353,0
2132,38361,0
2013,38365,0
1892,38371,0
1721,38362,0
1636,38370,0
1468,38362,0
1456,38363,0
1352,38365,0
1412,38368,0
1412,38366,0
1508,38350,0
1528,38358,0
1649,38359,0
1792,38366,0
1933,38375,0
2098,38373,0
2196,38384,0
2234,38410,0
2244,38406,0
2152,38407,0
2085,38402,0
1965,38411,0
1906,38366,0
1772,38368,0
1660,38389,0
1549,38408,0
1496,38392,0
1432,38376,0
1424,38370,0
1458,38381,0
1528,38401,0
1626,38398,0
1764,38413,0
1875,38415,0
2008,38417,0
2082,38412,0
2224,38411,0
2224,38400,0
2268,38391,0
2196,38405,0
2160,38407,0
2026,38395,0
1912,38403,0
1696,38388,0
1572,38396,0
1472,38398,0
1389,38405,0
1424,38399,0
1403,38400,0
1462,38409,0
1532,38392,0
1572,38394,0
1702,38391,0
1845,38397,0
2044,38429,0
2160,38414,0
2240,38429,0
2288,38416,0
2288,38415,0
2236,38414,0
2174,38413,0
2068,38402,0
1944,38409,0
1808,38401,0
1688,38398,0
1576,38406,0
1512,38427,0
1408,38433,0
1478,38451,0
1466,38438,0
1586,38444,0
1632,38440,0
1812,38444,0
1932,38433,0
2060,38419,0
2098,38418,0
2186,38419,0
2250,38417,0
2248,38426,0
2240,38426,0
2164,38414,0
2057,38432,0
1936,38424,0
1744,38421,0
1632,38414,0
1536,38395,0
1562,38428,0
1521,38437,0
1517,38449,0
1576,38436,0
1637,38433,0
1745,38424,0
1868,38414,0
2000,38418,0
2128,38427,0
2240,38428,0
2320,38425,0
2374,38427,0
2386,38430,0
2312,38417,0
2272,38425,0
2144,38414,0
2056,38402,0
1888,38400,0
1813,38407,0
1688,38404,0
1644,38427,0
1506,38437,0
1513,38433,0
1548,38435,0
1635,38426,0
1792,38433,0
1888,38415,0
2043,38415,0
2169,38397,0
2240,38406,0
2330,38394,0
2396,38404,0
2452,38416,0
2400,38399,0
2340,38409,0
2238,38406,0
2112,38410,0
1998,38414,0
1888,38396,0
1794,38370,0
1736,38381,0
1700,38374,0
1704,38371,0
1727,38365,0
1816,38365,0
1860,38367,0
2032,38362,0
2116,38357,0
2288,38353,0
2360,38338,0
2452,38322,0
2492,38314,0
2500,38308,0
2412,38329,0
2324,38335,0
2218,38328,0
2112,38326,0
2012,38328,0
1904,38326,0
1805,38317,0
1733,38303,0
1640,38272,0
1637,38274,0
1684,38275,0
1848,38276,0
1941,38277,0
2047,38248,0
2204,38236,0
2288,38255,0
2386,38238,0
2450,38227,0
2488,38236,0
2480,38237,0
2440,38213,0
2360,38210,0
2238,38212,0
2116,38214,0
1952,38206,0
1872,38197,0
1721,38176,0
1698,38176,0
1602,38175,0
1664,38177,0
1672,38187,0
1760,38181,0
1762,38191,0
1874,38200,0
1994,38203,0
2112,38190,0
2360,38197,0
2328,38194,0
2363,38170,0
2356,38162,0
2272,38156,0
2188,38158,0
2072,38150,0
2008,38164,0
1884,38167,0
1764,38173,0
1669,38144,0
1596,38158,0
1598,38141,0
1568,38137,0
1594,38133,0
1656,38134,0
1756,38131,0
1864,38141,0
1980,38135,0
2120,38130,0
2176,38126,0
2280,38132,0
2282,38123,0
2312,38117,0
2224,38108,0
2172,38107,0
2056,38113,0
1928,38120,0
1720,38122,0
1600,38124,0
1493,38133,0
1416,38137,0
1436,38135,0
1450,38137,0
1499,38142,0
1584,38150,0
1620,38139,0
1752,38125,0
1888,38113,0
2088,38106,0
2188,38115,0
2264,38114,0
2300,38125,0
2296,38135,0
2252,38113,0
2168,38112,0
2052,38104,0
1924,38113,0
1801,38105,0
1684,38110,0
1573,38099,0
1540,38122,0
1424,38110,0
1512,38119,0
1482,38107,0
1616,38112,0
1656,38109,0
1840,38102,0
1960,38091,0
2096,38099,0
2132,38094,0
2220,38116,0
2256,38136,0
2240,38138,0
2232,38133,0
2140,38136,0
2017,38144,0
1889,38120,0
1696,38115,0
1576,38117,0
1520,38135,0
1488,38101,0
1496,38115,0
1557,38128,0
1632,38126,0
1740,38113,0
1864,38108,0
2000,38121,0
2120,38116,0
2228,38120,0
2328,38123,0
2325,38120,0
2324,38121,0
2224,38113,0
2170,38118,0
2024,38118,0
1936,38116,0
1756,38096,0
1696,38098,0
1580,38116,0
1412,38117,0
1393,38136,0
1402,38145,0
1462,38144,0
1538,38150,0
1702,38153,0
1844,38154,0
1958,38133,0
2086,38128,0
2148,38117,0
2226,38131,0
2260,38127,0
2320,38135,0
2260,38140,0
2180,38130,0
2064,38133,0
1944,38142,0
1817,38133,0
1698,38124,0
1608,38124,0
1544,38126,0
1512,38120,0
1520,38133,0
1533,38121,0
1636,38131,0
1692,38127,0
1872,38130,0
1956,38127,0
2132,38125,0
2204,38131,0
2308,38131,0
2336,38122,0
2332,38109,0
2224,38105,0
2136,38114,0
2009,38102,0
1876,38128,0
1794,38127,0
1689,38154,0
1596,38151,0
1532,38152,0
1440,38132,0
1452,38143,0
1494,38145,0
1682,38114,0
1784,38106,0
1912,38116,0
2034,38129,0
2156,38131,0
2248,38147,0
2320,38131,0
2348,38119,0
2338,38114,0
2288,38120,0
2208,38109,0
2076,38116,0
1958,38115,0
1770,38106,0
1716,38126,0
1578,38126,0
1588,38107,0
1468,38118,0
1552,38108,0
1584,38098,0
1684,38092,0
1704,38090,0
1828,38092,0
1972,38110,0
2104,38135,0
2240,38136,0
2316,38124,0
2352,38139,0
2341,38134,0
2248,38120,0
2160,38117,0
2048,38107,0
1992,38120,0
1848,38136,0
1756,38114,0
1672,38119,0
1602,38118,0
1578,38124,0
1590,38121,0
1642,38127,0
1732,38120,0
1836,38121,0
1956,38124,0
2054,38127,0
2196,38126,0
2256,38127,0
2360,38118,0
2352,38122,0
2370,38115,0
2280,38120,0
2216,38109,0
2098,38122,0
1980,38137,0
1784,38139,0
1664,38150,0
1572,38154,0
1502,38144,0
1489,38158,0
1562,38164,0
1616,38155,0
1700,38134,0
1760,38133,0
1889,38138,0
2020,38138,0
2208,38162,0
2308,38143,0
2380,38115,0
2388,38144,0
2384,38151,0
2328,38143,0
2236,38134,0
2120,38143,0
1988,38148,0
1860,38141,0
1750,38153,0
1627,38144,0
1590,38143,0
1508,38147,0
1588,38150,0
1584,38151,0
1712,38129,0
1768,38132,0
1952,38142,0
2064,38136,0
2200,38175,0
2224,38169,0
2312,38178,0
2345,38176,0
2338,38175,0
2312,38183,0
2229,38183,0
2120,38155,0
1989,38157,0
1808,38156,0
1696,38154,0
1600,38148,0
1632,38144,0
1616,38163,0
1633,38176,0
1674,38159,0
1748,38187,0
1844,38158,0
1968,38155,0
2090,38148,0
2202,38155,0
2300,38160,0
2360,38163,0
2387,38152,0
2374,38153,0
2280,38143,0
2232,38143,0
2072,38134,0
2012,38140,0
1812,38147,0
1748,38168,0
1640,38171,0
1604,38175,0
1472,38174,0
1492,38178,0
1552,38173,0
1632,38174,0
1788,38150,0
1922,38149,0
2057,38150,0
2182,38142,0
2240,38151,0
2312,38145,0
2348,38146,0
2384,38154,0
2336,38147,0
2244,38156,0
2124,38157,0
2000,38158,0
1880,38137,0
1776,38140,0
1678,38154,0
1624,38150,0
1608,38146,0
1640,38148,0
1656,38149,0
1756,38138,0
1812,38152,0
2004,38137,0
2080,38135,0
2232,38129,0
2288,38127,0
2380,38117,0
2404,38125,0
2394,38124,0
2272,38128,0
2180,38134,0
2053,38152,0
1928,38157,0
1840,38163,0
1734,38159,0
1641,38159,0
1588,38162,0
1492,38148,0
1514,38140,0
1574,38128,0
1752,38123,0
1860,38125,0
1988,38132,0
2112,38109,0
2232,38125,0
2356,38137,0
2392,38154,0
2416,38157,0
2424,38157,0
2336,38155,0
2250,38158,0
2132,38157,0
2008,38158,0
1856,38143,0
1788,38143,0
1644,38130,0
1644,38148,0
1560,38144,0
1634,38131,0
1684,38146,0
1788,38150,0
1808,38148,0
1941,38155,0
2072,38153,0
2202,38147,0
2328,38149,0
2388,38136,0
2410,38129,0
2392,38140,0
2288,38144,0
2192,38156,0
2016,38172,0
2248,38207,0
2320,38207,0
2378,38207,0
2384,38207,0
2368,38207,0
2309,38207,0
2244,38207,0
2098,38207,0
1952,38219,0
1824,38219,0
1728,38219,0
1648,38219,0
1584,38219,0
1574,38219,0
1600,38219,0
1660,38217,0
1748,38217,0
1892,38217,0
2006,38217,0
2154,38217,0
2253,38217,0
2348,38217,0
2393,38228,0
2424,38213,0
2394,38213,0
2368,38213,0
2268,38213,0
2144,38213,0
2020,38213,0
1844,38237,0
1737,38200,0
1660,38200,0
1692,38239,0
1672,38243,0
1704,38242,0
1768,38241,0
1856,38242,0
1996,38235,0
2090,38236,0
2224,38221,0
2332,38224,0
2424,38225,0
2472,38225,0
2482,38239,0
2468,38239,0
2368,38249,0
2303,38262,0
2144,38268,0
2052,38275,0
1888,38273,0
1826,38270,0
1740,38272,0
1712,38280,0
1600,38266,0
1606,38243,0
1689,38244,0
1784,38253,0
1962,38253,0
2088,38253,0
2516,38258,0
2428,38270,0
2328,38266,0
2209,38250,0
2081,38278,0
1960,38279,0
1856,38281,0
1786,38270,0
1728,38257,0
1706,38250,0
1744,38247,0
1799,38257,0
1892,38254,0
1956,38254,0
2120,38258,0
2224,38253,0
2368,38258,0
2424,38253,0
2472,38256,0
2488,38260,0
2469,38263,0
2404,38258,0
2296,38247,0
2186,38251,0
2056,38245,0
1973,38252,0
1858,38254,0
1783,38274,0
1739,38284,0
1664,38288,0
1693,38280,0
1752,38284,0
1952,38291,0
2032,38257,0
2168,38292,0
2294,38266,0
2400,38283,0
2488,38299,0
2536,38283,0
2556,38276,0
2512,38264,0
2458,38269,0
2370,38266,0
2224,38268,0
2114,38280,0
1956,38273,0
1910,38277,0
1780,38282,0
1784,38279,0
1716,38282,0
1802,38268,0
1852,38277,0
1962,38264,0
1994,38258,0
2134,38260,0
2273,38266,0
2390,38275,0
2512,38288,0
2560,38302,0
2572,38306,0
2538,38310,0
2452,38306,0
2344,38310,0
2216,38312,0
2164,38287,0
2028,38299,0
1944,38286,0
1872,38283,0
1816,38290,0
1808,38277,0
1832,38278,0
1898,38268,0
1992,38267,0
2100,38282,0
2208,38294,0
2334,38307,0
2452,38316,0
2504,38317,0
2592,38314,0
2576,38316,0
2568,38312,0
2484,38310,0
2400,38322,0
2284,38325,0
2164,38300,0
1984,38289,0
1879,38310,0
1797,38302,0
1746,38295,0
1792,38298,0
1815,38305,0
1882,38308,0
1976,38308,0
2048,38308,0
2200,38308,0
2322,38306,0
2500,38304,0
2608,38330,0
2664,38316,0
2688,38312,0
2664,38310,0
2612,38326,0
2532,38315,0
2420,38310,0
2297,38314,0
2202,38308,0
2108,38308,0
2031,38316,0
1972,38321,0
1920,38314,0
1984,38309,0
2004,38318,0
2128,38319,0
2192,38324,0
2346,38313,0
2448,38322,0
2559,38313,0
2600,38309,0
2644,38311,0
2656,38303,0
2618,38297,0
2581,38315,0
2474,38318,0
2362,38332,0
2237,38341,0
2073,38344,0
1984,38351,0
1896,38352,0
1936,38318,0
1932,38311,0
1952,38324,0
2002,38337,0
2104,38328,0
2212,38318,0
2328,38312,0
2442,38315,0
2548,38315,0
2632,38306,0
2680,38297,0
2684,38300,0
2658,38308,0
2568,38311,0
2504,38319,0
2352,38332,0
2268,38330,0
2108,38344,0
2047,38336,0
1976,38337,0
1948,38348,0
1864,38340,0
1878,38335,0
1962,38314,0
2050,38307,0
2220,38316,0
2337,38312,0
2452,38314,0
2553,38310,0
2608,38319,0
2674,38310,0
2672,38309,0
2684,38310,0
2616,38328,0
2520,38311,0
2412,38337,0
2284,38355,0
2182,38320,0
2082,38306,0
2006,38311,0
1968,38307,0
1960,38313,0
1986,38309,0
2035,38311,0
2148,38312,0
2220,38315,0
2384,38312,0
2464,38310,0
2592,38312,0
2656,38307,0
2720,38303,0
2724,38292,0
2660,38299,0
2594,38293,0
2474,38297,0
2360,38287,0
2240,38295,0
2164,38293,0
2046,38313,0
1956,38330,0
1898,38325,0
1816,38327,0
1812,38330,0
1992,38305,0
2076,38314,0
2176,38321,0
2264,38309,0
2352,38323,0
2408,38337,0
2440,38324,0
2424,38319,0
2388,38312,0
2316,38306,0
2224,38307,0
2112,38322,0
2008,38308,0
1880,38307,0
1872,38304,0
1793,38310,0
1854,38312,0
1860,38314,0
2009,38306,0
2156,38306,0
2304,38303,0
2549,38311,0
2809,38300,0
3092,38297,0
3368,38305,0
3608,38290,0
3812,38294,0
3945,38295,0
3990,38307,0
4000,38323,0
3968,38321,0
3882,38328,0
3748,38305,0
3616,38321,0
3480,38318,0
3364,38322,0
3280,38329,0
3232,38308,0
3224,38318,0
3280,38308,0
3312,38307,0
3432,38290,0
3544,38294,0
3661,38306,0
3740,38300,0
3848,38303,0
3876,38311,0
3880,38312,0
3832,38326,0
3736,38339,0
3604,38327,0
3460,38335,0
3280,38343,0
3108,38329,0
2953,38333,0
2832,38322,0
2693,38313,0
2737,38315,0
2616,38304,0
2617,38311,0
2644,38320,0
2680,38314,0
2745,38312,0
2808,38310,0
2888,38327,0
2920,38320,0
2940,38291,0
2912,38311,0
2852,38329,0
2752,38340,0
2640,38336,0
2498,38329,0
2392,38325,0
2264,38313,0
2140,38317,0
2050,38318,0
2028,38322,0
1988,38327,0
2047,38323,0
2080,38321,0
2192,38333,0
2264,38326,0
2424,38325,0
2528,38327,0
2624,38325,0
2656,38319,0
2696,38325,0
2705,38324,0
2661,38304,0
2604,38315,0
2501,38323,0
2376,38344,0
2256,38343,0
2084,38358,0
2000,38358,0
1928,38347,0
1964,38330,0
1970,38340,0
2008,38368,0
2076,38347,0
2156,38355,0
2260,38328,0
2376,38336,0
2490,38333,0
2586,38339,0
2658,38357,0
2704,38370,0
2711,38360,0
2666,38378,0
2572,38372,0
2497,38380,0
2352,38373,0
2256,38389,0
2120,38357,0
2072,38352,0
1988,38348,0
1968,38357,0
1892,38365,0
1937,38362,0
1994,38350,0
2105,38365,0
2264,38358,0
2372,38371,0
2498,38353,0
2600,38365,0
2656,38361,0
2708,38362,0
2704,38355,0
2728,38368,0
2632,38364,0
2536,38377,0
2428,38368,0
2304,38375,0
2200,38358,0
2108,38358,0
2047,38365,0
2016,38359,0
2016,38363,0
2047,38360,0
2118,38355,0
2208,38360,0
2282,38360,0
2448,38369,0
2404,38366,0
2658,38346,0
2708,38351,0
2778,38348,0
2768,38347,0
2736,38341,0
2628,38337,0
2522,38363,0
2402,38366,0
2284,38388,0
2210,38392,0
2124,38395,0
2064,38387,0
2024,38389,0
1992,38387,0
2029,38363,0
2096,38372,0
2272,38361,0
2380,38363,0
2496,38367,0
2608,38395,0
2716,38359,0
2792,38392,0
2824,38377,0
2824,38369,0
2784,38362,0
2704,38366,0
2600,38361,0
2488,38369,0
2392,38359,0
2256,38361,0
2208,38379,0
2116,38360,0
2122,38374,0
2088,38373,0
2172,38366,0
2234,38368,0
2344,38354,0
2416,38350,0
2538,38364,0
2650,38361,0
2764,38380,0
2864,38398,0
2880,38402,0
2872,38400,0
2836,38405,0
2740,38407,0
2628,38405,0
2516,38391,0
2448,38412,0
2354,38380,0
2264,38394,0
2216,38400,0
2180,38413,0
2196,38412,0
2228,38419,0
2308,38403,0
2400,38397,0
2508,38390,0
2624,38386,0
2748,38394,0
2833,38391,0
2884,38405,0
2932,38402,0
2928,38395,0
2897,38400,0
2812,38397,0
2728,38406,0
2616,38387,0
2504,38389,0
2360,38382,0
2280,38391,0
2220,38380,0
2197,38387,0
2256,38388,0
2312,38398,0
2381,38422,0
2490,38412,0
2570,38424,0
2698,38432,0
2816,38430,0
2942,38413,0
3018,38431,0
3058,38416,0
3056,38419,0
3018,38405,0
2964,38386,0
2856,38382,0
2752,38386,0
2648,38407,0
2532,38400,0
2468,38427,0
2399,38428,0
2368,38425,0
2368,38425,0
2440,38429,0
2480,38429,0
2624,38421,0
2720,38422,0
2856,38432,0
2976,38397,0
3071,38393,0
3112,38393,0
3160,38392,0
3160,38382,0
3112,38384,0
3056,38390,0
2952,38383,0
2836,38384,0
2724,38384,0
2592,38386,0
2520,38368,0
2452,38368,0
2476,38364,0
2488,38334,0
2544,38360,0
2608,38375,0
2712,38368,0
2828,38371,0
2948,38341,0
3064,38334,0
3164,38316,0
3232,38320,0
3272,38298,0
3272,38302,0
3236,38309,0
3160,38289,0
3071,38286,0
2944,38280,0
2852,38272,0
2728,38262,0
2676,38255,0
2616,38243,0
2592,38239,0
2536,38213,0
2584,38215,0
2650,38204,0
2745,38194,0
2872,38201,0
2980,38206,0
3085,38213,0
3164,38218,0
3232,38203,0
3268,38197,0
3216,38080,0
3136,38171,0
3028,38187,0
2908,38166,0
2792,38182,0
2692,38150,0
2596,38150,0
2544,38142,0
2512,38143,0
2517,38133,0
2552,38131,0
2609,38118,0
2704,38130,0
2784,38118,0
2928,38125,0
3016,38115,0
3096,38109,0
3152,38106,0
3186,38101,0
3160,38088,0
3104,38090,0
3008,38095,0
2906,38080,0
2776,38082,0
2652,38084,0
2576,38093,0
2484,38088,0
2428,38100,0
2405,38107,0
2404,38102,0
2422,38105,0
2492,38108,0
2640,38080,0
2740,38070,0
2844,38069,0
2952,38069,0
3026,38084,0
3092,38061,0
3120,38055,0
3096,38066,0
3048,38086,0
2968,38088,0
2864,38083,0
2751,38081,0
2632,38073,0
2504,38085,0
2452,38093,0
2368,38069,0
2384,38058,0
2360,38056,0
2441,38055,0
2504,38053,0
2608,38045,0
2674,38061,0
2796,38047,0
2914,38051,0
3001,38046,0
3072,38050,0
3098,38041,0
3092,38047,0
3037,38052,0
2944,38044,0
2821,38045,0
2704,38040,0
2624,38035,0
2536,38044,0
2456,38039,0
2400,38048,0
2378,38062,0
2396,38065,0
2440,38072,0
2504,38041,0
2602,38045,0
2728,38048,0
2844,38044,0
2934,38045,0
3040,38050,0
3064,38049,0
3112,38056,0
3088,38054,0
3056,38048,0
2960,38046,0
2876,38061,0
2764,38058,0
2656,38048,0
2516,38050,0
2432,38055,0
2377,38049,0
2346,38043,0
2408,38046,0
2448,38051,0
2516,38052,0
2612,38048,0
2696,38063,0
2824,38073,0
2920,38072,0
3032,38075,0
3088,38086,0
3124,38082,0
3088,38077,0
3048,38089,0
2964,38078,0
2864,38075,0
2756,38080,0
2648,38075,0
2556,38074,0
2490,38074,0
2420,38075,0
2424,38068,0
2408,38065,0
2490,38054,0
2544,38070,0
2668,38075,0
2752,38094,0
2892,38097,0
2994,38096,0
3096,38100,0
3136,38107,0
3152,38109,0
3137,38115,0
3088,38112,0
3096,38096,0
2905,38082,0
2788,38082,0
2686,38088,0
2544,38094,0
2473,38087,0
2424,38088,0
2464,38073,0
2480,38089,0
2532,38102,0
2596,38099,0
2700,38073,0
2808,38124,0
2912,38122,0
3048,38098,0
3104,38094,0
3154,38098,0
3160,38092,0
3165,38092,0
3112,38086,0
3026,38089,0
2932,38088,0
2804,38097,0
2708,38102,0
2584,38096,0
2544,38101,0
2484,38096,0
2480,38094,0
2432,38082,0
2485,38082,0
2581,38082,0
2680,38065,0
2828,38087,0
2921,38099,0
3030,38110,0
3114,38119,0
3168,38116,0
3188,38120,0
3170,38124,0
3144,38120,0
3060,38111,0
2968,38112,0
2856,38107,0
2744,38073,0
2657,38109,0
2588,38119,0
2536,38126,0
2524,38118,0
2537,38119,0
2592,38117,0
2656,38114,0
2744,38101,0
2836,38092,0
2956,38097,0
3040,38106,0
3120,38100,0
3168,38099,0
3188,38104,0
3164,38097,0
3104,38101,0
2992,38099,0
2880,38102,0
2776,38112,0
2656,38102,0
2672,38106,0
2517,38095,0
2466,38099,0
2464,38099,0
2448,38088,0
2500,38083,0
2580,38091,0
2716,38111,0
2832,38121,0
2922,38111,0
3032,38118,0
3106,38130,0
3160,38118,0
3196,38115,0
3172,38110,0
3120,38097,0
3040,38114,0
2943,38096,0
2829,38109,0
2724,38106,0
2608,38098,0
2568,38095,0
2488,38101,0
2504,38104,0
2498,38098,0
2568,38104,0
2644,38108,0
2736,38117,0
2816,38129,0
2924,38139,0
3024,38152,0
3108,38145,0
3162,38138,0
3188,38145,0
3157,38142,0
3120,38127,0
3000,38119,0
2896,38113,0
2768,38117,0
2696,38138,0
2616,38128,0
2538,38112,0
2496,38130,0
2488,38128,0
2512,38131,0
2562,38123,0
2648,38123,0
2748,38118,0
2848,38122,0
2968,38116,0
3061,38114,0
3144,38124,0
3177,38124,0
3198,38119,0
3172,38124,0
3120,38114,0
3008,38109,0
2920,38104,0
2800,38107,0
2688,38099,0
2560,38108,0
2483,38114,0
2440,38133,0
2432,38144,0
2484,38151,0
2534,38136,0
2616,38138,0
2720,38140,0
2804,38145,0
2912,38141,0
3120,38092,0
3180,38123,0
3184,38127,0
3168,38125,0
3104,38113,0
3024,38118,0
2912,38118,0
2804,38116,0
2692,38118,0
2592,38114,0
2524,38116,0
2472,38106,0
2468,38111,0
2464,38109,0
2544,38105,0
2602,38106,0
2720,38106,0
2808,38102,0
2940,38084,0
3044,38089,0
3108,38091,0
3160,38078,0
3176,38085,0
3148,38100,0
3092,38103,0
3008,38115,0
2897,38106,0
2772,38114,0
2662,38122,0
2544,38122,0
2456,38118,0
2412,38118,0
2456,38065,0
2476,38091,0
2544,38084,0
2624,38080,0
2720,38102,0
2836,38078,0
2952,38081,0
3056,38072,0
3140,38073,0
3194,38069,0
3208,38064,0
3184,38065,0
3128,38064,0
3020,38064,0
2940,38062,0
2808,38066,0
2708,38065,0
2584,38060,0
2532,38062,0
2480,38064,0
2464,38069,0
2432,38090,0
2476,38087,0
2532,38101,0
2640,38086,0
2764,38091,0
2876,38093,0
2972,38088,0
3052,38087,0
3096,38079,0
3116,38064,0
3090,38073,0
3052,38065,0
2976,38057,0
2876,38082,0
2768,38059,0
2680,38081,0
2580,38095,0
2520,38094,0
2480,38080,0
2468,38067,0
2498,38057,0
2560,38074,0
2643,38064,0
2736,38063,0
2824,38078,0
2952,38072,0
3028,38065,0
3116,38061,0
3136,38069,0
3160,38075,0
3124,38060,0
3048,38067,0
2928,38080,0
2816,38078,0
2688,38068,0
2578,38067,0
2580,38076,0
2428,38062,0
2392,38057,0
2396,38066,0
2392,38085,0
2456,38085,0
2538,38098,0
2684,38084,0
2804,38096,0
2912,38088,0
3012,38105,0
3090,38089,0
3140,38093,0
3152,38087,0
3128,38091,0
3068,38080,0
2980,38083,0
2872,38082,0
2752,38085,0
2648,38075,0
2520,38088,0
2480,38070,0
2408,38077,0
2416,38094,0
2404,38091,0
2492,38108,0
2564,38118,0
2664,38126,0
2736,38119,0
2860,38123,0
2962,38121,0
3026,38133,0
3096,38119,0
3104,38102,0
3068,38103,0
3010,38103,0
2888,38109,0
2792,38108,0
2661,38122,0
2600,38130,0
2504,38147,0
2448,38120,0
2404,38121,0
2388,38121,0
2412,38129,0
2464,38113,0
2544,38121,0
2636,38127,0
2748,38128,0
2864,38123,0
2952,38124,0
3040,38143,0
3068,38130,0
3096,38133,0
3072,38129,0
3016,38136,0
2920,38143,0
2818,38135,0
2708,38132,0
2600,38132,0
2464,38130,0
2394,38135,0
2348,38129,0
2336,38136,0
2468,38133,0
2428,38148,0
2513,38162,0
2612,38178,0
2688,38179,0
2801,38175,0
2900,38181,0
2992,38150,0
3036,38172,0
3032,38164,0
3008,38179,0
2928,38164,0
2840,38169,0
2784,38168,0
2640,38173,0
2532,38170,0
2448,38176,0
2384,38163,0
2347,38175,0
2336,38175,0
2324,38173,0
2416,38179,0
2464,38181,0
2592,38167,0
2680,38160,0
2812,38153,0
2900,38161,0
2976,38173,0
2996,38159,0
3008,38178,0
2968,38171,0
2896,38190,0
2826,38181,0
2701,38187,0
2600,38193,0
2489,38189,0
2370,38208,0
2290,38216,0
2252,38222,0
2304,38205,0
2340,38196,0
2392,38181,0
2472,38214,0
2576,38231,0
2676,38208,0
2772,38209,0
2900,38203,0
2928,38209,0
2976,38211,0
2980,38214,0
2949,38214,0
2912,38225,0
2784,38218,0
2704,38212,0
2564,38223,0
2488,38228,0
2376,38224,0
2336,38215,0
2280,38211,0
2276,38216,0
2240,38218,0
2292,38206,0
2373,38224,0
2472,38243,0
2608,38253,0
2752,38254,0
2816,38259,0
2888,38266,0
2928,38264,0
2930,38262,0
2920,38272,0
2888,38255,0
2808,38259,0
2712,38259,0
2648,38262,0
2521,38279,0
2452,38241,0
2392,38243,0
2354,38248,0
2352,38243,0
2376,38232,0
2424,38253,0
2494,38243,0
2600,38245,0
2656,38241,0
2788,38248,0
2840,38263,0
2928,38276,0
2960,38271,0
2960,38279,0
2920,38288,0
2848,38287,0
2724,38305,0
2604,38304,0
2488,38297,0
2384,38311,0
2320,38306,0
2280,38303,0
2224,38284,0
2212,38278,0
2202,38277,0
2272,38280,0
2352,38283,0
2504,38289,0
2612,38280,0
2714,38295,0
2800,38281,0
2856,38280,0
2884,38285,0
2900,38282,0
2848,38274,0
2776,38283,0
2674,38289,0
2572,38287,0
2454,38276,0
2352,38288,0
2240,38293,0
2216,38298,0
2140,38302,0
2192,38287,0
2184,38283,0
2288,38289,0
2368,38284,0
2488,38289,0
2544,38291,0
2656,38287,0
2736,38281,0
2816,38283,0
2874,38279,0
2864,38277,0
2821,38282,0
2744,38272,0
2624,38276,0
2504,38291,0
2330,38290,0
2242,38302,0
2176,38311,0
2133,38298,0
2128,38298,0
2156,38313,0
2208,38308,0
2294,38311,0
2384,38317,0
2484,38318,0
2592,38329,0
2682,38321,0
2748,38324,0
2768,38304,0
2792,38290,0
2736,38288,0
2686,38294,0
2552,38291,0
2480,38293,0
2360,38290,0
2212,38288,0
2100,38284,0
2009,38297,0
1956,38297,0
1932,38293,0
1992,38294,0
2016,38294,0
2072,38296,0
2148,38291,0
2186,38290,0
2284,38292,0
2354,38287,0
2444,38290,0
2466,38319,0
2450,38296,0
2408,38310,0
2336,38284,0
2244,38320,0
2148,38300,0
2064,38288,0
1992,38289,0
1948,38289,0
1936,38292,0
1946,38288,0
2032,38294,0
2104,38294,0
2300,38294,0
2450,38291,0
2712,38292,0
2924,38303,0
3188,38292,0
3408,38285,0
3616,38300,0
3788,38288,0
3872,38294,0
3913,38284,0
3877,38298,0
3784,38285,0
3633,38278,0
3472,38258,0
3314,38277,0
3160,38269,0
3024,38280,0
2936,38280,0
2928,38312,0
2924,38298,0
2984,38301,0
3071,38299,0
3196,38302,0
3336,38287,0
3472,38288,0
3612,38293,0
3708,38288,0
3772,38291,0
3792,38296,0
3753,38303,0
3664,38303,0
3552,38298,0
3388,38290,0
3224,38287,0
3071,38282,0
2904,38273,0
2780,38279,0
2668,38278,0
2628,38298,0
2528,38301,0
2513,38311,0
2524,38316,0
2569,38320,0
2656,38314,0
2692,38315,0
2741,38319,0
2768,38325,0
2744,38328,0
2713,38318,0
2646,38308,0
2596,38297,0
1988,38297,0
2106,38295,0
2204,38298,0
2304,38295,0
2368,38308,0
2389,38302,0
2388,38301,0
2345,38301,0
2274,38292,0
2176,38289,0
2064,38288,0
1961,38287,0
1868,38284,0
1781,38288,0
1696,38276,0
1664,38278,0
1656,38294,0
1688,38293,0
1748,38314,0
1834,38312,0
1948,38313,0
2048,38316,0
2165,38317,0
2252,38315,0
2314,38324,0
2400,38326,0
2384,38332,0
2353,38309,0
2270,38305,0
2132,38301,0
2010,38302,0
1912,38294,0
1896,38323,0
1816,38323,0
1752,38323,0
1730,38323,0
1744,38313,0
1796,38313,0
1836,38313,0
1917,38313,0
2042,38313,0
2168,38313,0
2248,38313,0
2339,38302,0
2388,38302,0
2380,38302,0
2402,38302,0
2320,38302,0
2268,38302,0
2136,38302,0
2064,38325,0
1928,38279,0
1848,38279,0
1674,38279,0
1632,38279,0
1592,38279,0
1616,38279,0
1708,38343,0
1777,38294,0
1877,38294,0
1984,38294,0
2052,38294,0
2168,38294,0
2264,38294,0
2384,38327,0
2416,38333,0
2408,38328,0
2368,38330,0
2284,38324,0
2192,38340,0
2084,38329,0
1968,38332,0
1857,38341,0
1780,38333,0
1728,38323,0
1691,38334,0
1697,38335,0
1704,38326,0
1817,38341,0
1868,38319,0
2020,38327,0
2104,38324,0
2248,38314,0
2336,38327,0
2404,38314,0
2378,38320,0
2376,38334,0
2328,38322,0
2232,38336,0
2176,38349,0
2056,38364,0
1938,38354,0
1722,38352,0
1772,38350,0
1856,38332,0
1940,38357,0
2056,38335,0
2164,38332,0
2256,38339,0
2344,38347,0
2402,38337,0
2412,38339,0
2408,38324,0
2340,38333,0
2280,38327,0
2136,38340,0
2072,38331,0
1924,38330,0
1892,38327,0
1772,38327,0
1680,38322,0
1665,38318,0
1682,38320,0
1728,38325,0
1817,38326,0
1914,38325,0
2028,38313,0
2177,38318,0
2288,38324,0
2368,38320,0
2426,38318,0
2424,38324,0
2404,38340,0
2357,38349,0
2330,38344,0
2226,38335,0
2140,38336,0
2024,38329,0
1936,38329,0
1896,38330,0
1818,38339,0
1804,38338,0
1832,38332,0
1882,38324,0
1948,38332,0
2047,38337,0
2160,38333,0
2233,38329,0
2368,38327,0
2420,38319,0
2504,38320,0
2490,38310,0
2520,38306,0
2448,38302,0
2388,38301,0
2240,38321,0
2124,38319,0
2022,38331,0
1940,38342,0
1918,38344,0
1860,38343,0
1844,38347,0
1860,38335,0
1860,38335,0
1920,38319,0
2184,38156,0
2288,38319,0
2380,38301,0
2456,38289,0
2514,38294,0
2536,38299,0
2530,38284,0
2488,38280,0
2416,38281,0
2324,38266,0
2220,38276,0
2119,38265,0
2024,38268,0
1912,38269,0
1904,38268,0
1834,38257,0
1896,38234,0
1882,38237,0
1990,38225,0
2074,38219,0
2112,38211,0
2220,38208,0
2320,38192,0
2400,38199,0
2448,38182,0
2504,38177,0
2473,38165,0
2416,38166,0
2332,38158,0
2180,38148,0
2068,38150,0
1938,38144,0
1912,38156,0
1844,38155,0
1776,38145,0
1752,38165,0
1760,38147,0
1801,38129,0
1864,38132,0
1952,38124,0
2064,38124,0
2162,38122,0
2261,38118,0
2328,38117,0
2396,38113,0
2368,38114,0
2376,38111,0
2288,38097,0
2228,38107,0
2074,38086,0
2008,38089,0
1888,38086,0
1793,38076,0
1620,38071,0
1560,38074,0
1540,38078,0
1554,38071,0
1637,38061,0
1729,38061,0
1825,38050,0
1933,38051,0
2000,38053,0
2112,38062,0
2197,38076,0
2312,38064,0
2348,38067,0
2344,38090,0
2280,38081,0
2200,38067,0
2100,38051,0
2000,38046,0
1866,38047,0
1768,38062,0
1691,38052,0
1636,38057,0
1592,38055,0
1620,38035,0
1608,38054,0
1740,38047,0
1796,38048,0
1952,38060,0
2024,38043,0
2160,38054,0
2234,38040,0
2288,38040,0
2256,38035,0
2220,38035,0
2169,38040,0
2080,38036,0
2012,38029,0
1896,38036,0
1786,38023,0
1692,38029,0
1556,38030,0
1504,38035,0
1481,38043,0
1608,38053,0
1661,38046,0
1746,38025,0
1840,38041,0
1948,38019,0
2060,38042,0
2168,38031,0
2240,38043,0
2290,38044,0
2303,38045,0
2281,38045,0
2219,38040,0
2132,38039,0
1984,38055,0
1916,38041,0
1748,38032,0
1704,38046,0
1580,38038,0
1589,38030,0
1564,38036,0
1600,38034,0
1548,38033,0
1634,38026,0
1770,38021,0
1856,38025,0
2018,38035,0
2120,38018,0
2233,38023,0
2244,38019,0
2232,38023,0
2224,38020,0
2144,38016,0
2132,38039,0
2024,38046,0
1924,38044,0
1816,38057,0
1716,38034,0
1653,38044,0
1616,38043,0
1598,38029,0
1618,38039,0
1668,38041,0
1728,38034,0
1828,38036,0
1956,38044,0
2009,38055,0
2160,38043,0
2192,38041,0
2280,38045,0
2264,38041,0
2268,38034,0
2216,38035,0
2128,38031,0
1944,38028,0
1856,38028,0
1716,38024,0
1620,38023,0
1600,38026,0
1544,38030,0
1531,38043,0
1559,38049,0
1552,38055,0
1629,38068,0
1734,38065,0
1928,38066,0
2042,38027,0
2144,38042,0
2216,38043,0
2280,38024,0
2298,38039,0
2280,38039,0
2229,38048,0
2140,38054,0
2032,38049,0
1940,38038,0
1820,38050,0
1748,38041,0
1624,38049,0
1644,38042,0
1568,38046,0
1640,38038,0
1650,38045,0
1772,38046,0
1850,38036,0
1972,38033,0
2008,38042,0
2101,38035,0
2184,38035,0
2240,38029,0
2288,38023,0
2257,38029,0
2189,38024,0
2108,38024,0
1960,38026,0
1837,38019,0
1730,38035,0
1716,38044,0
1664,38033,0
1613,38048,0
1605,38022,0
1624,38048,0
1682,38065,0
1753,38047,0
1836,38039,0
1968,38032,0
2076,38042,0
2174,38042,0
2235,38032,0
2290,38036,0
2264,38049,0
2272,38046,0
2184,38042,0
2116,38040,0
1968,38056,0
1912,38051,0
1776,38055,0
1704,38046,0
1532,38040,0
1488,38056,0
1481,38038,0
1520,38047,0
1618,38039,0
1715,38054,0
1824,38037,0
1937,38033,0
2004,38029,0
2104,38032,0
2168,38036,0
2280,38057,0
2298,38044,0
2280,38071,0
2204,38059,0
2104,38061,0
2009,38048,0
1884,38052,0
1786,38045,0
1692,38051,0
1612,38048,0
1576,38044,0
1543,38055,0
1580,38054,0
1592,38045,0
1728,38047,0
1784,38052,0
1944,38061,0
2012,38059,0
2156,38060,0
2224,38050,0
2290,38049,0
2232,38047,0
2208,38048,0
2120,38038,0
2020,38048,0
1936,38048,0
1822,38055,0
1713,38042,0
1632,38037,0
1472,38042,0
1440,38041,0
1429,38057,0
1552,38069,0
1614,38062,0
1698,38044,0
1802,38063,0
1918,38076,0
2026,38063,0
2117,38054,0
2208,38051,0
2248,38045,0
2252,38053,0
2224,38050,0
2156,38055,0
2068,38049,0
1916,38058,0
1844,38052,0
1688,38054,0
1648,38059,0
1516,38054,0
1528,38043,0
1504,38052,0
1544,38060,0
1496,38061,0
1584,38052,0
1684,38051,0
1816,38053,0
1970,38042,0
2064,38042,0
2153,38043,0
2205,38048,0
2160,38039,0
2138,38037,0
2072,38040,0
1961,38057,0
1856,38077,0
1738,38050,0
1652,38073,0
1564,38082,0
1520,38076,0
1522,38074,0
1548,38076,0
1600,38067,0
1680,38056,0
1763,38047,0
1877,38051,0
1956,38052,0
2088,38037,0
2128,38043,0
2208,38035,0
2176,38039,0
2184,38046,0
2104,38048,0
1956,38039,0
1836,38041,0
1717,38041,0
1600,38042,0
1498,38042,0
1500,38033,0
1446,38043,0
1442,38045,0
1480,38041,0
1472,38040,0
1564,38033,0
1674,38035,0
1876,38040,0
2000,38026,0
2096,38022,0
2156,38050,0
2204,38028,0
2216,38027,0
2178,38026,0
2112,38023,0
2024,38027,0
1912,38025,0
1800,38029,0
1674,38024,0
1600,38026,0
1476,38024,0
1492,38016,0
1426,38023,0
1512,38021,0
1524,38028,0
1658,38020,0
1756,38026,0
1872,38008,0
1906,38023,0
2016,38014,0
2082,38008,0
2102,38019,0
2169,38007,0
2109,38017,0
2036,38011,0
1944,38006,0
1776,38005,0
1656,38001,0
1540,38010,0
1552,38029,0
1494,38023,0
1458,38043,0
1458,38009,0
1493,38030,0
1560,38043,0
1648,38025,0
1760,38017,0
1868,38021,0
1976,38020,0
2060,38020,0
2128,38020,0
2168,38017,0
2140,38020,0
2144,38022,0
2032,38018,0
1968,38012,0
1812,38028,0
1744,38018,0
1617,38023,0
1548,38030,0
1376,38027,0
1344,38027,0
1332,38027,0
1368,38021,0
1488,38018,0
1586,38015,0
1688,38004,0
1800,38018,0
1860,38018,0
1973,38010,0
2036,38019,0
2144,38025,0
2154,38030,0
2104,38031,0
2036,38050,0
1936,38024,0
1825,38061,0
1713,38054,0
1624,38038,0
1535,38041,0
1474,38035,0
1449,38043,0
1430,38035,0
1482,38046,0
1490,38040,0
1648,38038,0
1698,38030,0
1856,38050,0
1913,38040,0
2056,38051,0
2096,38055,0
2160,38052,0
2089,38046,0
2053,38055,0
1968,38054,0
1884,38045,0
1817,38042,0
1705,38047,0
1613,38054,0
1536,38061,0
1416,38055,0
1386,38063,0
1396,38057,0
1552,38071,0
1624,38069,0
1720,38080,0
1816,38072,0
1928,38085,0
2044,38087,0
2136,38091,0
2208,38084,0
2248,38080,0
2256,38080,0
2224,38070,0
2144,38072,0
2064,38074,0
1898,38076,0
1840,38079,0
1674,38080,0
1636,38084,0
1508,38090,0
1524,38078,0
1516,38082,0
1562,38090,0
1529,38087,0
1604,38086,0
1721,38085,0
1830,38094,0
1980,38098,0
2080,38098,0
2148,38087,0
2180,38083,0
2136,38078,0
2104,38077,0
2016,38085,0
1988,38109,0
1868,38101,0
1756,38087,0
1628,38102,0
1556,38119,0
1480,38105,0
1428,38104,0
1426,38114,0
1452,38112,0
1542,38110,0
1600,38107,0
1680,38117,0
1813,38114,0
1872,38113,0
2016,38122,0
2052,38114,0
2136,38122,0
2088,38113,0
2092,38116,0
2016,38114,0
1914,38114,0
1716,38111,0
1592,38118,0
1488,38107,0
1382,38106,0
1380,38107,0
1349,38103,0
1345,38108,0
1372,38115,0
1372,38116,0
1467,38127,0
1577,38143,0
1790,38140,0
1898,38137,0
1994,38135,0
2056,38138,0
2100,38142,0
2082,38128,0
2047,38129,0
1978,38141,0
1868,38138,0
1762,38134,0
1652,38136,0
1563,38120,0
1466,38135,0
1346,38116,0
1380,38122,0
1324,38124,0
1416,38124,0
1429,38132,0
1580,38134,0
1660,38137,0
1791,38143,0
1808,38161,0
1888,38173,0
1944,38168,0
1958,38179,0
1986,38170,0
1908,38172,0
1811,38173,0
1677,38171,0
1448,38150,0
1298,38161,0
1165,38153,0
1188,38146,0
1113,38176,0
1072,38162,0
1066,38177,0
1096,38153,0
1169,38152,0
1258,38142,0
1394,38149,0
1522,38143,0
1658,38140,0
1786,38148,0
1876,38172,0
1960,38164,0
1969,38172,0
2032,38183,0
1972,38190,0
1984,38196,0
1896,38198,0
1929,38200,0
1928,38197,0
1978,38197,0
1984,38191,0
2092,38183,0
2224,38179,0
2376,38180,0
2546,38185,0
2680,38186,0
2800,38177,0
2900,38188,0
2952,38201,0
2992,38190,0
3000,38196,0
2996,38194,0
2942,38177,0
2868,38196,0
2772,38183,0
2672,38218,0
2572,38215,0
2466,38212,0
2396,38208,0
2344,38206,0
2316,38201,0
2300,38210,0
2316,38197,0
2368,38210,0
2400,38221,0
2492,38209,0
2544,38224,0
2624,38215,0
2640,38224,0
2690,38225,0
2680,38232,0
2640,38217,0
2520,38228,0
2404,38223,0
2252,38234,0
2096,38232,0
1960,38237,0
1804,38231,0
1646,38233,0
1517,38221,0
1352,38234,0
1301,38236,0
1400,38275,0
1450,38239,0
1525,38227,0
1608,38242,0
1696,38236,0
1794,38275,0
1864,38272,0
1920,38279,0
1952,38256,0
1929,38246,0
1880,38258,0
1803,38250,0
1700,38250,0
1530,38248,0
1468,38252,0
1316,38256,0
1313,38256,0
1168,38259,0
1198,38261,0
1184,38260,0
1120,38259,0
1200,38262,0
1292,38256,0
1396,38274,0
1521,38265,0
1672,38265,0
1770,38265,0
1829,38274,0
1869,38276,0
1792,38265,0
1741,38257,0
1660,38255,0
1644,38275,0
1560,38291,0
1420,38275,0
1308,38283,0
1226,38278,0
1164,38275,0
1138,38271,0
1146,38284,0
1178,38269,0
1270,38279,0
1344,38278,0
1434,38286,0
1564,38280,0
1620,38276,0
1770,38291,0
1785,38275,0
1866,38278,0
1808,38272,0
1812,38280,0
1728,38279,0
1632,38286,0
1420,38298,0
1302,38291,0
1194,38286,0
1118,38289,0
1074,38279,0
1104,38288,0
1109,38278,0
1152,38289,0
1152,38282,0
1251,38270,0
1362,38279,0
1574,38310,0
1685,38310,0
1768,38297,0
1832,38296,0
1864,38288,0
1848,38298,0
1802,38290,0
1725,38292,0
1620,38279,0
1500,38276,0
1400,38267,0
1270,38278,0
1209,38273,0
1084,38271,0
1136,38282,0
1080,38280,0
1194,38290,0
1200,38284,0
1362,38288,0
1464,38287,0
1604,38290,0
1610,38277,0
1696,38298,0
1760,38289,0
1780,38289,0
1824,38307,0
1768,38291,0
1694,38306,0
1594,38314,0
1402,38316,0
1306,38323,0
1164,38332,0
1204,38323,0
1145,38314,0
1116,38299,0
1136,38306,0
1184,38314,0
1256,38303,0
1352,38311,0
1453,38312,0
1572,38316,0
1656,38322,0
1776,38330,0
1841,38322,0
1868,38329,0
1812,38330,0
1812,38323,0
1680,38324,0
1625,38333,0
1448,38329,0
1400,38341,0
1264,38337,0
1216,38331,0
1024,38334,0
1005,38331,0
1014,38347,0
1068,38332,0
1204,38344,0
1310,38345,0
1424,38343,0
1538,38347,0
1594,38344,0
1681,38346,0
1748,38341,0
1860,38360,0
1842,38367,0
1825,38358,0
1714,38378,0
1620,38363,0
1504,38355,0
1392,38360,0
1298,38367,0
1212,38362,0
1164,38370,0
1150,38371,0
1147,38376,0
1208,38366,0
1224,38365,0
1396,38366,0
1460,38376,0
1640,38376,0
1666,38367,0
1836,38378,0
1888,38368,0
1928,38377,0
1832,38379,0
1784,38367,0
1692,38377,0
1576,38382,0
1501,38380,0
1387,38365,0
1298,38360,0
1214,38369,0
1088,38371,0
1069,38364,0
1092,38370,0
1260,38388,0
1344,38390,0
1442,38405,0
1572,38373,0
1692,38359,0
1806,38376,0
1892,38392,0
1964,38389,0
1984,38382,0
1988,38377,0
1928,38382,0
1824,38386,0
1748,38391,0
1568,38381,0
1522,38370,0
1360,38382,0
1338,38384,0
1230,38381,0
1266,38378,0
1264,38380,0
1324,38379,0
1301,38379,0
1402,38384,0
1522,38388,0
1638,38377,0
1804,38379,0
1904,38381,0
1960,38374,0
1998,38374,0
1932,38376,0
1892,38376,0
1796,38374,0
1784,38366,0
1666,38367,0
1552,38361,0
1460,38389,0
1382,38381,0
1344,38355,0
1322,38357,0
1336,38357,0
1388,38359,0
1462,38354,0
1568,38350,0
1663,38343,0
1784,38338,0
1828,38332,0
1960,38338,0
1960,38335,0
2028,38322,0
1970,38309,0
1952,38298,0
1848,38302,0
1768,38291,0
1576,38280,0
1424,38278,0
1328,38271,0
1236,38278,0
1213,38272,0
1224,38265,0
1242,38249,0
1290,38247,0
1290,38248,0
1388,38232,0
1501,38227,0
1709,38258,0
1808,38226,0
1892,38248,0
1938,38231,0
1960,38210,0
1936,38206,0
1880,38206,0
1782,38199,0
1640,38200,0
1552,38197,0
1428,38199,0
1308,38190,0
1248,38186,0
1115,38183,0
1176,38187,0
1116,38184,0
1236,38174,0
1240,38169,0
1410,38174,0
1506,38158,0
1658,38168,0
1652,38167,0
1733,38152,0
1792,38167,0
1808,38148,0
1828,38159,0
1784,38154,0
1692,38143,0
1580,38141,0
1384,38139,0
1265,38144,0
1204,38114,0
1146,38123,0
1136,38114,0
1147,38151,0
1204,38153,0
1277,38138,0
1372,38128,0
1498,38130,0
1606,38129,0
1718,38134,0
1802,38122,0
1836,38137,0
1876,38129,0
1802,38124,0
1804,38128,0
1660,38130,0
1600,38128,0
1416,38132,0
1362,38129,0
1240,38129,0
1058,38115,0
1009,38108,0
984,38106,0
1002,38109,0
1060,38109,0
1217,38114,0
1300,38109,0
1424,38117,0
1549,38113,0
1588,38099,0
1683,38112,0
1738,38103,0
1846,38119,0
1820,38134,0
1776,38135,0
1694,38126,0
1572,38131,0
1470,38122,0
1360,38111,0
1284,38111,0
1210,38112,0
1154,38112,0
1125,38107,0
1139,38115,0
1196,38107,0
1218,38113,0
1384,38110,0
1496,38120,0
1610,38114,0
1709,38117,0
1804,38111,0
1852,38112,0
1868,38116,0
1764,38111,0
1696,38114,0
1602,38111,0
1493,38111,0
1429,38121,0
1304,38108,0
1204,38118,0
1128,38105,0
998,38111,0
984,38099,0
1003,38119,0
1177,38119,0
1268,38138,0
1364,38136,0
1484,38142,0
1602,38135,0
1718,38131,0
1793,38122,0
1848,38119,0
1865,38128,0
1842,38127,0
1800,38127,0
1703,38130,0
1598,38140,0
1421,38142,0
1377,38129,0
1220,38131,0
1210,38124,0
1082,38123,0
1148,38138,0
1156,38135,0
1212,38130,0
1184,38138,0
1280,38133,0
1400,38128,0
1536,38128,0
1768,38133,0
1774,38120,0
1833,38128,0
1856,38125,0
1776,38128,0
1724,38128,0
1621,38130,0
1608,38153,0
1500,38138,0
1370,38158,0
1278,38120,0
1205,38148,0
1154,38128,0
1148,38123,0
1172,38126,0
1228,38130,0
1304,38129,0
1405,38129,0
1508,38126,0
1653,38123,0
1708,38127,0
1848,38137,0
1848,38135,0
1912,38131,0
1840,38139,0
1828,38149,0
1728,38146,0
1632,38145,0
1408,38141,0
1276,38137,0
1178,38140,0
1090,38148,0
1109,38138,0
1106,38151,0
1128,38146,0
1186,38145,0
1196,38154,0
1298,38161,0
1416,38153,0
1632,38156,0
1748,38165,0
1832,38183,0
1882,38190,0
1896,38162,0
1884,38166,0
1816,38163,0
1738,38166,0
1624,38170,0
1516,38175,0
1400,38172,0
1303,38173,0
1258,38177,0
1113,38174,0
1170,38175,0
1128,38175,0
1253,38176,0
1264,38179,0
1441,38183,0
1528,38176,0
1672,38184,0
1684,38198,0
1771,38189,0
1830,38185,0
1835,38178,0
1864,38188,0
1790,38183,0
1704,38178,0
1594,38173,0
1400,38174,0
1280,38174,0
1180,38170,0
1224,38209,0
1182,38209,0
1168,38220,0
1196,38203,0
1242,38203,0
1364,38193,0
1442,38197,0
1554,38198,0
1664,38197,0
1784,38200,0
1858,38199,0
1902,38200,0
1916,38215,0
1850,38198,0
1840,38211,0
1690,38204,0
1632,38205,0
1452,38205,0
1400,38206,0
1282,38196,0
1232,38197,0
1064,38196,0
1060,38205,0
1078,38204,0
1136,38201,0
1297,38204,0
1394,38205,0
1510,38202,0
1630,38201,0
1664,38197,0
1760,38206,0
1812,38208,0
1909,38214,0
1868,38224,0
1816,38219,0
1712,38224,0
1596,38203,0
1494,38217,0
1370,38207,0
1288,38200,0
1216,38206,0
1168,38202,0
1146,38207,0
1164,38210,0
1236,38210,0
1260,38209,0
1429,38211,0
1492,38208,0
1664,38223,0
1712,38211,0
1848,38223,0
1884,38220,0
1908,38219,0
1808,38217,0
1740,38220,0
1636,38226,0
1514,38220,0
1450,38220,0
1344,38217,0
1244,38223,0
1175,38220,0
1050,38218,0
1044,38216,0
1077,38229,0
1262,38228,0
1338,38248,0
1444,38241,0
1558,38225,0
1676,38223,0
1781,38224,0
1856,38230,0
1906,38215,0
1914,38211,0
1884,38218,0
1824,38213,0
1700,38216,0
1610,38205,0
1442,38211,0
1400,38214,0
1228,38212,0
1232,38212,0
1128,38204,0
1189,38200,0
1202,38206,0
1269,38202,0
1244,38214,0
1344,38200,0
1466,38203,0
1584,38219,0
1744,38201,0
1828,38206,0
1874,38204,0
1886,38202,0
1796,38197,0
1741,38202,0
1634,38198,0
1624,38217,0
1499,38197,0
1400,38221,0
1297,38199,0
1224,38217,0
1192,38212,0
1184,38191,0
1202,38187,0
1278,38200,0
1356,38182,0
1460,38183,0
1559,38180,0
1685,38185,0
1732,38181,0
1860,38183,0
1864,38191,0
1920,38183,0
1841,38187,0
1832,38173,0
1706,38179,0
1618,38189,0
1404,38188,0
1281,38185,0
1181,38187,0
1112,38182,0
1147,38181,0
1126,38178,0
1176,38186,0
1234,38177,0
1248,38178,0
1369,38180,0
1708,38212,0
1800,38187,0
1878,38203,0
1934,38198,0
1940,38202,0
1898,38208,0
1828,38200,0
1740,38215,0
1616,38212,0
1497,38211,0
1368,38222,0
1260,38212,0
1220,38198,0
1096,38200,0
1169,38189,0
1130,38186,0
1264,38187,0
1290,38195,0
1470,38195,0
1568,38198,0
1600,38191,0
1708,38194,0
1802,38196,0
1850,38196,0
1860,38192,0
1880,38200,0
1812,38210,0
1712,38185,0
1606,38200,0
1416,38202,0
1300,38207,0
1202,38212,0
1249,38212,0
1201,38202,0
1200,38217,0
1226,38244,0
1288,38219,0
1378,38215,0
1489,38218,0
1596,38216,0
1708,38223,0
1810,38215,0
1885,38227,0
1902,38228,0
1930,38228,0
1842,38229,0
1824,38228,0
1688,38231,0
1624,38243,0
1456,38235,0
1396,38237,0
1289,38239,0
1228,38239,0
1072,38237,0
1072,38234,0
1108,38237,0
1176,38248,0
1355,38250,0
1448,38242,0
1582,38239,0
1700,38244,0
1746,38253,0
1832,38250,0
1880,38255,0
1964,38287,0
1924,38267,0
1840,38252,0
1748,38279,0
1636,38273,0
1504,38260,0
1398,38256,0
1312,38258,0
1236,38262,0
1202,38264,0
1208,38256,0
1228,38271,0
1313,38265,0
1360,38265,0
1537,38259,0
1616,38262,0
1791,38277,0
1856,38274,0
1978,38264,0
2020,38269,0
2072,38266,0
1936,38265,0
1880,38271,0
1765,38264,0
1653,38266,0
1594,38266,0
1473,38259,0
1383,38258,0
1318,38262,0
1192,38269,0
1203,38272,0
1240,38270,0
1413,38283,0
1486,38291,0
1605,38280,0
1716,38276,0
1828,38309,0
1930,38286,0
1994,38288,0
2029,38285,0
2032,38283,0
1994,38286,0
1916,38271,0
1800,38289,0
1700,38284,0
1517,38273,0
1474,38290,0
1316,38276,0
1320,38280,0
1206,38273,0
1272,38271,0
1293,38285,0
1368,38282,0
1340,38282,0
1456,38288,0
1578,38284,0
1692,38295,0
1840,38286,0
1912,38278,0
1954,38285,0
1955,38286,0
1856,38288,0
1784,38284,0
1680,38285,0
1653,38302,0
1538,38305,0
1424,38301,0
1332,38326,0
1272,38323,0
1244,38316,0
1242,38315,0
1280,38320,0
1346,38320,0
1444,38328,0
1549,38319,0
1640,38314,0
1781,38322,0
1828,38320,0
1952,38321,0
1952,38319,0
1996,38326,0
1916,38325,0
1888,38323,0
1784,38334,0
1672,38326,0
1442,38322,0
1336,38325,0
1234,38334,0
1165,38328,0
1276,38330,0
1184,38330,0
1226,38331,0
1310,38331,0
1336,38331,0
1458,38333,0
1584,38330,0
1784,38322,0
1881,38336,0
1952,38357,0
1989,38330,0
1996,38320,0
1948,38368,0
1877,38358,0
1768,38353,0
1648,38346,0
1520,38344,0
1396,38344,0
1277,38346,0
1190,38337,0
1066,38346,0
1112,38340,0
1040,38342,0
1156,38350,0
1146,38355,0
1312,38349,0
1384,38351,0
1512,38346,0
1492,38345,0
1565,38351,0
1608,38352,0
1611,38350,0
1638,38352,0
1568,38351,0
1489,38359,0
1400,38352,0
1242,38351,0
1172,38345,0
1139,38360,0
1242,38356,0
1272,38382,0
1354,38369,0
1480,38366,0
1648,38366,0
1864,38384,0
2112,38377,0
2378,38376,0
2648,38380,0
2884,38359,0
3082,38370,0
3240,38354,0
3312,38363,0
3328,38356,0
3272,38354,0
3148,38354,0
3016,38361,0
2824,38355,0
2676,38358,0
2522,38369,0
2402,38356,0
2264,38349,0
2224,38361,0
2230,38368,0
2268,38356,0
2384,38372,0
2489,38370,0
2596,38363,0
2708,38368,0
2792,38365,0
2852,38364,0
2880,38370,0
2896,38363,0
2832,38377,0
2728,38382,0
2588,38361,0
2426,38363,0
2264,38364,0
2092,38364,0
1956,38360,0
1828,38366,0
1730,38361,0
1660,38359,0
1620,38359,0
1652,38361,0
1628,38369,0
1740,38359,0
1762,38368,0
1892,38361,0
1896,38366,0
1976,38369,0
1980,38364,0
1962,38366,0
1830,38367,0
1732,38365,0
1622,38368,0
1500,38361,0
1440,38365,0
1314,38364,0
1237,38361,0
1181,38358,0
1064,38367,0
1080,38365,0
1125,38361,0
1308,38363,0
1404,38373,0
1512,38364,0
1630,38371,0
1738,38360,0
1832,38364,0
1896,38362,0
1930,38361,0
1924,38356,0
1872,38369,0
1794,38363,0
1677,38360,0
1568,38362,0
1392,38361,0
1338,38365,0
1184,38358,0
1180,38365,0
1080,38369,0
1177,38372,0
1168,38367,0
1278,38366,0
1258,38368,0
1380,38374,0
1512,38368,0
1629,38367,0
1782,38369,0
1900,38372,0
1881,38371,0
1877,38372,0
1784,38372,0
1698,38383,0
1576,38400,0
1448,38375,0
1336,38394,0
1252,38382,0
1180,38392,0
1162,38377,0
1160,38384,0
1213,38386,0
1296,38382,0
1382,38375,0
1498,38376,0
1600,38370,0
1724,38379,0
1764,38378,0
1888,38384,0
1882,38380,0
1912,38382,0
1824,38375,0
1788,38384,0
1672,38388,0
1474,38384,0
1344,38379,0
1230,38386,0
1145,38372,0
1088,38383,0
1132,38392,0
1137,38377,0
1186,38379,0
1256,38374,0
1289,38375,0
1420,38377,0
1536,38382,0
1752,38400,0
1848,38390,0
1908,38388,0
1944,38374,0
1938,38384,0
1893,38413,0
1804,38410,0
1712,38410,0
1580,38399,0
1466,38392,0
1362,38377,0
1258,38392,0
1216,38389,0
1129,38393,0
1210,38388,0
1184,38380,0
1328,38395,0
1360,38386,0
1544,38394,0
1650,38400,0
1777,38386,0
1796,38398,0
1864,38391,0
1898,38397,0
1896,38396,0
1890,38397,0
1808,38402,0
1696,38394,0
1568,38388,0
1386,38394,0
1274,38398,0
1188,38392,0
1249,38414,0
1226,38395,0
1232,38411,0
1276,38391,0
1360,38394,0
1453,38389,0
1561,38382,0
1689,38380,0
1800,38394,0
1904,38391,0
1964,38390,0
1999,38387,0
1996,38396,0
1893,38388,0
1868,38395,0
1704,38390,0
1640,38398,0
1464,38381,0
1420,38381,0
1301,38392,0
1285,38393,0
1142,38400,0
1154,38402,0
1204,38393,0
1288,38396,0
1466,38393,0
1587,38387,0
1696,38400,0
1824,38390,0
1865,38393,0
1936,38389,0
1978,38388,0
2040,38395,0
1996,38401,0
1908,38404,0
1808,38398,0
1684,38386,0
1568,38389,0
1460,38403,0
1386,38392,0
1324,38393,0
1309,38394,0
1316,38391,0
1353,38389,0
1450,38392,0
1504,38390,0
1692,38399,0
1760,38391,0
1928,38393,0
1978,38384,0
2098,38390,0
2124,38394,0
2128,38394,0
2008,38399,0
1922,38398,0
1816,38394,0
1696,38390,0
1636,38396,0
1534,38396,0
1448,38385,0
1388,38383,0
1298,38386,0
1312,38388,0
1371,38386,0
1556,38390,0
1658,38398,0
1778,38404,0
1900,38392,0
2018,38388,0
2112,38386,0
2172,38389,0
2202,38388,0
2202,38384,0
2152,38380,0
2072,38383,0
1960,38381,0
1856,38379,0
1690,38373,0
1649,38374,0
1513,38369,0
1513,38369,0
1442,38352,0
1514,38362,0
1552,38361,0
1653,38364,0
1652,38362,0
1772,38361,0
1900,38350,0
2005,38337,0
2144,38340,0
2210,38332,0
2228,38334,0
2221,38324,0
2128,38330,0
2048,38320,0
1938,38313,0
1897,38320,0
1790,38319,0
1688,38305,0
1610,38316,0
1556,38282,0
1538,38299,0
1538,38302,0
1590,38300,0
1664,38290,0
1758,38268,0
1864,38257,0
1979,38248,0
2073,38245,0
2120,38236,0
2208,38240,0
2208,38217,0
2226,38222,0
2124,38221,0
2080,38213,0
1940,38208,0
1844,38212,0
1628,38211,0
1517,38198,0
1427,38199,0
1364,38200,0
1400,38194,0
1418,38195,0
1451,38182,0
1529,38181,0
1568,38188,0
1680,38182,0
1801,38177,0
1984,38184,0
2076,38171,0
2116,38160,0
2148,38182,0
2128,38165,0
2069,38155,0
1977,38151,0
1868,38154,0
1734,38161,0
1618,38153,0
1505,38154,0
1414,38145,0
1380,38140,0
1288,38145,0
1364,38143,0
1360,38133,0
1497,38147,0
1529,38133,0
1720,38127,0
1828,38120,0
1936,38138,0
1968,38134,0
2028,38132,0
2048,38132,0
2032,38131,0
2016,38130,0
1934,38122,0
1828,38121,0
1717,38122,0
1512,38124,0
1412,38120,0
1325,38114,0
1372,38096,0
1360,38122,0
1364,38131,0
1425,38105,0
1500,38161,0
1588,38144,0
1716,38129,0
1832,38137,0
1930,38123,0
2024,38124,0
2076,38133,0
2086,38126,0
2088,38135,0
1984,38122,0
1948,38110,0
1800,38115,0
1716,38111,0
1552,38099,0
1504,38104,0
1416,38113,0
1380,38111,0
1254,38108,0
1256,38114,0
1307,38108,0
1389,38111,0
1558,38106,0
1669,38121,0
1802,38117,0
1913,38119,0
1954,38106,0
2021,38114,0
2053,38125,0
2100,38107,0
2047,38133,0
1968,38112,0
1864,38107,0
1736,38114,0
1638,38113,0
1520,38115,0
1458,38110,0
1401,38111,0
1381,38119,0
1398,38109,0
1445,38115,0
1528,38114,0
1580,38119,0
1757,38119,0
1824,38120,0
1980,38119,0
2024,38116,0
2136,38122,0
2128,38122,0
2124,38128,0
1992,38120,0
1904,38128,0
1776,38124,0
1652,38122,0
1588,38133,0
1507,38120,0
1397,38126,0
1376,38137,0
1274,38130,0
1297,38125,0
1548,38197,0
1652,38147,0
1772,38133,0
1892,38130,0
2000,38133,0
2084,38132,0
2144,38136,0
2160,38136,0
2140,38131,0
2094,38138,0
2004,38139,0
1877,38131,0
1768,38133,0
1600,38144,0
1552,38138,0
1424,38144,0
1425,38135,0
1348,38151,0
1440,38149,0
1474,38153,0
1472,38149,0
1580,38150,0
1704,38151,0
1826,38151,0
1925,38153,0
2072,38156,0
2120,38160,0
2142,38144,0
2124,38166,0
2018,38158,0
1941,38164,0
1818,38168,0
1792,38197,0
1680,38160,0
1584,38165,0
1514,38162,0
1456,38167,0
1441,38142,0
1456,38151,0
1518,38149,0
1588,38156,0
1690,38153,0
1808,38157,0
1908,38155,0
2036,38151,0
2080,38154,0
2180,38155,0
2164,38158,0
2172,38170,0
2088,38158,0
2034,38164,0
1932,38163,0
1812,38170,0
1604,38159,0
1500,38164,0
1417,38178,0
1364,38171,0
1416,38157,0
1440,38164,0
1492,38160,0
1582,38162,0
1626,38167,0
1746,38163,0
1872,38170,0
2056,38186,0
2150,38180,0
2200,38160,0
2216,38175,0
2208,38195,0
2140,38187,0
2056,38187,0
1941,38184,0
1824,38183,0
1722,38180,0
1609,38182,0
1529,38186,0
1484,38197,0
1412,38192,0
1492,38189,0
1500,38193,0
1624,38200,0
1680,38210,0
1848,38187,0
1942,38193,0
2064,38188,0
2088,38197,0
2148,38196,0
2166,38194,0
2156,38199,0
2148,38203,0
2028,38200,0
1924,38200,0
1820,38188,0
1636,38202,0
1528,38201,0
1454,38204,0
1508,38196,0
1480,38222,0
1506,38202,0
1554,38218,0
1644,38214,0
1748,38224,0
1852,38225,0
1968,38234,0
2072,38232,0
2156,38214,0
2208,38222,0
2207,38197,0
2188,38209,0
2092,38206,0
2044,38199,0
1896,38198,0
1824,38205,0
1648,38216,0
1620,38212,0
1524,38209,0
1500,38213,0
1392,38210,0
1419,38212,0
1474,38209,0
1562,38211,0
1718,38208,0
1850,38214,0
1972,38210,0
2068,38204,0
2112,38217,0
2176,38223,0
2180,38214,0
2224,38217,0
2164,38210,0
2066,38255,0
1958,38228,0
1836,38246,0
1725,38258,0
1632,38245,0
1556,38227,0
1506,38221,0
1496,38209,0
1516,38217,0
1584,38218,0
1672,38222,0
1713,38234,0
1884,38223,0
1964,38225,0
2092,38227,0
2140,38225,0
2212,38233,0
2224,38217,0
2200,38214,0
2088,38229,0
1978,38225,0
1872,38231,0
1772,38235,0
1680,38229,0
1642,38232,0
1496,38231,0
1466,38240,0
1386,38235,0
1426,38226,0
1501,38228,0
1676,38226,0
1780,38243,0
1906,38230,0
2005,38226,0
2106,38246,0
2192,38247,0
2244,38238,0
2253,38227,0
2224,38210,0
2162,38218,0
2072,38218,0
1968,38220,0
1848,38223,0
1696,38211,0
1648,38228,0
1512,38218,0
1535,38218,0
1464,38231,0
1552,38216,0
1584,38223,0
1709,38224,0
1696,38219,0
1809,38220,0
1944,38213,0
2048,38219,0
2176,38220,0
2230,38221,0
2225,38214,0
2205,38210,0
2100,38216,0
2013,38226,0
1888,38212,0
1848,38216,0
1736,38211,0
1644,38218,0
1558,38226,0
1532,38227,0
1522,38204,0
1548,38208,0
1609,38206,0
1705,38202,0
1804,38206,0
1928,38214,0
2029,38216,0
2136,38205,0
2184,38199,0
2272,38208,0
2248,38202,0
2256,38217,0
2140,38216,0
2096,38208,0
1964,38210,0
1861,38217,0
1656,38221,0
1562,38214,0
1480,38218,0
1425,38212,0
1557,38206,0
1507,38217,0
1564,38212,0
1654,38216,0
1712,38219,0
1824,38216,0
1952,38215,0
2128,38209,0
2200,38231,0
2240,38237,0
2260,38238,0
2232,38248,0
2168,38243,0
2072,38259,0
1965,38254,0
1844,38233,0
1732,38241,0
1644,38236,0
1568,38228,0
1538,38227,0
1472,38229,0
1556,38228,0
1562,38225,0
1700,38241,0
1760,38231,0
1919,38243,0
2024,38242,0
2145,38246,0
2160,38237,0
2208,38238,0
2216,38236,0
2184,38251,0
2156,38249,0
2054,38249,0
1944,38252,0
1832,38243,0
1656,38254,0
1560,38249,0
1548,38297,0
1556,38257,0
1576,38286,0
1636,38270,0
1722,38281,0
1828,38241,0
1930,38243,0
2058,38249,0
2156,38253,0
2236,38253,0
2264,38260,0
2268,38253,0
2244,38264,0
2132,38270,0
2092,38270,0
1928,38266,0
1858,38273,0
1712,38281,0
1664,38275,0
1572,38274,0
1444,38282,0
1456,38280,0
1482,38282,0
1536,38288,0
1636,38292,0
1800,38298,0
1984,38292,0
2040,38291,0
2141,38292,0
2186,38304,0
2226,38291,0
2242,38296,0
2268,38359,0
2192,38308,0
2092,38312,0
1986,38310,0
1864,38314,0
1764,38294,0
1668,38300,0
1585,38304,0
1562,38296,0
1553,38299,0
1578,38300,0
1647,38302,0
1730,38303,0
1792,38305,0
1962,38300,0
2040,38296,0
2176,38316,0
2220,38312,0
2298,38326,0
2288,38311,0
2257,38313,0
2128,38320,0
2032,38318,0
1906,38321,0
1792,38328,0
1736,38322,0
1632,38319,0
1588,38319,0
1557,38320,0
1504,38322,0
1557,38329,0
1634,38326,0
1820,38359,0
1944,38328,0
2064,38312,0
2184,38325,0
2288,38334,0
2364,38357,0
2402,38355,0
2420,38351,0
2372,38362,0
2296,38359,0
2192,38364,0
2076,38360,0
1962,38371,0
1788,38361,0
1744,38367,0
1632,38352,0
1644,38349,0
1576,38340,0
1662,38331,0
1712,38340,0
1808,38342,0
1844,38347,0
1957,38347,0
2072,38337,0
2176,38347,0
2316,38349,0
2336,38370,0
2336,38363,0
2298,38346,0
2184,38362,0
2084,38355,0
1952,38359,0
1912,38353,0
1798,38352,0
1704,38373,0
1638,38350,0
1584,38343,0
1586,38356,0
1617,38361,0
1672,38353,0
1762,38363,0
1864,38371,0
1978,38365,0
2102,38367,0
2192,38369,0
2240,38364,0
2302,38366,0
2292,38369,0
2272,38363,0
2176,38370,0
2116,38373,0
1984,38368,0
1876,38363,0
1676,38375,0
1577,38378,0
1514,38363,0
1464,38372,0
1530,38362,0
1562,38378,0
1632,38379,0
1709,38379,0
1776,38378,0
1904,38368,0
2032,38373,0
2192,38395,0
2260,38379,0
2304,38385,0
2336,38381,0
2280,38383,0
2200,38404,0
2104,38400,0
2000,38388,0
1860,38400,0
1762,38404,0
1669,38395,0
1591,38395,0
1568,38386,0
1496,38380,0
1604,38374,0
1616,38372,0
1756,38376,0
1802,38373,0
1972,38369,0
2072,38372,0
2184,38371,0
2178,38368,0
2208,38378,0
2208,38372,0
2140,38373,0
2088,38381,0
1961,38383,0
1816,38380,0
1649,38376,0
1449,38370,0
1328,38377,0
1253,38388,0
1304,38384,0
1260,38382,0
1312,38369,0
1380,38380,0
1456,38402,0
1572,38404,0
1697,38392,0
1832,38379,0
1948,38377,0
2042,38377,0
2116,38376,0
2140,38374,0
2176,38390,0
2124,38375,0
2136,38377,0
2058,38374,0
2074,38383,0
2024,38379,0
2108,38373,0
2184,38379,0
2312,38380,0
2408,38370,0
2601,38375,0
2808,38386,0
3008,38386,0
3200,38376,0
3353,38370,0
3616,38371,0
3565,38386,0
3600,38385,0
3576,38385,0
3520,38375,0
3424,38379,0
3300,38387,0
3156,38386,0
3006,38405,0
2884,38368,0
2760,38406,0
2680,38400,0
2612,38396,0
2592,38403,0
2596,38404,0
2624,38397,0
2672,38381,0
2752,38377,0
2808,38379,0
2904,38385,0
2956,38380,0
3004,38374,0
2996,38381,0
2992,38375,0
2924,38378,0
2832,38383,0
2656,38379,0
2490,38376,0
2316,38386,0
2133,38387,0
2016,38383,0
1878,38374,0
1756,38394,0
1672,38390,0
1600,38385,0
1592,38383,0
1617,38388,0
1778,38408,0
1864,38385,0
1954,38378,0
2046,38394,0
2128,38394,0
2180,38379,0
2212,38386,0
2202,38387,0
2152,38388,0
2082,38384,0
1976,38382,0
1854,38390,0
1740,38388,0
1568,38383,0
1535,38383,0
1416,38389,0
1452,38380,0
1384,38378,0
1484,38382,0
1532,38381,0
1650,38383,0
1672,38385,0
1782,38384,0
1914,38378,0
2024,38385,0
2120,38385,0
2160,38388,0
2152,38382,0
2100,38383,0
1984,38383,0
1868,38394,0
1740,38385,0
1708,38381,0
1597,38389,0
1520,38412,0
1454,38387,0
1417,38411,0
1426,38399,0
1464,38411,0
1536,38406,0
1620,38392,0
1736,38392,0
1858,38377,0
1952,38381,0
2056,38380,0
2080,38378,0
2168,38377,0
2114,38376,0
2112,38384,0
1990,38387,0
1948,38384,0
1804,38377,0
1690,38377,0
1492,38383,0
1400,38378,0
1346,38388,0
1297,38382,0
1388,38381,0
1411,38383,0
1492,38386,0
1579,38389,0
1648,38388,0
1776,38390,0
2068,38392,0
2144,38381,0
2186,38393,0
2172,38401,0
2124,38386,0
2056,38378,0
1940,38378,0
1820,38374,0
1696,38374,0
1592,38374,0
1504,38378,0
1416,38379,0
1404,38377,0
1362,38376,0
1468,38392,0
1476,38382,0
1632,38377,0
1704,38383,0
1880,38378,0
1976,38370,0
2024,38377,0
2100,38379,0
2129,38377,0
2121,38369,0
2080,38388,0
2040,38392,0
1942,38390,0
1800,38381,0
1674,38383,0
1514,38399,0
1408,38399,0
1350,38401,0
1426,38392,0
1442,38389,0
1480,38392,0
1562,38415,0
1652,38395,0
1778,38413,0
1896,38409,0
2005,38406,0
2112,38412,0
2176,38404,0
2228,38397,0
2218,38409,0
2160,38401,0
2044,38407,0
1996,38416,0
1824,38412,0
1754,38415,0
1580,38403,0
1554,38408,0
1472,38414,0
1488,38418,0
1368,38420,0
1424,38416,0
1494,38427,0
1600,38418,0
1758,38412,0
1896,38423,0
2024,38426,0
2098,38421,0
2148,38429,0
2188,38433,0
2186,38424,0
2200,38427,0
2124,38430,0
2024,38421,0
1901,38436,0
1780,38441,0
1680,38458,0
1594,38456,0
1532,38459,0
1500,38449,0
1508,38446,0
1552,38439,0
1624,38442,0
1736,38434,0
1808,38431,0
1976,38430,0
2046,38432,0
2186,38442,0
2212,38431,0
2303,38438,0
2276,38452,0
2232,38443,0
2092,38442,0
1984,38446,0
1868,38434,0
1745,38437,0
1752,38446,0
1606,38442,0
1550,38450,0
1530,38442,0
1482,38440,0
1541,38448,0
1621,38449,0
1828,38439,0
1921,38464,0
2060,38443,0
2180,38460,0
2264,38442,0
2332,38475,0
2360,38470,0
2360,38466,0
2304,38475,0
2228,38465,0
2128,38461,0
1988,38445,0
1900,38429,0
1744,38436,0
1724,38442,0
1637,38426,0
1652,38442,0
1608,38424,0
1714,38430,0
1780,38437,0
1890,38433,0
1936,38433,0
2080,38437,0
2184,38421,0
2284,38416,0
2392,38425,0
2429,38421,0
2444,38430,0
2368,38414,0
2244,38411,0
2136,38404,0
2020,38406,0
1976,38388,0
1880,38406,0
1804,38417,0
1738,38405,0
1722,38397,0
1736,38387,0
1778,38371,0
1861,38362,0
1956,38370,0
2060,38361,0
2180,38364,0
2279,38361,0
2372,38358,0
2400,38347,0
2456,38344,0
2420,38336,0
2400,38323,0
2276,38314,0
2212,38321,0
2082,38315,0
1984,38301,0
1792,38298,0
1712,38285,0
1648,38287,0
1612,38271,0
1681,38278,0
1720,38266,0
1869,38262,0
1894,38267,0
1948,38260,0
2064,38243,0
2178,38248,0
2324,38270,0
2376,38246,0
2400,38263,0
2380,38225,0
2320,38211,0
2224,38217,0
2116,38216,0
1992,38214,0
1880,38207,0
1764,38212,0
1676,38203,0
1608,38200,0
1608,38194,0
1580,38201,0
1668,38195,0
1692,38190,0
1820,38188,0
1896,38183,0
2047,38174,0
2152,38191,0
2232,38176,0
2228,38179,0
2277,38181,0
2232,38173,0
2176,38176,0
2130,38169,0
2012,38175,0
1888,38174,0
1774,38171,0
1600,38173,0
1509,38164,0
1448,38163,0
1528,38174,0
1534,38151,0
1588,38155,0
1652,38159,0
1760,38156,0
1912,38184,0
2008,38163,0
2116,38158,0
2212,38153,0
2264,38155,0
2280,38154,0
2266,38160,0
2224,38145,0
2084,38145,0
2026,38151,0
1856,38142,0
1784,38150,0
1640,38142,0
1600,38151,0
1540,38153,0
1544,38146,0
1440,38146,0
1496,38145,0
1579,38139,0
1688,38152,0
1866,38143,0
1984,38154,0
2096,38150,0
2185,38149,0
2208,38152,0
2240,38148,0
2218,38143,0
2232,38165,0
2160,38160,0
2034,38154,0
1916,38160,0
1796,38152,0
1685,38148,0
1608,38149,0
1546,38147,0
1521,38154,0
1537,38167,0
1594,38157,0
1667,38148,0
1766,38151,0
1832,38160,0
2000,38159,0
2080,38164,0
2204,38169,0
2224,38152,0
2284,38165,0
2264,38166,0
2216,38172,0
2064,38169,0
1948,38165,0
1830,38167,0
1709,38174,0
1664,38174,0
1582,38179,0
1523,38165,0
1508,38173,0
1448,38179,0
1511,38181,0
1592,38179,0
1780,38170,0
1896,38173,0
2024,38175,0
2128,38173,0
2212,38169,0
2280,38166,0
2300,38170,0
2285,38174,0
2224,38162,0
2144,38172,0
2032,38163,0
1902,38179,0
1794,38183,0
1632,38169,0
1620,38182,0
1512,38185,0
1558,38179,0
1496,38186,0
1620,38197,0
1688,38190,0
1800,38191,0
1848,38188,0
1964,38200,0
2080,38193,0
2176,38195,0
2300,38187,0
2297,38197,0
2274,38200,0
2228,38204,0
2092,38202,0
1972,38199,0
1810,38195,0
1721,38195,0
1652,38214,0
1590,38215,0
1572,38184,0
1589,38181,0
1640,38188,0
1724,38193,0
1809,38189,0
1938,38193,0
2056,38190,0
2141,38193,0
2224,38199,0
2264,38191,0
2332,38188,0
2264,38194,0
2240,38196,0
2116,38199,0
2056,38201,0
1920,38201,0
1730,38194,0
1624,38192,0
1540,38195,0
1490,38201,0
1478,38191,0
1548,38199,0
1610,38175,0
1702,38188,0
1808,38197,0
1882,38195,0
2005,38197,0
2120,38184,0
2274,38195,0
2330,38217,0
2362,38188,0
2340,38197,0
2280,38213,0
2198,38204,0
2088,38215,0
1970,38213,0
1848,38209,0
1748,38203,0
1672,38196,0
1613,38203,0
1600,38194,0
1556,38186,0
1668,38183,0
1700,38184,0
1852,38178,0
1928,38179,0
2088,38177,0
2164,38169,0
2260,38172,0
2268,38168,0
2288,38182,0
2264,38185,0
2212,38180,0
2168,38195,0
2045,38183,0
1928,38183,0
1816,38182,0
1664,38180,0
1581,38184,0
1536,38186,0
1624,38183,0
1644,38185,0
1722,38189,0
1792,38191,0
1892,38192,0
2008,38208,0
2136,38213,0
2228,38209,0
2296,38213,0
2356,38211,0
2368,38210,0
2336,38213,0
2278,38201,0
2148,38201,0
2072,38189,0
1904,38183,0
1842,38181,0
1676,38173,0
1660,38194,0
1606,38182,0
1596,38180,0
1532,38180,0
1602,38182,0
1693,38181,0
1798,38176,0
1970,38185,0
2088,38176,0
2192,38180,0
2273,38184,0
2296,38177,0
2304,38174,0
2276,38177,0
2284,38182,0
2184,38199,0
2068,38177,0
1961,38149,0
1849,38169,0
1746,38205,0
1672,38215,0
1628,38195,0
1612,38205,0
1630,38200,0
1684,38191,0
1744,38185,0
1872,38179,0
1938,38159,0
2098,38177,0
2176,38170,0
2304,38167,0
2328,38169,0
2372,38166,0
2336,38174,0
2298,38172,0
2144,38171,0
2017,38170,0
1892,38162,0
1760,38174,0
1704,38171,0
1638,38169,0
1594,38171,0
1589,38171,0
1540,38173,0
1606,38176,0
1693,38171,0
1888,38179,0
2012,38176,0
2116,38143,0
2236,38171,0
2308,38195,0
2364,38169,0
2384,38146,0
2360,38143,0
2296,38151,0
2196,38153,0
2088,38153,0
1974,38142,0
1860,38144,0
1716,38154,0
1684,38155,0
1588,38152,0
1632,38150,0
1588,38151,0
1705,38151,0
1768,38162,0
1900,38155,0
1936,38153,0
2064,38146,0
2172,38142,0
2240,38146,0
2340,38146,0
2342,38133,0
2320,38144,0
2261,38154,0
2120,38144,0
2010,38144,0
1888,38155,0
1864,38153,0
1764,38152,0
1690,38154,0
1656,38147,0
1628,38151,0
1657,38175,0
1706,38170,0
1792,38157,0
1900,38162,0
2008,38151,0
2132,38140,0
2223,38142,0
2302,38131,0
2320,38143,0
2354,38138,0
2296,38130,0
2276,38132,0
2144,38132,0
2076,38128,0
1940,38130,0
1846,38119,0
1664,38134,0
1589,38125,0
1544,38128,0
1538,38125,0
1624,38134,0
1663,38136,0
1765,38126,0
1870,38129,0
1940,38129,0
2064,38134,0
2169,38122,0
2314,38146,0
2352,38127,0
2368,38159,0
2336,38127,0
2272,38129,0
2177,38117,0
2074,38101,0
1960,38110,0
1842,38107,0
1748,38114,0
1680,38121,0
1618,38112,0
1632,38121,0
1600,38121,0
1716,38123,0
1760,38127,0
1908,38127,0
1986,38119,0
2144,38131,0
2236,38133,0
2320,38125,0
2312,38132,0
2322,38139,0
2288,38128,0
2218,38121,0
2160,38123,0
2044,38127,0
1920,38127,0
1806,38118,0
1650,38118,0
1578,38133,0
1530,38121,0
1616,38147,0
1646,38134,0
1708,38132,0
1802,38131,0
1896,38150,0
2020,38152,0
2140,38144,0
2242,38144,0
2320,38136,0
2377,38131,0
2384,38129,0
2359,38125,0
2281,38128,0
2168,38141,0
2100,38125,0
1932,38120,0
1864,38121,0
1732,38130,0
1712,38126,0
1640,38129,0
1664,38135,0
1592,38132,0
1651,38124,0
1736,38127,0
1848,38131,0
2006,38130,0
2130,38132,0
2212,38138,0
2290,38136,0
2296,38139,0
2290,38135,0
2258,38165,0
2168,38143,0
2056,38169,0
1938,38145,0
1840,38144,0
1744,38161,0
1676,38138,0
1636,38144,0
1636,38150,0
1658,38141,0
1732,38138,0
1791,38132,0
1917,38138,0
2001,38132,0
2156,38131,0
2240,38138,0
2336,38154,0
2352,38154,0
2384,38158,0
2344,38150,0
2224,38161,0
2120,38157,0
2006,38162,0
1882,38160,0
1769,38177,0
1720,38160,0
1654,38164,0
1616,38166,0
1614,38164,0
1585,38172,0
1654,38176,0
1748,38183,0
1928,38204,0
2046,38169,0
2168,38179,0
2257,38162,0
2336,38181,0
2384,38195,0
2376,38207,0
2344,38201,0
2292,38213,0
2184,38213,0
2064,38209,0
1930,38215,0
1844,38216,0
1688,38192,0
1696,38197,0
1588,38198,0
1640,38197,0
1624,38187,0
1740,38190,0
1820,38192,0
1944,38196,0
1984,38187,0
2106,38196,0
2208,38196,0
2282,38196,0
2384,38191,0
2363,38205,0
2321,38196,0
2248,38200,0
2116,38198,0
2000,38198,0
1876,38205,0
1864,38204,0
1784,38198,0
1720,38190,0
1706,38205,0
1696,38175,0
1750,38216,0
1816,38220,0
1916,38216,0
2036,38208,0
2152,38201,0
2272,38195,0
2352,38193,0
2448,38177,0
2444,38183,0
2480,38186,0
2416,38200,0
2372,38203,0
2240,38204,0
2149,38207,0
2016,38213,0
1920,38201,0
1744,38213,0
1652,38204,0
1628,38197,0
1617,38210,0
1792,38206,0
1774,38208,0
1866,38212,0
1974,38201,0
2040,38207,0
2168,38199,0
2272,38202,0
2408,38191,0
2442,38212,0
2456,38226,0
2408,38219,0
2328,38204,0
2232,38235,0
2096,38229,0
1978,38217,0
1860,38213,0
1764,38207,0
1700,38198,0
1646,38198,0
1652,38199,0
1625,38193,0
1744,38194,0
1784,38200,0
1948,38196,0
2012,38196,0
2184,38200,0
2264,38198,0
2348,38202,0
2344,38199,0
2340,38197,0
2309,38204,0
2240,38206,0
2184,38205,0
2050,38205,0
1933,38197,0
1826,38205,0
1664,38208,0
1600,38191,0
1561,38197,0
1656,38240,0
1692,38214,0
1768,38228,0
1856,38217,0
1962,38233,0
2073,38228,0
2180,38238,0
2280,38237,0
2364,38227,0
2385,38244,0
2384,38237,0
2344,38217,0
2264,38229,0
2176,38217,0
2072,38214,0
1912,38192,0
1848,38207,0
1704,38199,0
1705,38201,0
1660,38198,0
1673,38198,0
1612,38198,0
1676,38202,0
1760,38209,0
1877,38205,0
2036,38212,0
2134,38211,0
2221,38225,0
2280,38221,0
2256,38226,0
2232,38223,0
2160,38219,0
2124,38230,0
2000,38224,0
1860,38226,0
1714,38237,0
1580,38235,0
1472,38252,0
1408,38233,0
1343,38240,0
1348,38228,0
1376,38203,0
1440,38200,0
1511,38209,0
1656,38208,0
1740,38232,0
1928,38228,0
2016,38228,0
2172,38242,0
2228,38236,0
2312,38231,0
2336,38227,0
2348,38240,0
2280,38233,0
2268,38247,0
2266,38247,0
2304,38241,0
2400,38243,0
2566,38242,0
2600,38237,0
2732,38246,0
2848,38236,0
2994,38238,0
3130,38249,0
3252,38247,0
3344,38246,0
3408,38248,0
3468,38226,0
3472,38252,0
3476,38252,0
3396,38258,0
3320,38247,0
3232,38255,0
3108,38253,0
3008,38254,0
2895,38258,0
2804,38254,0
2720,38251,0
2692,38253,0
2648,38247,0
2672,38261,0
2676,38247,0
2746,38252,0
2794,38259,0
2866,38260,0
2896,38265,0
2952,38257,0
2992,38264,0
2980,38264,0
2962,38265,0
2893,38261,0
2789,38254,0
2648,38255,0
2464,38270,0
2290,38262,0
2112,38258,0
2032,38258,0
1916,38250,0
1828,38294,0
1768,38275,0
1728,38274,0
1744,38273,0
1788,38262,0
1852,38259,0
1936,38264,0
2040,38262,0
2128,38264,0
2200,38277,0
2256,38269,0
2256,38258,0
2280,38274,0
2208,38277,0
2160,38262,0
2012,38275,0
1936,38276,0
1808,38270,0
1708,38275,0
1513,38281,0
1456,38271,0
1410,38273,0
1420,38270,0
1504,38274,0
1584,38274,0
1684,38269,0
1794,38281,0
1860,38291,0
1972,38286,0
2070,38277,0
2208,38283,0
2244,38300,0
2228,38304,0
2181,38281,0
2104,38288,0
1988,38282,0
1866,38292,0
1748,38285,0
1632,38272,0
1552,38285,0
1489,38291,0
1419,38288,0
1456,38289,0
1436,38284,0
1576,38280,0
1632,38293,0
1784,38297,0
1880,38287,0
2026,38296,0
2128,38295,0
2200,38306,0
2168,38298,0
2176,38289,0
2128,38287,0
2034,38299,0
1968,38300,0
1872,38301,0
1732,38297,0
1626,38298,0
1472,38303,0
1446,38303,0
1484,38343,0
1535,38295,0
1604,38308,0
1697,38290,0
1696,38302,0
1920,38314,0
2028,38300,0
2124,38293,0
2192,38302,0
2224,38311,0
2208,38313,0
2159,38317,0
2080,38306,0
1937,38307,0
1856,38322,0
1692,38312,0
1632,38308,0
1497,38309,0
1504,38312,0
1460,38319,0
1394,38311,0
1448,38325,0
1525,38319,0
1638,38309,0
1760,38319,0
1930,38318,0
2044,38328,0
2132,38325,0
2192,38322,0
2192,38324,0
2176,38335,0
2120,38322,0
2100,38343,0
2012,38333,0
1880,38340,0
1764,38334,0
1660,38346,0
1576,38309,0
1524,38315,0
1492,38315,0
1500,38323,0
1552,38321,0
1632,38333,0
1716,38323,0
1844,38340,0
1920,38336,0
2084,38335,0
2140,38336,0
2244,38339,0
2240,38346,0
2256,38338,0
2208,38347,0
2128,38346,0
1952,38343,0
1829,38346,0
1706,38344,0
1604,38345,0
1584,38353,0
1516,38357,0
1484,38345,0
1501,38364,0
1488,38350,0
1576,38366,0
1677,38353,0
1880,38350,0
1996,38360,0
2104,38352,0
2196,38353,0
2264,38332,0
2292,38383,0
2284,38393,0
2229,38383,0
2152,38394,0
2044,38387,0
1924,38391,0
1792,38382,0
1708,38377,0
1576,38381,0
1584,38373,0
1500,38371,0
1570,38373,0
1572,38371,0
1704,38376,0
1790,38369,0
1930,38373,0
1980,38387,0
2112,38379,0
2194,38379,0
2268,38388,0
2338,38387,0
2326,38386,0
2269,38384,0
2184,38380,0
2036,38378,0
1922,38392,0
1805,38391,0
1788,38385,0
1708,38381,0
1644,38389,0
1632,38406,0
1644,38388,0
1698,38384,0
1768,38391,0
1872,38381,0
1984,38383,0
2106,38384,0
2220,38376,0
2311,38386,0
2376,38394,0
2386,38386,0
2408,38385,0
2328,38385,0
2288,38380,0
2144,38378,0
2066,38378,0
1940,38396,0
1860,38377,0
1704,38379,0
1654,38387,0
1628,38371,0
1660,38383,0
1768,38376,0
1840,38371,0
1937,38372,0
2057,38368,0
2148,38366,0
2260,38360,0
2346,38349,0
2472,38384,0
2492,38382,0
2481,38359,0
2434,38348,0
2340,38355,0
2236,38355,0
2124,38337,0
2016,38341,0
1913,38330,0
1838,38323,0
1788,38304,0
1744,38304,0
1778,38298,0
1776,38299,0
1908,38289,0
1956,38279,0
2116,38282,0
2194,38274,0
2316,38267,0
2424,38260,0
2492,38251,0
2472,38235,0
2442,38233,0
2392,38239,0
2314,38225,0
2224,38218,0
2136,38213,0
1997,38211,0
1896,38214,0
1752,38206,0
1693,38201,0
1672,38195,0
1776,38189,0
1808,38197,0
1876,38187,0
1976,38210,0
2080,38188,0
2184,38182,0
2284,38166,0
2373,38163,0
2420,38162,0
2440,38149,0
2416,38148,0
2348,38139,0
2264,38144,0
2112,38135,0
2036,38133,0
1872,38133,0
1816,38126,0
1676,38134,0
1666,38125,0
1640,38117,0
1658,38115,0
1600,38113,0
1681,38106,0
1770,38112,0
1888,38112,0
2056,38106,0
2156,38116,0
2268,38099,0
2304,38099,0
2288,38098,0
2274,38099,0
2212,38098,0
2184,38119,0
2084,38080,0
1960,38107,0
1844,38080,0
1737,38115,0
1668,38104,0
1596,38100,0
1588,38077,0
1586,38065,0
1648,38075,0
1720,38065,0
1819,38065,0
1946,38058,0
2024,38069,0
2168,38073,0
2226,38057,0
2328,38078,0
2316,38073,0
2328,38071,0
2265,38079,0
2184,38071,0
2002,38074,0
1876,38076,0
1742,38086,0
1634,38070,0
1592,38069,0
1550,38074,0
1522,38065,0
1524,38075,0
1530,38075,0
1600,38076,0
1705,38074,0
1916,38059,0
2022,38067,0
2128,38079,0
2213,38068,0
2272,38077,0
2298,38087,0
2274,38085,0
2232,38070,0
2144,38078,0
2042,38070,0
1924,38073,0
1806,38071,0
1736,38070,0
1578,38073,0
1596,38075,0
1520,38086,0
1580,38078,0
1580,38073,0
1722,38066,0
1812,38083,0
1940,38076,0
1992,38088,0
2096,38087,0
2198,38082,0
2256,38085,0
2314,38090,0
2288,38091,0
2240,38091,0
2134,38088,0
1968,38097,0
1832,38090,0
1721,38090,0
1704,38093,0
1620,38086,0
1570,38108,0
1534,38126,0
1568,38075,0
1626,38069,0
1708,38084,0
1812,38098,0
1924,38104,0
2045,38092,0
2156,38108,0
2228,38097,0
2296,38103,0
2280,38109,0
2296,38096,0
2202,38104,0
2146,38113,0
2000,38104,0
1928,38103,0
1808,38108,0
1720,38112,0
1544,38105,0
1489,38112,0
1474,38107,0
1488,38111,0
1612,38109,0
1693,38108,0
1805,38110,0
1924,38121,0
1992,38118,0
2116,38121,0
2320,38137,0
2344,38122,0
2328,38118,0
2272,38120,0
2177,38110,0
2068,38104,0
1960,38109,0
1840,38108,0
1738,38114,0
1660,38103,0
1610,38112,0
1579,38116,0
1604,38117,0
1616,38113,0
1748,38122,0
1808,38106,0
1972,38116,0
2046,38119,0
2188,38116,0
2266,38121,0
2274,38120,0
2304,38105,0
2276,38112,0
2212,38116,0
2113,38121,0
2044,38112,0
1918,38113,0
1792,38120,0
1700,38120,0
1568,38117,0
1513,38115,0
1488,38125,0
1616,38137,0
1684,38115,0
1756,38128,0
1860,38114,0
1992,38136,0
2112,38116,0
2226,38120,0
2312,38121,0
2368,38131,0
2392,38131,0
2368,38124,0
2293,38124,0
2216,38099,0
2064,38102,0
1984,38103,0
1824,38102,0
1756,38116,0
1616,38107,0
1628,38109,0
1592,38111,0
1622,38121,0
1590,38123,0
1677,38127,0
1794,38127,0
1913,38119,0
2084,38126,0
2188,38124,0
2261,38139,0
2325,38137,0
2304,38142,0
2284,38140,0
2224,38133,0
2216,38131,0
2080,38146,0
1978,38166,0
1868,38142,0
1769,38120,0
1706,38165,0
1650,38159,0
1622,38155,0
1652,38150,0
1701,38151,0
1780,38154,0
1865,38141,0
2000,38153,0
2064,38146,0
2210,38155,0
2264,38151,0
2344,38153,0
2346,38166,0
2336,38150,0
2280,38165,0
2208,38161,0
2024,38162,0
1904,38160,0
1800,38155,0
1698,38161,0
1677,38162,0
1628,38164,0
1596,38164,0
1619,38172,0
1624,38154,0
1704,38163,0
1810,38168,0
1996,38166,0
2104,38193,0
2208,38162,0
2276,38184,0
2320,38176,0
2324,38158,0
2298,38140,0
2232,38148,0
2136,38154,0
2024,38153,0
1912,38162,0
1803,38168,0
1712,38159,0
1592,38159,0
1616,38163,0
1556,38183,0
1648,38164,0
1657,38166,0
1812,38169,0
1890,38164,0
2040,38169,0
2082,38161,0
2184,38165,0
2272,38165,0
2310,38163,0
2356,38167,0
2390,38171,0
2244,38167,0
2157,38171,0
1984,38172,0
1848,38158,0
1732,38165,0
1728,38152,0
1660,38152,0
1616,38179,0
1606,38187,0
1633,38158,0
1696,38157,0
1777,38157,0
1884,38151,0
2000,38159,0
2112,38157,0
2216,38154,0
2280,38155,0
2340,38155,0
2312,38147,0
2316,38163,0
2210,38155,0
2156,38148,0
1996,38145,0
1924,38145,0
1808,38149,0
1724,38148,0
1574,38144,0
1520,38139,0
1522,38143,0
1538,38142,0
1666,38142,0
1736,38139,0
1856,38142,0
1980,38139,0
2056,38144,0
2164,38131,0
2253,38140,0
2352,38138,0
2360,38135,0
2336,38131,0
2276,38136,0
2168,38137,0
2058,38151,0
1930,38147,0
1816,38145,0
1724,38146,0
1656,38131,0
1612,38125,0
1585,38127,0
1636,38130,0
1650,38130,0
1792,38120,0
1856,38121,0
2012,38125,0
2092,38130,0
2234,38135,0
2300,38131,0
2360,38129,0
2304,38133,0
2272,38124,0
2196,38135,0
2096,38128,0
2026,38124,0
1912,38131,0
1777,38136,0
1688,38122,0
1552,38125,0
1504,38128,0
1496,38131,0
1612,38133,0
1680,38136,0
1752,38138,0
1858,38150,0
1978,38149,0
2092,38135,0
2208,38137,0
2281,38133,0
2336,38138,0
2352,38133,0
2322,38133,0
2265,38132,0
2174,38138,0
2024,38139,0
1940,38135,0
1792,38136,0
1744,38148,0
1616,38145,0
1636,38145,0
1588,38143,0
1634,38145,0
1588,38149,0
1683,38147,0
1792,38151,0
1910,38148,0
2080,38146,0
2176,38144,0
2254,38149,0
2378,38149,0
2280,38157,0
2253,38151,0
2193,38141,0
2162,38167,0
2056,38178,0
1938,38181,0
1826,38172,0
1736,38145,0
1673,38137,0
1622,38147,0
1612,38142,0
1610,38148,0
1702,38149,0
1788,38143,0
1885,38147,0
2024,38155,0
2096,38155,0
2244,38163,0
2292,38164,0
2384,38158,0
2372,38169,0
2370,38174,0
2300,38168,0
2228,38161,0
2064,38175,0
1946,38177,0
1829,38185,0
1739,38191,0
1726,38182,0
1680,38182,0
1681,38183,0
1710,38182,0
1720,38180,0
1800,38179,0
2100,38217,0
2212,38183,0
2300,38187,0
2384,38187,0
2416,38168,0
2416,38191,0
2384,38175,0
2314,38190,0
2208,38185,0
2116,38198,0
2006,38186,0
1877,38187,0
1802,38188,0
1680,38202,0
1700,38191,0
1644,38204,0
1730,38186,0
1744,38191,0
1886,38202,0
1976,38192,0
2024,38193,0
2141,38195,0
2225,38204,0
2289,38195,0
2325,38192,0
2338,38198,0
2294,38196,0
2211,38199,0
2106,38211,0
1936,38206,0
1812,38190,0
1708,38212,0
1712,38240,0
1656,38222,0
1622,38202,0
1626,38178,0
1664,38205,0
1724,38237,0
1828,38235,0
1936,38223,0
2040,38235,0
2156,38219,0
2240,38212,0
2303,38208,0
2352,38221,0
2321,38221,0
2312,38219,0
2210,38225,0
2152,38225,0
1984,38217,0
1922,38216,0
1796,38213,0
1724,38224,0
1560,38227,0
1536,38220,0
1539,38223,0
1568,38235,0
1712,38226,0
1798,38229,0
1900,38213,0
2020,38224,0
2080,38230,0
2188,38235,0
2248,38227,0
2348,38240,0
2348,38238,0
2304,38214,0
2226,38235,0
2128,38248,0
2024,38254,0
1900,38263,0
1796,38259,0
1701,38268,0
1632,38270,0
1600,38261,0
1589,38249,0
1634,38239,0
1632,38240,0
1770,38242,0
1820,38241,0
1956,38237,0
2002,38240,0
2106,38241,0
2136,38243,0
2152,38246,0
2056,38249,0
1977,38251,0
1876,38250,0
1756,38240,0
1677,38248,0
1555,38253,0
1445,38244,0
1314,38252,0
1220,38257,0
1216,38250,0
1243,38242,0
1432,38239,0
1542,38277,0
1672,38257,0
1837,38275,0
2016,38251,0
2194,38279,0
2352,38288,0
2504,38283,0
2632,38286,0
2740,38291,0
2816,38285,0
2856,38286,0
2904,38288,0
2896,38280,0
2900,38276,0
2874,38263,0
2856,38273,0
2808,38268,0
2784,38265,0
2752,38273,0
2744,38266,0
2706,38276,0
2716,38265,0
2772,38272,0
2840,38266,0
2936,38272,0
3028,38274,0
3096,38264,0
3164,38279,0
3184,38277,0
3186,38270,0
3152,38274,0
3120,38297,0
3056,38272,0
2960,38288,0
2881,38296,0
2784,38281,0
2716,38304,0
2648,38312,0
2596,38309,0
2568,38323,0
2568,38317,0
2576,38298,0
2598,38284,0
2618,38279,0
2628,38284,0
2676,38285,0
2664,38284,0
2648,38295,0
2572,38285,0
2512,38282,0
2376,38281,0
2256,38291,0
2040,38286,0
1889,38285,0
