1544,35565,0
1535,35580,0
1552,35570,0
1604,35576,0
1664,35602,0
1756,35617,0
1852,35594,0
1952,35585,0
2036,35579,0
2104,35573,0
2144,35603,0
2139,35604,0
2129,35562,0
2028,35596,0
2008,35587,0
1872,35601,0
1818,35628,0
1672,35622,0
1648,35596,0
1584,35605,0
1574,35607,0
1442,35609,0
1461,35627,0
1512,35604,0
1593,35613,0
1733,35600,0
1824,35610,0
1932,35639,0
2022,35627,0
2032,35593,0
2088,35623,0
2096,35611,0
2148,35606,0
2098,35623,0
2024,35606,0
1937,35638,0
1844,35609,0
1756,35610,0
1670,35615,0
1616,35613,0
1578,35650,0
1577,35636,0
1604,35612,0
1637,35618,0
1720,35621,0
1744,35631,0
1904,35646,0
1952,35628,0
2080,35630,0
2112,35631,0
2228,35631,0
2184,35644,0
2184,35651,0
2049,35618,0
1970,35636,0
1874,35627,0
1784,35635,0
1740,35659,0
1637,35651,0
1606,35603,0
1566,35639,0
1500,35623,0
1513,35627,0
1585,35662,0
1756,35632,0
1856,35636,0
1948,35628,0
2047,35634,0
2132,35635,0
2224,35624,0
2236,35618,0
2248,35621,0
2228,35655,0
2204,35638,0
2112,35627,0
2002,35618,0
1920,35627,0
1780,35658,0
1772,35655,0
1656,35611,0
1673,35635,0
1616,35631,0
1704,35641,0
1736,35662,0
1824,35643,0
1826,35629,0
1933,35631,0
2020,35622,0
2120,35636,0
2228,35653,0
2272,35602,0
2268,35615,0
2252,35616,0
2152,35622,0
2080,35647,0
1988,35622,0
1968,35611,0
1880,35597,0
1808,35604,0
1768,35584,0
1736,35583,0
1738,35582,0
1768,35588,0
1818,35605,0
1889,35594,0
1976,35559,0
2074,35566,0
2169,35554,0
2256,35559,0
2280,35566,0
2362,35524,0
2336,35524,0
2344,35518,0
2252,35498,0
2210,35512,0
2124,35512,0
2032,35454,0
1880,35460,0
1800,35443,0
1754,35425,0
1720,35448,0
1780,35441,0
1801,35386,0
1864,35391,0
1936,35377,0
1968,35380,0
2066,35371,0
2176,35345,0
2320,35302,0
2380,35328,0
2404,35302,0
2408,35283,0
2378,35290,0
2322,35254,0
2236,35247,0
2152,35240,0
2056,35249,0
1965,35236,0
1884,35181,0
1821,35179,0
1791,35169,0
1740,35161,0
1826,35171,0
1804,35138,0
1928,35133,0
1957,35121,0
2104,35107,0
2156,35123,0
2252,35131,0
2248,35076,0
2256,35096,0
2284,35080,0
2228,35078,0
2202,35093,0
2204,35098,0
2016,35058,0
1915,35063,0
1768,35066,0
1688,35060,0
1645,35077,0
1720,35052,0
1716,35051,0
1736,35059,0
1784,35065,0
1852,35019,0
1945,35046,0
2032,35041,0
2100,35049,0
2212,35062,0
2228,35053,0
2260,35042,0
2250,35030,0
2208,35030,0
2096,35043,0
2064,35054,0
1914,35035,0
1864,35024,0
1732,35033,0
1696,35035,0
1640,35049,0
1616,35058,0
1514,35019,0
1543,35033,0
1606,35029,0
1689,35034,0
1778,35056,0
1928,35047,0
1989,35014,0
2092,35028,0
2112,35035,0
2136,35032,0
2168,34954,0
2112,35051,0
2036,35031,0
1936,35060,0
1840,35006,0
1762,35048,0
1674,35035,0
1630,35048,0
1616,35075,0
1612,35063,0
1637,35049,0
1677,35055,0
1772,35040,0
1816,35058,0
1968,35062,0
2012,35038,0
2128,35046,0
2140,35028,0
2200,35029,0
2192,35055,0
2096,35035,0
2024,34995,0
1932,35014,0
1858,35000,0
1736,35009,0
1659,35020,0
1638,35014,0
1584,34987,0
1564,34979,0
1504,34972,0
1538,34984,0
1608,34987,0
1788,34954,0
1880,34929,0
1970,34952,0
2060,34935,0
2140,34951,0
2184,34949,0
2216,34940,0
2208,34903,0
2184,34904,0
2116,34899,0
2028,34895,0
1939,34897,0
1844,34914,0
1738,34857,0
1688,34863,0
1568,34853,0
1616,34853,0
1564,34874,0
1660,34862,0
1698,34813,0
1802,34833,0
1793,34823,0
1904,34823,0
1992,34845,0
2074,34843,0
2192,34806,0
2200,34818,0
2162,34817,0
2156,34809,0
2036,34833,0
1956,34813,0
1850,34797,0
1856,34796,0
1769,34800,0
1700,34801,0
1657,34774,0
1636,34795,0
1648,34788,0
1685,34816,0
1744,34800,0
1832,34785,0
1924,34793,0
2021,34786,0
2091,34795,0
2180,34817,0
2192,34800,0
2248,34791,0
2197,34792,0
2210,34794,0
2084,34815,0
2047,34824,0
1952,34793,0
1868,34797,0
1684,34806,0
1622,34797,0
1584,34818,0
1561,34829,0
1648,34809,0
1680,34806,0
1706,34809,0
1828,34815,0
1857,34834,0
1961,34834,0
2054,34803,0
2200,34821,0
2248,34846,0
2272,34822,0
2244,34837,0
2212,34836,0
2138,34853,0
2056,34846,0
1960,34850,0
1872,34877,0
1786,34896,0
1714,34863,0
1648,34886,0
1660,34880,0
1617,34894,0
1728,34914,0
1728,34935,0
1856,34934,0
1912,34921,0
2056,34926,0
2132,34946,0
2208,34958,0
2188,34986,0
2209,34963,0
2204,34978,0
2156,34990,0
2128,34994,0
2026,35035,0
1928,35034,0
1839,35001,0
1698,35032,0
1628,35040,0
1584,35048,0
1668,35067,0
1672,35036,0
1708,35073,0
1786,35090,0
1844,35108,0
1948,35091,0
2040,35098,0
2128,35090,0
2200,35111,0
2276,35145,0
2258,35130,0
2246,35114,0
2200,35128,0
2088,35117,0
2058,35136,0
1920,35154,0
1872,35136,0
1740,35142,0
1732,35145,0
1650,35142,0
1660,35167,0
1584,35179,0
1610,35158,0
1682,35160,0
1764,35152,0
1920,35154,0
2018,35192,0
2101,35203,0
2170,35170,0
2176,35171,0
2196,35180,0
2176,35174,0
2196,35187,0
2120,35193,0
2040,35181,0
1938,35190,0
1844,35223,0
1764,35235,0
1693,35205,0
1654,35224,0
1648,35230,0
1661,35219,0
1696,35237,0
1781,35265,0
1856,35265,0
1892,35265,0
2056,35282,0
2088,35281,0
2208,35315,0
2210,35327,0
2256,35314,0
2236,35332,0
2212,35343,0
2042,35348,0
1952,35386,0
1846,35390,0
1744,35367,0
1804,35402,0
1666,35406,0
1620,35419,0
1618,35456,0
1568,35462,0
1640,35433,0
1686,35458,0
1872,35490,0
1968,35492,0
2068,35504,0
2156,35507,0
2216,35515,0
2260,35537,0
2268,35550,0
2256,35559,0
2200,35596,0
2118,35591,0
2032,35591,0
1924,35599,0
1848,35605,0
1704,35623,0
1700,35652,0
1604,35635,0
1642,35643,0
1600,35642,0
1708,35660,0
1768,35694,0
1872,35707,0
1880,35694,0
1977,35694,0
2072,35713,0
2152,35725,0
2240,35740,0
2266,35760,0
2236,35751,0
2196,35751,0
2064,35771,0
1972,35766,0
1876,35784,0
1868,35776,0
1784,35787,0
1725,35807,0
1688,35782,0
1668,35816,0
1685,35824,0
1730,35858,0
1804,35817,0
1880,35839,0
1972,35834,0
2072,35849,0
2140,35883,0
2224,35883,0
2224,35849,0
2288,35876,0
2232,35877,0
2224,35885,0
2104,35920,0
2052,35903,0
1944,35886,0
1856,35902,0
1680,35905,0
1612,35924,0
1572,35943,0
1545,35945,0
1640,35926,0
1684,35935,0
1760,35932,0
1850,35948,0
1890,35969,0
1984,35960,0
2084,35959,0
2228,35963,0
2264,35999,0
2276,35968,0
2244,36009,0
2188,36018,0
2116,35987,0
2032,36002,0
1928,36006,0
1836,36016,0
1760,36041,0
1696,36030,0
1654,36008,0
1650,36020,0
1620,36024,0
1738,36042,0
1752,36042,0
1890,36007,0
1944,36022,0
2080,36026,0
2154,36010,0
2240,36039,0
2212,36056,0
2212,36022,0
2192,36023,0
2128,36028,0
2098,36027,0
1998,36043,0
1897,36058,0
1805,36012,0
1648,36040,0
1590,36028,0
1652,36090,0
1672,36034,0
1730,36057,0
1804,36042,0
1892,36022,0
1992,36027,0
2088,36040,0
2176,36046,0
2240,36063,0
2280,36059,0
2288,36033,0
2254,36051,0
2216,36042,0
2096,36048,0
2036,36081,0
1892,36074,0
1848,36038,0
1716,36053,0
1716,36043,0
1660,36056,0
1560,36075,0
1588,36085,0
1652,36057,0
1712,36063,0
1810,36077,0
1960,36075,0
2058,36097,0
2144,36091,0
2209,36073,0
2200,36075,0
2213,36081,0
2189,36093,0
2204,36090,0
2121,36090,0
2016,36101,0
1928,36104,0
1840,36114,0
1754,36113,0
1704,36104,0
1676,36115,0
1668,36143,0
1696,36125,0
1752,36125,0
1798,36126,0
1914,36136,0
1960,36165,0
2108,36167,0
2156,36132,0
2240,36154,0
2252,36151,0
2298,36166,0
2248,36192,0
2200,36199,0
2048,36149,0
1954,36182,0
1856,36188,0
1748,36186,0
1704,36221,0
1664,36227,0
1637,36206,0
1630,36221,0
1600,36220,0
1642,36232,0
1716,36244,0
1912,36247,0
2004,36252,0
2088,36274,0
2180,36249,0
2244,36266,0
2292,36268,0
2288,36289,0
2296,36315,0
2210,36312,0
2134,36272,0
2036,36299,0
1925,36302,0
1850,36314,0
1706,36346,0
1706,36341,0
1618,36306,0
1668,36339,0
1646,36338,0
1749,36349,0
1796,36373,0
1908,36374,0
1928,36353,0
2032,36371,0
2120,36373,0
2192,36375,0
2272,36385,0
2280,36401,0
2246,36386,0
2200,36375,0
2056,36384,0
1944,36397,0
1856,36400,0
1840,36383,0
1746,36414,0
1700,36393,0
1668,36392,0
1680,36416,0
1700,36428,0
1752,36408,0
1832,36385,0
1924,36401,0
2024,36395,0
2117,36402,0
2185,36431,0
2288,36411,0
2256,36390,0
2302,36403,0
2240,36395,0
2208,36401,0
2090,36430,0
2028,36422,0
1928,36390,0
1857,36403,0
1666,36400,0
1610,36400,0
1588,36420,0
1584,36412,0
1682,36378,0
1736,36393,0
1843,36396,0
1930,36388,0
1968,36421,0
2076,36409,0
2162,36370,0
2288,36404,0
2328,36380,0
2320,36398,0
2276,36384,0
2216,36415,0
2168,36385,0
2056,36378,0
1960,36372,0
1856,36378,0
1773,36393,0
1720,36369,0
1668,36363,0
1696,36370,0
1672,36365,0
1789,36372,0
1808,36392,0
1940,36366,0
2016,36349,0
2152,36352,0
2224,36355,0
2284,36345,0
2264,36372,0
2256,36371,0
2208,36327,0
2152,36346,0
2098,36343,0
2008,36335,0
1907,36335,0
1832,36360,0
1680,36338,0
1628,36320,0
1600,36318,0
1700,36327,0
1734,36306,0
1788,36322,0
1876,36297,0
1960,36314,0
2052,36313,0
2178,36300,0
2228,36296,0
2296,36325,0
2328,36311,0
2322,36269,0
2283,36288,0
2224,36288,0
2096,36271,0
2047,36309,0
1896,36304,0
1852,36278,0
1712,36274,0
1716,36272,0
1666,36271,0
1704,36281,0
1624,36292,0
1688,36278,0
1776,36270,0
1873,36254,0
2028,36260,0
2114,36271,0
2200,36289,0
2262,36286,0
2256,36250,0
2253,36270,0
2212,36265,0
2216,36282,0
2134,36278,0
2036,36257,0
1944,36287,0
1850,36286,0
1782,36249,0
1728,36259,0
1692,36263,0
1700,36259,0
1736,36291,0
1800,36293,0
1856,36252,0
1968,36267,0
2016,36266,0
2156,36266,0
2208,36286,0
2292,36284,0
2292,36263,0
2324,36268,0
2280,36260,0
2228,36277,0
2065,36282,0
1984,36293,0
1877,36249,0
1804,36269,0
1790,36262,0
1756,36269,0
1740,36282,0
1766,36299,0
1740,36278,0
1808,36276,0
1898,36266,0
2076,36277,0
2176,36273,0
2264,36290,0
2336,36248,0
2388,36280,0
2408,36280,0
2392,36308,0
2360,36313,0
2282,36275,0
2192,36291,0
2100,36287,0
1976,36288,0
1912,36304,0
1780,36310,0
1790,36279,0
1720,36303,0
1764,36292,0
1749,36300,0
1856,36332,0
1924,36326,0
2028,36302,0
2050,36304,0
2150,36313,0
2225,36309,0
2284,36310,0
2338,36336,0
2336,36342,0
2292,36305,0
2226,36323,0
2080,36325,0
1976,36326,0
1862,36404,0
1786,36340,0
1744,36310,0
1712,36356,0
1716,36331,0
1756,36366,0
1828,36322,0
1900,36334,0
2004,36354,0
2106,36349,0
2204,36371,0
2271,36378,0
2332,36355,0
2325,36370,0
2356,36361,0
2272,36369,0
2250,36388,0
2112,36398,0
2064,36379,0
1940,36381,0
1781,36368,0
1716,36383,0
1653,36389,0
1633,36412,0
1644,36414,0
1730,36375,0
1796,36389,0
1868,36386,0
1960,36395,0
2000,36415,0
2104,36427,0
2180,36416,0
2302,36452,0
2332,36385,0
2322,36416,0
2280,36417,0
2216,36419,0
2128,36397,0
2032,36413,0
1948,36416,0
1864,36422,0
1786,36453,0
1740,36448,0
1712,36425,0
1736,36435,0
1728,36434,0
1832,36428,0
1844,36445,0
1984,36457,0
2032,36456,0
2153,36419,0
2192,36428,0
2228,36441,0
2148,36449,0
2114,36460,0
2028,36466,0
1928,36438,0
1852,36446,0
1730,36440,0
1608,36445,0
1520,36462,0
1364,36481,0
1296,36467,0
1288,36452,0
1420,36452,0
1458,36473,0
1540,36461,0
1624,36458,0
1768,36455,0
1912,36435,0
2040,36454,0
2168,36447,0
2288,36454,0
2376,36479,0
2448,36475,0
2480,36453,0
2544,36458,0
2552,36461,0
2624,36459,0
2648,36468,0
2740,36479,0
2800,36478,0
2876,36456,0
2936,36462,0
3016,36449,0
3056,36466,0
3108,36493,0
3168,36486,0
3217,36453,0
3256,36452,0
3280,36461,0
3284,36465,0
3272,36492,0
3264,36486,0
3180,36448,0
3114,36455,0
3052,36460,0
2974,36468,0
2888,36462,0
2812,36480,0
2724,36465,0
2682,36462,0
2640,36466,0
2624,36493,0
2616,36490,0
2624,36458,0
2632,36472,0
2679,36464,0
2712,36468,0
2728,36479,0
2784,36495,0
2768,36488,0
2770,36472,0
2704,36466,0
2656,36461,0
2528,36465,0
2420,36505,0
2200,36499,0
2060,36457,0
1910,36477,0
1788,36465,0
1756,36475,0
1677,36503,0
1640,36490,0
1644,36459,0
1618,36469,0
1684,36470,0
1766,36480,0
1948,36469,0
2038,36495,0
2132,36467,0
2201,36484,0
2240,36488,0
2252,36477,0
2236,36478,0
2192,36475,0
2100,36487,0
2012,36508,0
1908,36475,0
1790,36480,0
1720,36480,0
1600,36475,0
1608,36483,0
1530,36518,0
1601,36509,0
1602,36476,0
1712,36489,0
1788,36486,0
1913,36490,0
1906,36516,0
1992,36510,0
2080,36488,0
2128,36487,0
2184,36499,0
2184,36491,0
2101,36494,0
2028,36530,0
1876,36524,0
1771,36483,0
1672,36498,0
1680,36509,0
1632,36496,0
1578,36512,0
1552,36505,0
1564,36519,0
1640,36513,0
1696,36504,0
1796,36507,0
1880,36505,0
1984,36509,0
2100,36528,0
2120,36529,0
2200,36488,0
2160,36515,0
2186,36512,0
2096,36499,0
2056,36528,0
1912,36539,0
1856,36524,0
1752,36505,0
1680,36510,0
1496,36503,0
1454,36508,0
1453,36535,0
1474,36530,0
1568,36504,0
1656,36508,0
1760,36515,0
1859,36514,0
1909,36507,0
2006,36536,0
2085,36534,0
2208,36536,0
2221,36520,0
2196,36520,0
2152,36518,0
2072,36500,0
1982,36503,0
1888,36504,0
1784,36541,0
1706,36533,0
1638,36490,0
1604,36509,0
1579,36509,0
1616,36510,0
1604,36540,0
1740,36540,0
1768,36499,0
1932,36511,0
1972,36508,0
2112,36509,0
2164,36513,0
2228,36547,0
2168,36532,0
2152,36493,0
2084,36505,0
1996,36508,0
1940,36503,0
1861,36526,0
1752,36534,0
1674,36515,0
1544,36514,0
1506,36508,0
1496,36508,0
1624,36542,0
1676,36519,0
1744,36527,0
1832,36520,0
1924,36526,0
2016,36509,0
2104,36517,0
2178,36528,0
2204,36549,0
2224,36529,0
2196,36516,0
2128,36521,0
2064,36512,0
1920,36524,0
1882,36550,0
1768,36539,0
1720,36511,0
1592,36519,0
1621,36516,0
1600,36516,0
1644,36544,0
1592,36548,0
1676,36500,0
1773,36523,0
1880,36518,0
2025,36527,0
2120,36533,0
2192,36547,0
2236,36541,0
2200,36515,0
2176,36528,0
2112,36528,0
2120,36513,0
2016,36533,0
1920,36553,0
1824,36532,0
1744,36557,0
1692,36511,0
1648,36535,0
1650,36532,0
1672,36537,0
1732,36548,0
1812,36564,0
1877,36556,0
1992,36537,0
2041,36540,0
2176,36535,0
2194,36546,0
2296,36571,0
2260,36561,0
2280,36521,0
2208,36550,0
2140,36548,0
1968,36549,0
1872,36581,0
1773,36580,0
1688,36537,0
1648,36545,0
1667,36554,0
1656,36545,0
1697,36575,0
1696,36580,0
1768,36546,0
2064,36586,0
2152,36587,0
2240,36558,0
2318,36576,0
2356,36585,0
2364,36566,0
2336,36569,0
2280,36563,0
2200,36580,0
2116,36598,0
2012,36592,0
1916,36549,0
1864,36572,0
1744,36567,0
1778,36574,0
1712,36608,0
1792,36597,0
1788,36550,0
1936,36581,0
2004,36578,0
2056,36574,0
2164,36601,0
2245,36588,0
2313,36577,0
2360,36562,0
2394,36583,0
2372,36565,0
2314,36587,0
2236,36600,0
2104,36596,0
1992,36565,0
1896,36570,0
1912,36586,0
1846,36564,0
1824,36600,0
1824,36581,0
1848,36579,0
1908,36553,0
1982,36569,0
2076,36560,0
2176,36566,0
2272,36575,0
2352,36587,0
2415,36576,0
2458,36557,0
2424,36555,0
2440,36554,0
2336,36565,0
2289,36578,0
2200,36562,0
2100,36559,0
2020,36560,0
1932,36556,0
1784,36548,0
1746,36580,0
1747,36569,0
1765,36535,0
1869,36544,0
1946,36549,0
2032,36537,0
2134,36552,0
2184,36560,0
2272,36535,0
2326,36538,0
2416,36525,0
2425,36554,0
2392,36531,0
2320,36530,0
2240,36523,0
2140,36544,0
2024,36526,0
1930,36516,0
1850,36518,0
1788,36518,0
1748,36548,0
1728,36541,0
1762,36490,0
1764,36517,0
1916,36506,0
1928,36501,0
2076,36530,0
2108,36536,0
2264,36505,0
2280,36507,0
2314,36501,0
2242,36505,0
2213,36507,0
2144,36526,0
2048,36524,0
2018,36482,0
1892,36500,0
1801,36488,0
1717,36496,0
1600,36514,0
1568,36514,0
1564,36493,0
1696,36494,0
1758,36473,0
1824,36493,0
1916,36500,0
2000,36492,0
2105,36511,0
2172,36533,0
2244,36517,0
2272,36493,0
2264,36500,0
2236,36491,0
2164,36495,0
2068,36526,0
1928,36527,0
1872,36496,0
1736,36500,0
1712,36504,0
1592,36511,0
1624,36530,0
1600,36529,0
1658,36494,0
1608,36503,0
1696,36513,0
1786,36508,0
1890,36527,0
2038,36541,0
2134,36521,0
2168,36514,0
2204,36524,0
2148,36523,0
2112,36521,0
2048,36548,0
2046,36521,0
1938,36537,0
1840,36532,0
1760,36535,0
1680,36533,0
1636,36533,0
1608,36533,0
1614,36535,0
1640,36570,0
1722,36562,0
1800,36518,0
1891,36544,0
1996,36550,0
2058,36544,0
2148,36573,0
2194,36574,0
2260,36557,0
2210,36547,0
2208,36556,0
2120,36552,0
2056,36560,0
1868,36591,0
1776,36581,0
1677,36546,0
1594,36566,0
1592,36558,0
1584,36568,0
1588,36566,0
1634,36590,0
1626,36586,0
1713,36550,0
1816,36570,0
2010,36571,0
2096,36551,0
2178,36581,0
2238,36564,0
2264,36595,0
2268,36580,0
2220,36572,0
2156,36571,0
2060,36561,0
1962,36566,0
1869,36602,0
1760,36589,0
1696,36552,0
1580,36580,0
1628,36570,0
1574,36577,0
1664,36590,0
1668,36606,0
1808,36580,0
1888,36573,0
2004,36574,0
2020,36571,0
2112,36585,0
2166,36597,0
2188,36606,0
2228,36564,0
2186,36584,0
2121,36571,0
2032,36572,0
1876,36575,0
1760,36604,0
1680,36597,0
1716,36572,0
1660,36574,0
1648,36579,0
1658,36557,0
1702,36604,0
1764,36565,0
1844,36568,0
1942,36581,0
2036,36594,0
2144,36585,0
2224,36555,0
2263,36565,0
2292,36566,0
2248,36563,0
2244,36587,0
2144,36582,0
2082,36540,0
1936,36568,0
1892,36559,0
1768,36563,0
1722,36554,0
1562,36586,0
1532,36588,0
1546,36546,0
1586,36554,0
1720,36548,0
1794,36559,0
1893,36567,0
2005,36573,0
2044,36569,0
2120,36535,0
2180,36557,0
2280,36556,0
2269,36516,0
2232,36546,0
2160,36554,0
2072,36561,0
1977,36577,0
1874,36541,0
1796,36549,0
1737,36536,0
1686,36534,0
1664,36551,0
1669,36566,0
1720,36553,0
1745,36529,0
1872,36546,0
1936,36536,0
2080,36539,0
2124,36563,0
2240,36561,0
2272,36519,0
2312,36546,0
2234,36536,0
2180,36534,0
2097,36551,0
2001,36565,0
1957,36551,0
1845,36531,0
1760,36534,0
1698,36527,0
1569,36544,0
1556,36555,0
1564,36554,0
1728,36533,0
1784,36551,0
1868,36545,0
1978,36515,0
2076,36524,0
2176,36548,0
2248,36556,0
2296,36520,0
2320,36531,0
2312,36526,0
2260,36520,0
2200,36533,0
2088,36552,0
1944,36541,0
1900,36505,0
1768,36517,0
1736,36522,0
1632,36528,0
1686,36543,0
1673,36548,0
1724,36520,0
1708,36522,0
1796,36520,0
1890,36510,0
2000,36523,0
2138,36546,0
2210,36534,0
2265,36499,0
2292,36520,0
2229,36513,0
2192,36517,0
2096,36516,0
1996,36514,0
1898,36526,0
1824,36502,0
1748,36524,0
1708,36500,0
1688,36512,0
1702,36510,0
1740,36515,0
1808,36521,0
1876,36540,0
1964,36536,0
2088,36507,0
2128,36512,0
2244,36502,0
2260,36521,0
2308,36529,0
2256,36529,0
2248,36503,0
2156,36514,0
2000,36503,0
1904,36503,0
1794,36523,0
1720,36537,0
1628,36522,0
1659,36500,0
1634,36511,0
1656,36508,0
1718,36513,0
1712,36529,0
1800,36537,0
1912,36500,0
2104,36516,0
2192,36499,0
2256,36504,0
2310,36521,0
2320,36503,0
2300,36497,0
2260,36526,0
2184,36523,0
2088,36509,0
1993,36496,0
1904,36504,0
1805,36497,0
1744,36514,0
1650,36526,0
1688,36528,0
1656,36489,0
1752,36503,0
1768,36503,0
1904,36506,0
1988,36535,0
2096,36529,0
2104,36498,0
2176,36514,0
2216,36501,0
2236,36519,0
2264,36517,0
2212,36534,0
2130,36511,0
2032,36503,0
1888,36506,0
1786,36503,0
1717,36520,0
1744,36497,0
1706,36521,0
1704,36483,0
1714,36510,0
1753,36526,0
1840,36505,0
1916,36503,0
2014,36522,0
2112,36535,0
2208,36523,0
2272,36506,0
2303,36521,0
2336,36523,0
2272,36521,0
2276,36532,0
2146,36539,0
2088,36487,0
1940,36523,0
1904,36517,0
1800,36513,0
1749,36526,0
1616,36545,0
1590,36540,0
1616,36493,0
1674,36519,0
1796,36517,0
1892,36516,0
1992,36545,0
2096,36548,0
2136,36507,0
2208,36523,0
2256,36516,0
2336,36530,0
2303,36515,0
2260,36542,0
2174,36502,0
2088,36506,0
1986,36520,0
1884,36532,0
1818,36549,0
1754,36547,0
1720,36507,0
1704,36520,0
1703,36513,0
1776,36530,0
1800,36539,0
1938,36545,0
2000,36552,0
2136,36525,0
2192,36532,0
2292,36526,0
2320,36522,0
2336,36542,0
2252,36559,0
2192,36544,0
2124,36520,0
2016,36534,0
1954,36527,0
1866,36531,0
1785,36558,0
1736,36553,0
1632,36513,0
1612,36526,0
1628,36523,0
1788,36535,0
1852,36508,0
1944,36559,0
2047,36532,0
2144,36551,0
2224,36533,0
2296,36528,0
2344,36530,0
2360,36540,0
2328,36557,0
2298,36548,0
2179,36523,0
2092,36544,0
1952,36523,0
1900,36537,0
1772,36549,0
1764,36554,0
1656,36509,0
1713,36531,0
1716,36529,0
1789,36539,0
1764,36542,0
1862,36556,0
1964,36542,0
2080,36521,0
2228,36525,0
2272,36512,0
2312,36522,0
2348,36557,0
2264,36543,0
2202,36505,0
2112,36522,0
2088,36525,0
2000,36525,0
1900,36523,0
1820,36522,0
1760,36518,0
1736,36533,0
1720,36518,0
1744,36513,0
1800,36511,0
1872,36519,0
1964,36544,0
2033,36547,0
2152,36498,0
2192,36525,0
2292,36506,0
2304,36520,0
2344,36522,0
2280,36545,0
2260,36547,0
2168,36505,0
2088,36530,0
1896,36529,0
1809,36517,0
1716,36539,0
1656,36551,0
1680,36522,0
1692,36526,0
1716,36527,0
1776,36530,0
1788,36526,0
1888,36553,0
1992,36546,0
2160,36519,0
2248,36550,0
2320,36515,0
2342,36548,0
2352,36540,0
2326,36541,0
2264,36558,0
2188,36561,0
2096,36524,0
1988,36542,0
1906,36546,0
1800,36540,0
1764,36556,0
1684,36571,0
1736,36552,0
1712,36541,0
1814,36552,0
1844,36545,0
1984,36547,0
2080,36572,0
2176,36575,0
2196,36534,0
2264,36564,0
2304,36553,0
2304,36563,0
2308,36575,0
2245,36588,0
2156,36576,0
2060,36553,0
1904,36562,0
1811,36567,0
1724,36563,0
1754,36559,0
1733,36570,0
1721,36581,0
1758,36580,0
1802,36557,0
1880,36579,0
1996,36576,0
2076,36577,0
2170,36580,0
2260,36599,0
2328,36605,0
2355,36558,0
2388,36588,0
2288,36577,0
2290,36582,0
2148,36593,0
2128,36614,0
1946,36588,0
1908,36578,0
1828,36584,0
1772,36585,0
1640,36592,0
1648,36616,0
1666,36619,0
1728,36580,0
1848,36586,0
1948,36594,0
2046,36582,0
2145,36602,0
2176,36621,0
2251,36627,0
2345,36617,0
2322,36586,0
2264,36624,0
2200,36591,0
2104,36623,0
2024,36599,0
1944,36589,0
1880,36598,0
1840,36614,0
1826,36626,0
1828,36583,0
1848,36602,0
1924,36597,0
1948,36602,0
2092,36611,0
2130,36633,0
2276,36629,0
2302,36602,0
2404,36601,0
2416,36594,0
2344,36610,0
2316,36628,0
2248,36627,0
2154,36596,0
2052,36609,0
1992,36598,0
1906,36608,0
1828,36623,0
1785,36623,0
1688,36613,0
1692,36599,0
1724,36602,0
1876,36606,0
1946,36623,0
2042,36592,0
2137,36615,0
2236,36606,0
2306,36590,0
2368,36592,0
2405,36601,0
2400,36598,0
2344,36627,0
2288,36621,0
2192,36581,0
2100,36593,0
1956,36591,0
1928,36589,0
1800,36598,0
1788,36622,0
1712,36600,0
1749,36595,0
1770,36588,0
1832,36584,0
1810,36595,0
1920,36610,0
2024,36612,0
2120,36571,0
2250,36589,0
2300,36587,0
2340,36583,0
2336,36603,0
2264,36615,0
2208,36598,0
2116,36572,0
2096,36606,0
2010,36580,0
1932,36583,0
1868,36554,0
1824,36588,0
1804,36616,0
1802,36598,0
1834,36574,0
1888,36577,0
1962,36582,0
2036,36582,0
2135,36604,0
2212,36593,0
2249,36557,0
2332,36579,0
2336,36562,0
2352,36569,0
2304,36580,0
2256,36608,0
2160,36598,0
2088,36563,0
1904,36573,0
1804,36572,0
1736,36578,0
1691,36597,0
1716,36596,0
1720,36547,0
1736,36569,0
1784,36567,0
1784,36568,0
1861,36584,0
1936,36593,0
2082,36578,0
2132,36566,0
2160,36562,0
2172,36551,0
2140,36581,0
2082,36572,0
1996,36561,0
1908,36567,0
1800,36592,0
1704,36590,0
1622,36545,0
1544,36564,0
1528,36556,0
1456,36558,0
1568,36599,0
1584,36594,0
1744,36556,0
1828,36557,0
2024,36565,0
2196,36559,0
2400,36569,0
2532,36593,0
2704,36588,0
2872,36545,0
3024,36576,0
3144,36564,0
3220,36571,0
3264,36585,0
3250,36594,0
3216,36576,0
3154,36573,0
3088,36570,0
3032,36585,0
2940,36577,0
2876,36590,0
2844,36577,0
2832,36566,0
2848,36595,0
2904,36589,0
2956,36568,0
3034,36569,0
3092,36573,0
3168,36578,0
3208,36599,0
3252,36600,0
3232,36561,0
3200,36576,0
3120,36577,0
3048,36578,0
2936,36587,0
2848,36616,0
2744,36593,0
2672,36581,0
2560,36582,0
2512,36586,0
2468,36591,0
2464,36615,0
2498,36612,0
2518,36567,0
2561,36589,0
2584,36581,0
2564,36590,0
2564,36586,0
2533,36617,0
2532,36599,0
2456,36606,0
2368,36568,0
2252,36610,0
2132,36590,0
2032,36593,0
1928,36589,0
1858,36628,0
1800,36630,0
1778,36588,0
1777,36611,0
1799,36604,0
1864,36602,0
1892,36628,0
2036,36632,0
2088,36618,0
2208,36605,0
2244,36613,0
2328,36611,0
2320,36609,0
2330,36645,0
2208,36651,0
2136,36607,0
2038,36625,0
1944,36632,0
1892,36619,0
1816,36637,0
1746,36644,0
1701,36615,0
1612,36622,0
1628,36632,0
1665,36629,0
1820,36644,0
1888,36632,0
1984,36656,0
2074,36647,0
2148,36656,0
2212,36631,0
2268,36634,0
2285,36661,0
2268,36668,0
2228,36639,0
2156,36642,0
2056,36642,0
1980,36647,0
1832,36655,0
1812,36682,0
1696,36661,0
1714,36639,0
1636,36645,0
1720,36652,0
1752,36648,0
1824,36671,0
1820,36674,0
1905,36663,0
1993,36645,0
2096,36654,0
2208,36650,0
2250,36654,0
2268,36676,0
2258,36670,0
2160,36641,0
2088,36654,0
2006,36654,0
1984,36639,0
1904,36658,0
1820,36669,0
1738,36632,0
1718,36677,0
1704,36668,0
1722,36647,0
1768,36658,0
1840,36659,0
1920,36652,0
2004,36682,0
2100,36680,0
2208,36657,0
2240,36653,0
2328,36656,0
2314,36649,0
2356,36669,0
2256,36682,0
2216,36678,0
2116,36632,0
2024,36651,0
1852,36659,0
1768,36647,0
1702,36655,0
1668,36682,0
1698,36669,0
1720,36639,0
1764,36651,0
1832,36646,0
1864,36640,0
1976,36668,0
2056,36675,0
2224,36633,0
2328,36652,0
2348,36658,0
2360,36655,0
2344,36654,0
2324,36660,0
2232,36666,0
2168,36679,0
2040,36680,0
1960,36638,0
1876,36655,0
1807,36656,0
1770,36655,0
1706,36648,0
1780,36681,0
1768,36681,0
1896,36628,0
1928,36643,0
2084,36651,0
2160,36645,0
2272,36667,0
2258,36673,0
2317,36676,0
2336,36623,0
2316,36654,0
2300,36649,0
2244,36647,0
2164,36674,0
2076,36676,0
1936,36656,0
1861,36645,0
1848,36660,0
1844,36673,0
1866,36658,0
1904,36657,0
1969,36664,0
2056,36642,0
2160,36646,0
2256,36657,0
2322,36678,0
2408,36671,0
2448,36643,0
2464,36648,0
2444,36651,0
2372,36646,0
2338,36662,0
2216,36674,0
2164,36675,0
2024,36625,0
2000,36643,0
1932,36640,0
1824,36646,0
1820,36662,0
1836,36667,0
1888,36640,0
1962,36653,0
2096,36640,0
2192,36639,0
2288,36643,0
2376,36676,0
2388,36668,0
2454,36633,0
2460,36641,0
2496,36660,0
2448,36641,0
2392,36641,0
2312,36673,0
2220,36659,0
2132,36645,0
2068,36642,0
2024,36652,0
1977,36667,0
1986,36665,0
1996,36628,0
2029,36651,0
2114,36643,0
2160,36635,0
2296,36660,0
2356,36670,0
2472,36658,0
2508,36633,0
2580,36639,0
2584,36639,0
2576,36645,0
2480,36667,0
2418,36661,0
2346,36622,0
2268,36638,0
2240,36643,0
2153,36639,0
2102,36658,0
2070,36674,0
2024,36625,0
2049,36636,0
2086,36639,0
2240,36643,0
2324,36652,0
2408,36642,0
2498,36634,0
2580,36657,0
2634,36637,0
2682,36646,0
2686,36665,0
2672,36665,0
2636,36631,0
2576,36640,0
2485,36642,0
2392,36640,0
2284,36659,0
2252,36657,0
2154,36629,0
2168,36632,0
2128,36632,0
2188,36624,0
2224,36639,0
2302,36654,0
2324,36646,0
2422,36623,0
2521,36629,0
2612,36620,0
2704,36626,0
2748,36640,0
2756,36633,0
2745,36608,0
2648,36616,0
2576,36615,0
2480,36614,0
2436,36620,0
2352,36617,0
2284,36619,0
2217,36607,0
2184,36643,0
2172,36601,0
2184,36610,0
2232,36625,0
2290,36635,0
2368,36606,0
2456,36609,0
2527,36606,0
2600,36597,0
2640,36604,0
2686,36624,0
2660,36612,0
2648,36574,0
2548,36594,0
2504,36594,0
2408,36592,0
2330,36623,0
2176,36614,0
2100,36580,0
2042,36598,0
2008,36582,0
2056,36588,0
2082,36605,0
2128,36615,0
2192,36605,0
2240,36577,0
2336,36582,0
2422,36589,0
2552,36569,0
2616,36586,0
2640,36599,0
2634,36596,0
2604,36563,0
2538,36594,0
2460,36610,0
2362,36574,0
2264,36584,0
2174,36579,0
2096,36577,0
2029,36582,0
2016,36612,0
1980,36596,0
2044,36569,0
2064,36575,0
2180,36579,0
2216,36574,0
2352,36611,0
2424,36609,0
2506,36566,0
2512,36572,0
2533,36576,0
2544,36580,0
2512,36589,0
2488,36606,0
2406,36576,0
2315,36573,0
2232,36567,0
2096,36573,0
2028,36579,0
1968,36601,0
2028,36589,0
2025,36565,0
2060,36597,0
2130,36569,0
2200,36582,0
2276,36570,0
2376,36572,0
2464,36584,0
2540,36600,0
2602,36597,0
2640,36572,0
2648,36572,0
2608,36578,0
2553,36582,0
2449,36603,0
2356,36602,0
2296,36562,0
2164,36592,0
2128,36581,0
2060,36574,0
2047,36613,0
1976,36602,0
2005,36576,0
2064,36588,0
2150,36587,0
2308,36577,0
2385,36602,0
2480,36609,0
2568,36596,0
2600,36577,0
2628,36579,0
2630,36589,0
2640,36592,0
2584,36586,0
2506,36616,0
2400,36620,0
2316,36593,0
2224,36618,0
2148,36580,0
2090,36588,0
2072,36586,0
2065,36590,0
2082,36598,0
2140,36628,0
2224,36613,0
2272,36586,0
2392,36601,0
2468,36595,0
2576,36605,0
2608,36632,0
2666,36625,0
2664,36579,0
2656,36601,0
2544,36605,0
2472,36595,0
2388,36618,0
2304,36634,0
2208,36617,0
2208,36603,0
2156,36601,0
2136,36607,0
2088,36606,0
2106,36639,0
2176,36635,0
2312,36613,0
2408,36604,0
2488,36640,0
2570,36597,0
2640,36613,0
2700,36612,0
2732,36643,0
2732,36635,0
2700,36599,0
2634,36623,0
2559,36616,0
2464,36619,0
2376,36639,0
2266,36641,0
2232,36625,0
2144,36619,0
2160,36612,0
2128,36618,0
2200,36612,0
2248,36644,0
2336,36639,0
2380,36604,0
2469,36625,0
2552,36627,0
2648,36630,0
2720,36637,0
2752,36655,0
2748,36646,0
2722,36624,0
2632,36625,0
2552,36625,0
2464,36630,0
2424,36652,0
2352,36628,0
2284,36629,0
2242,36633,0
2216,36628,0
2196,36647,0
2257,36644,0
2300,36649,0
2368,36615,0
2458,36634,0
2552,36634,0
2655,36635,0
2696,36656,0
2725,36655,0
2772,36610,0
2744,36635,0
2736,36636,0
2656,36636,0
2616,36651,0
2512,36660,0
2456,36625,0
2304,36639,0
2253,36627,0
2208,36640,0
2180,36651,0
2240,36661,0
2272,36653,0
2328,36619,0
2394,36639,0
2448,36631,0
2548,36641,0
2732,36669,0
2780,36646,0
2800,36654,0
2792,36647,0
2752,36654,0
2696,36670,0
2616,36676,0
2536,36662,0
2440,36635,0
2364,36651,0
2312,36654,0
2267,36648,0
2256,36675,0
2232,36672,0
2312,36632,0
2336,36655,0
2432,36653,0
2496,36657,0
2624,36664,0
2696,36676,0
2724,36682,0
2770,36647,0
2804,36651,0
2792,36655,0
2752,36664,0
2712,36685,0
2628,36694,0
2540,36651,0
2458,36670,0
2320,36654,0
2256,36669,0
2212,36692,0
2264,36669,0
2276,36680,0
2320,36682,0
2366,36678,0
2432,36684,0
2526,36675,0
2616,36695,0
2690,36701,0
2752,36669,0
2800,36680,0
2816,36680,0
2804,36678,0
2776,36682,0
2704,36709,0
2632,36695,0
2512,36672,0
2456,36682,0
2344,36681,0
2320,36684,0
2272,36698,0
2272,36709,0
2200,36707,0
2249,36677,0
2313,36690,0
2388,36696,0
2532,36697,0
2624,36716,0
2704,36717,0
2774,36676,0
2800,36692,0
2818,36697,0
2800,36688,0
2792,36685,0
2730,36716,0
2642,36681,0
2554,36733,0
2452,36707,0
2376,36722,0
2316,36733,0
2277,36734,0
2264,36687,0
2280,36713,0
2316,36721,0
2367,36708,0
2444,36725,0
2504,36745,0
2632,36733,0
2696,36702,0
2778,36707,0
2820,36716,0
2864,36707,0
2856,36745,0
2824,36732,0
2728,36705,0
2636,36723,0
2552,36728,0
2456,36722,0
2416,36733,0
2360,36748,0
2320,36746,0
2298,36727,0
2264,36726,0
2304,36720,0
2368,36731,0
2494,36706,0
2588,36728,0
2668,36734,0
2748,36748,0
2812,36742,0
2856,36727,0
2864,36727,0
2848,36736,0
2812,36751,0
2753,36758,0
2672,36735,0
2573,36731,0
2500,36730,0
2385,36726,0
2364,36730,0
2292,36762,0
2320,36752,0
2300,36718,0
2376,36733,0
2424,36738,0
2520,36736,0
2548,36760,0
2652,36758,0
2746,36742,0
2792,36741,0
2876,36748,0
2892,36737,0
2880,36755,0
2848,36765,0
2756,36765,0
2673,36731,0
2576,36740,0
2544,36715,0
2456,36753,0
2392,36738,0
2360,36766,0
2346,36756,0
2352,36738,0
2388,36750,0
2430,36740,0
2512,36748,0
2608,36760,0
2682,36771,0
2766,36755,0
2840,36737,0
2860,36748,0
2900,36746,0
2872,36754,0
2864,36779,0
2768,36776,0
2696,36735,0
2624,36754,0
2554,36758,0
2432,36754,0
2368,36771,0
2368,36774,0
2320,36751,0
2384,36751,0
2414,36753,0
2477,36760,0
2556,36757,0
2624,36781,0
2728,36774,0
2794,36738,0
2896,36773,0
2924,36749,0
2944,36778,0
2920,36764,0
2872,36727,0
2808,36775,0
2728,36788,0
2632,36775,0
2544,36747,0
2474,36766,0
2432,36762,0
2366,36757,0
2384,36784,0
2368,36799,0
2440,36772,0
2464,36773,0
2580,36762,0
2636,36763,0
2744,36779,0
2812,36791,0
2876,36772,0
2880,36763,0
2888,36768,0
2882,36758,0
2840,36776,0
2808,36788,0
2736,36780,0
2660,36760,0
2592,36773,0
2496,36768,0
2464,36774,0
2444,36796,0
2496,36788,0
2524,36781,0
2564,36786,0
2636,36769,0
2716,36778,0
2784,36778,0
2868,36771,0
2936,36772,0
2992,36814,0
3034,36806,0
3028,36757,0
3011,36779,0
2946,36790,0
2872,36775,0
2792,36793,0
2688,36810,0
2624,36814,0
2528,36775,0
2506,36787,0
2464,36786,0
2472,36787,0
2440,36815,0
2482,36811,0
2552,36769,0
2652,36783,0
2744,36784,0
2821,36789,0
2896,36824,0
2949,36814,0
2960,36774,0
2964,36796,0
2928,36797,0
2920,36799,0
2840,36768,0
2746,36808,0
2656,36783,0
2572,36799,0
2492,36821,0
2424,36817,0
2392,36788,0
2384,36798,0
2400,36785,0
2460,36798,0
2493,36815,0
2576,36822,0
2624,36787,0
2738,36800,0
2784,36799,0
2856,36791,0
2872,36809,0
2916,36826,0
2872,36808,0
2842,36794,0
2744,36795,0
2656,36799,0
2572,36802,0
2480,36834,0
2448,36826,0
2392,36804,0
2356,36808,0
2360,36811,0
2328,36805,0
2368,36816,0
2432,36846,0
2568,36819,0
2640,36783,0
2728,36820,0
2788,36812,0
2844,36809,0
2872,36819,0
2882,36816,0
2864,36840,0
2804,36848,0
2736,36805,0
2652,36821,0
2553,36808,0
2488,36816,0
2378,36819,0
2368,36841,0
2304,36836,0
2332,36816,0
2320,36823,0
2384,36817,0
2436,36819,0
2512,36851,0
2536,36847,0
2616,36802,0
2674,36831,0
2712,36819,0
2744,36821,0
2720,36861,0
2661,36849,0
2586,36834,0
2456,36828,0
2340,36822,0
2202,36863,0
2126,36852,0
2064,36823,0
2028,36843,0
2016,36839,0
2056,36830,0
2108,36843,0
2176,36835,0
2264,36839,0
2372,36864,0
2496,36853,0
2606,36817,0
2716,36842,0
2776,36846,0
2864,36840,0
2904,36848,0
2948,36868,0
2952,36856,0
3000,36839,0
3048,36849,0
3080,36853,0
3152,36849,0
3240,36877,0
3312,36876,0
3396,36832,0
3464,36854,0
3532,36852,0
3582,36850,0
3648,36882,0
3648,36877,0
3649,36856,0
3648,36860,0
3620,36863,0
3620,36858,0
3568,36885,0
3518,36864,0
3458,36865,0
3412,36888,0
3360,36889,0
3313,36861,0
3280,36856,0
3264,36867,0
3260,36870,0
3264,36879,0
3264,36894,0
3282,36864,0
3304,36867,0
3328,36865,0
3360,36873,0
3380,36865,0
3408,36891,0
3400,36892,0
3380,36855,0
3312,36878,0
3250,36874,0
3160,36868,0
3032,36898,0
2912,36900,0
2780,36899,0
2642,36868,0
2528,36871,0
2400,36878,0
2357,36885,0
2276,36906,0
2328,36880,0
2336,36883,0
2372,36883,0
2420,36899,0
2476,36900,0
2544,36863,0
2616,36886,0
2672,36883,0
2704,36885,0
2716,36907,0
2712,36907,0
2668,36903,0
2640,36884,0
2520,36886,0
2460,36892,0
2344,36887,0
2292,36905,0
2200,36923,0
2178,36912,0
2156,36880,0
2164,36894,0
2120,36876,0
2160,36892,0
2230,36898,0
2306,36909,0
2418,36895,0
2497,36887,0
2560,36895,0
2608,36886,0
2592,36883,0
2592,36917,0
2552,36901,0
2552,36896,0
2476,36901,0
2400,36864,0
2310,36891,0
2242,36891,0
2186,36898,0
2136,36878,0
2156,36888,0
2124,36887,0
2152,36890,0
2208,36920,0
2261,36913,0
2338,36881,0
2385,36892,0
2492,36888,0
2528,36890,0
2608,36912,0
2604,36926,0
2618,36886,0
2580,36899,0
2528,36900,0
2404,36891,0
2314,36892,0
2220,36914,0
2156,36913,0
2144,36880,0
2120,36895,0
2064,36898,0
2074,36890,0
2068,36923,0
2129,36917,0
2188,36882,0
2340,36894,0
2430,36901,0
2496,36920,0
2572,36905,0
2600,36877,0
2632,36890,0
2616,36888,0
2576,36914,0
2520,36918,0
2432,36893,0
2352,36898,0
2264,36892,0
2192,36885,0
2096,36907,0
2096,36918,0
2040,36919,0
2072,36885,0
2072,36905,0
2176,36880,0
2232,36894,0
2312,36922,0
2340,36926,0
2417,36876,0
2488,36892,0
2537,36901,0
2592,36896,0
2587,36913,0
2552,36920,0
2498,36919,0
2400,36901,0
2304,36903,0
2225,36899,0
2210,36912,0
2157,36910,0
2120,36908,0
2104,36891,0
2104,36877,0
2145,36915,0
2196,36911,0
2256,36905,0
2344,36941,0
2416,36940,0
2500,36903,0
2532,36912,0
2584,36920,0
2568,36912,0
2600,36933,0
2528,36952,0
2496,36927,0
2392,36920,0
2344,36924,0
2256,36925,0
2200,36925,0
2060,36958,0
2022,36946,0
2005,36910,0
2028,36936,0
2105,36929,0
2160,36923,0
2228,36943,0
2308,36961,0
2348,36950,0
2434,36923,0
2488,36933,0
2592,36938,0
2604,36940,0
2592,36922,0
2553,36958,0
2496,36924,0
2436,36934,0
2348,36934,0
2276,36935,0
2208,36932,0
2152,36969,0
2128,36963,0
2135,36918,0
2120,36933,0
2104,36932,0
2200,36932,0
2224,36949,0
2348,36964,0
2388,36948,0
2496,36941,0
2556,36940,0
2608,36944,0
2578,36945,0
2576,36966,0
2542,36968,0
2480,36929,0
2440,36935,0
2362,36933,0
2288,36942,0
2238,36950,0
2120,36964,0
2080,36961,0
2076,36931,0
2156,36947,0
2200,36961,0
2244,36946,0
2324,36965,0
2400,36929,0
2484,36949,0
2556,36947,0
2616,36938,0
2652,36965,0
2672,36974,0
2664,36947,0
2616,36938,0
2568,36933,0
2468,36942,0
2424,36936,0
2312,36969,0
2280,36962,0
2184,36923,0
2208,36943,0
2184,36933,0
2216,36937,0
2176,36953,0
2232,36964,0
2304,36960,0
2400,36923,0
2516,36937,0
2580,36936,0
2648,36938,0
2688,36960,0
2672,36969,0
2672,36917,0
2616,36933,0
2548,36966,0
2472,36950,0
2388,36929,0
2328,36941,0
2284,36945,0
2244,36957,0
2236,36959,0
2264,36953,0
2292,36923,0
2344,36934,0
2408,36931,0
2496,36932,0
2548,36953,0
2656,36956,0
2680,36922,0
2736,36925,0
2736,36920,0
2738,36928,0
2696,36934,0
2600,36963,0
2524,36944,0
2434,36914,0
2344,36927,0
2274,36927,0
2272,36918,0
2219,36946,0
2197,36943,0
2210,36943,0
2192,36912,0
2252,36916,0
2320,36924,0
2448,36893,0
2520,36924,0
2576,36912,0
2618,36930,0
2644,36894,0
2648,36905,0
2636,36931,0
2584,36925,0
2528,36913,0
2436,36906,0
2362,36916,0
2279,36894,0
2200,36907,0
2112,36926,0
2120,36918,0
1932,36877,0
2112,36897,0
2092,36887,0
2188,36900,0
2228,36919,0
2320,36925,0
2328,36911,0
2400,36878,0
2458,36894,0
2484,36892,0
2556,36882,0
2513,36910,0
2472,36918,0
2406,36883,0
2292,36884,0
2209,36891,0
2132,36897,0
2136,36893,0
2076,36902,0
2046,36905,0
2037,36911,0
2032,36892,0
2072,36884,0
2120,36905,0
2177,36902,0
2256,36869,0
2324,36891,0
2392,36887,0
2445,36882,0
2484,36882,0
2464,36909,0
2480,36901,0
2404,36873,0
2368,36880,0
2248,36878,0
2204,36886,0
2128,36891,0
2064,36907,0
1924,36899,0
1888,36877,0
1880,36885,0
1894,36878,0
1980,36880,0
2040,36899,0
2113,36894,0
2192,36861,0
2228,36869,0
2296,36881,0
2360,36877,0
2456,36879,0
2448,36888,0
2440,36907,0
2393,36879,0
2336,36896,0
2252,36901,0
2168,36909,0
2092,36892,0
2024,36867,0
1974,36879,0
1952,36883,0
1916,36878,0
1954,36912,0
1952,36905,0
2064,36887,0
2080,36891,0
2193,36884,0
2248,36883,0
2344,36894,0
2392,36913,0
2434,36907,0
2372,36876,0
2352,36897,0
2304,36883,0
2234,36893,0
2196,36913,0
2105,36906,0
2025,36877,0
1964,36892,0
1849,36881,0
1808,36893,0
1808,36884,0
1918,36907,0
1964,36903,0
2016,36904,0
2096,36903,0
2176,36901,0
2268,36920,0
2329,36874,0
2388,36886,0
2420,36880,0
2422,36901,0
2396,36914,0
2349,36911,0
2290,36874,0
2176,36909,0
2124,36899,0
2008,36894,0
2000,36900,0
1864,36922,0
1904,36898,0
1868,36889,0
1912,36895,0
1860,36887,0
1922,36907,0
2002,36929,0
2082,36916,0
2216,36884,0
2280,36906,0
2332,36894,0
2365,36899,0
2324,36908,0
2308,36926,0
2256,36920,0
2252,36892,0
2168,36920,0
2088,36904,0
2016,36888,0
1952,36917,0
1912,36894,0
1880,36911,0
1878,36901,0
1900,36910,0
1940,36924,0
2008,36924,0
2052,36887,0
2146,36908,0
2192,36901,0
2290,36906,0
2320,36930,0
2364,36935,0
2336,36891,0
2354,36911,0
2298,36902,0
2244,36913,0
2092,36929,0
2006,36928,0
1924,36911,0
1852,36904,0
1856,36911,0
1830,36902,0
1825,36913,0
1841,36932,0
1834,36936,0
1898,36899,0
1965,36916,0
2140,36908,0
2208,36905,0
2264,36912,0
2320,36936,0
2348,36891,0
2340,36913,0
2330,36903,0
2276,36947,0
2210,36941,0
2128,36897,0
2060,36913,0
1969,36909,0
1920,36911,0
1824,36931,0
1848,36939,0
1800,36945,0
1866,36911,0
1876,36918,0
1976,36925,0
2032,36918,0
2136,36934,0
2130,36947,0
2196,36924,0
2241,36923,0
2256,36921,0
2312,36919,0
2276,36920,0
2218,36959,0
2156,36947,0
2016,36914,0
1930,36928,0
1856,36924,0
1872,36926,0
1826,36913,0
1792,36936,0
1804,36940,0
1812,36945,0
1857,36933,0
1920,36941,0
1988,36957,0
2072,36930,0
2144,36933,0
2200,36932,0
2251,36938,0
2284,36952,0
2248,36956,0
2252,36970,0
2180,36924,0
2144,36944,0
2016,36937,0
1973,36953,0
1888,36981,0
1842,36968,0
1700,36936,0
1680,36943,0
1685,36935,0
1708,36949,0
1812,36956,0
1872,36977,0
1944,36964,0
2028,36944,0
2052,36951,0
2122,36949,0
2156,36955,0
2252,36960,0
2256,36946,0
2220,36985,0
2168,36966,0
2088,36950,0
2008,36959,0
1924,36950,0
1856,36988,0
1784,36986,0
1754,36945,0
1716,36972,0
1724,36958,0
1768,36962,0
1752,36977,0
1866,36995,0
1904,36988,0
2024,36968,0
2040,36972,0
2160,36967,0
2184,36962,0
2228,36992,0
2137,36988,0
2112,36949,0
2056,36973,0
1978,36964,0
1940,36964,0
1857,36984,0
1779,36991,0
1718,36994,0
1612,36965,0
1596,36976,0
1728,36997,0
1769,36963,0
1832,36968,0
1912,36968,0
1984,36952,0
2066,36976,0
2128,36976,0
2176,36989,0
2188,37007,0
2184,36997,0
2146,36974,0
2088,36982,0
2024,36974,0
1880,36976,0
1856,37007,0
1744,37008,0
1736,36959,0
1637,36980,0
1672,36989,0
1664,36984,0
1600,37013,0
1652,37003,0
1718,36961,0
1800,36995,0
1884,36986,0
2008,36992,0
2076,36994,0
2120,37012,0
2144,36995,0
2088,36980,0
2060,36994,0
1992,36982,0
2009,36997,0
1930,37013,0
1848,36985,0
1777,36976,0
1708,37003,0
1692,36992,0
1657,37017,0
1664,37019,0
1683,36974,0
1736,36980,0
1786,36981,0
1855,36985,0
1944,36993,0
1968,37016,0
2072,36987,0
2073,36985,0
2128,36985,0
2076,36984,0
2088,36995,0
2024,37011,0
1956,37001,0
1792,36982,0
1700,36980,0
1616,36986,0
1555,36974,0
1664,37008,0
1565,37005,0
1582,36974,0
1596,36989,0
1584,36990,0
1652,36984,0
1732,37009,0
1900,36990,0
1980,36995,0
2036,36950,0
2088,36991,0
2088,36987,0
2096,36978,0
2052,36970,0
1992,36988,0
1920,37016,0
1840,37008,0
1748,36971,0
1663,36970,0
1624,36978,0
1510,36979,0
1554,37002,0
1512,37001,0
1592,36967,0
1589,36981,0
1712,36979,0
1780,36976,0
1874,36998,0
1864,37011,0
1928,37000,0
1958,36968,0
1984,36975,0
2036,36967,0
1979,36969,0
1924,37002,0
1850,37003,0
1708,36960,0
1632,36975,0
1552,36976,0
1600,36983,0
1564,36976,0
1546,36995,0
1570,36999,0
1600,36979,0
1664,36963,0
1720,36975,0
1792,36974,0
1872,36974,0
1949,36993,0
1992,36994,0
2020,36976,0
2064,36979,0
1992,36980,0
1986,36974,0
1884,36976,0
1852,37000,0
1720,36986,0
1688,36953,0
1600,36983,0
1554,36977,0
1402,36979,0
1380,36983,0
1396,36993,0
1426,36994,0
1538,36977,0
1612,36976,0
1686,36975,0
1774,36982,0
1780,37006,0
1836,37005,0
1880,36962,0
1976,36967,0
1952,36976,0
1900,36991,0
1832,36992,0
1757,36986,0
1666,37013,0
1572,36999,0
1492,36959,0
1424,36982,0
1380,36984,0
1346,36981,0
1352,37001,0
1392,37004,0
1369,37007,0
1497,36968,0
1520,36985,0
1668,36981,0
1668,36983,0
1796,37010,0
1820,37007,0
1849,36965,0
1748,36982,0
1704,36979,0
1640,36985,0
1556,36987,0
1530,37010,0
1460,37006,0
1388,36981,0
1332,36985,0
1216,36990,0
1202,36999,0
1208,37028,0
1376,37008,0
1416,36988,0
1474,36997,0
1561,36983,0
1634,37007,0
1708,36990,0
1762,37007,0
1802,37023,0
1820,37017,0
1788,36990,0
1754,36999,0
1680,37004,0
1616,37015,0
1466,37034,0
1464,37023,0
1322,37002,0
1340,37016,0
1225,37011,0
1296,37017,0
1293,37037,0
1344,37038,0
1276,37028,0
1330,37011,0
1426,37023,0
1506,37015,0
1616,37018,0
1667,37047,0
1690,37043,0
1682,37008,0
1569,37019,0
1505,37013,0
1405,37020,0
1409,37046,0
1302,37039,0
1202,37025,0
1133,37052,0
1049,36998,0
1020,37032,0
996,37026,0
1014,37056,0
1048,37054,0
1118,37028,0
1192,37037,0
1284,37031,0
1416,37029,0
1440,37039,0
1622,37066,0
1650,37054,0
1780,37023,0
1776,37036,0
1868,37038,0
1876,37041,0
1916,37068,0
1856,37074,0
1916,37023,0
1996,37041,0
2096,37040,0
2268,37043,0
2352,37040,0
2464,37069,0
2564,37076,0
2616,37033,0
2696,37035,0
2744,37026,0
2804,37036,0
2810,37051,0
2784,37064,0
2748,37045,0
2704,37048,0
2604,37034,0
2558,37038,0
2448,37058,0
2400,37065,0
2295,37058,0
2272,37027,0
2208,37037,0
2212,37041,0
2208,37037,0
2196,37068,0
2220,37067,0
2256,37023,0
2288,37040,0
2320,37036,0
2370,37029,0
2388,37070,0
2336,37068,0
2324,37035,0
2292,37027,0
2233,37042,0
2198,37028,0
2077,37040,0
1957,37054,0
1826,37046,0
1632,37041,0
1504,37036,0
1420,37034,0
1424,37055,0
1376,37033,0
1345,37044,0
1344,37047,0
1368,37021,0
1428,37033,0
1490,37036,0
1553,37048,0
1642,37052,0
1704,37010,0
1764,37031,0
1787,37024,0
1808,37029,0
1720,37048,0
1736,37052,0
1616,37016,0
1592,37023,0
1440,37033,0
1424,37020,0
1344,37021,0
1314,37049,0
1156,37034,0
1152,37022,0
1179,37015,0
1218,37024,0
1348,37026,0
1440,37056,0
1510,37050,0
1594,37017,0
1608,37034,0
1670,37024,0
1791,37013,0
1764,37014,0
1720,37024,0
1648,37023,0
1560,37026,0
1476,37049,0
1400,37041,0
1330,37007,0
1284,37020,0
1248,37018,0
1236,37018,0
1255,37040,0
1324,37049,0
1316,37027,0
1468,37020,0
1488,37025,0
1641,37026,0
1648,37024,0
1770,37041,0
1788,37045,0
1706,37002,0
1696,37018,0
1624,37020,0
1564,37017,0
1472,37027,0
1452,37048,0
1374,37021,0
1313,37015,0
1256,37013,0
1152,37018,0
1160,37018,0
1174,37044,0
1344,37013,0
1416,37021,0
1488,36987,0
1572,37017,0
1650,37022,0
1722,37039,0
1768,36990,0
1808,37013,0
1800,37019,0
1768,37010,0
1724,37044,0
1632,37046,0
1580,37026,0
1428,37018,0
1424,37025,0
1288,37016,0
1309,37021,0
1216,37052,0
1290,37054,0
1294,36996,0
1362,37021,0
1312,37026,0
1384,37010,0
1476,37019,0
1568,37040,0
1688,37043,0
1760,37001,0
1795,37018,0
1793,37009,0
1700,37019,0
1656,37038,0
1576,37051,0
1600,37041,0
1520,37033,0
1432,37046,0
1378,37009,0
1328,37033,0
1306,37019,0
1306,37026,0
1312,37051,0
1380,37048,0
1440,37003,0
1520,37025,0
1589,37027,0
1677,37032,0
1708,37051,0
1808,37054,0
1791,37008,0
1844,37030,0
1772,37019,0
1776,37035,0
1672,37034,0
1616,37061,0
1434,37058,0
1344,37017,0
1282,37030,0
1228,37027,0
1268,37030,0
1282,37060,0
1309,37061,0
1357,37030,0
1356,37036,0
1440,37039,0
1520,37045,0
1724,37058,0
1764,37045,0
1836,37043,0
1861,37056,0
1860,37049,0
1832,37053,0
1808,37041,0
1722,37061,0
1648,37059,0
1560,37053,0
1488,37031,0
1403,37050,0
1376,37042,0
1300,37053,0
1356,37073,0
1314,37075,0
1434,37039,0
1440,37042,0
1584,37044,0
1660,37040,0
1752,37046,0
1740,37074,0
1796,37069,0
1824,37029,0
1816,37046,0
1844,37050,0
1796,37051,0
1720,37080,0
1645,37071,0
1496,37035,0
1428,37053,0
1357,37042,0
1434,37070,0
1394,37039,0
1418,37053,0
1436,37052,0
1488,37076,0
1564,37049,0
1649,37041,0
1732,37051,0
1824,37073,0
1884,37077,0
1944,37064,0
1952,37056,0
1970,37052,0
1904,37057,0
1904,37053,0
1784,37082,0
1768,37075,0
1624,37030,0
1601,37059,0
1533,37052,0
1492,37052,0
1368,37082,0
1376,37069,0
1408,37030,0
1462,37051,0
1584,37048,0
1684,37039,0
1773,37060,0
1858,37069,0
1872,37038,0
1936,37047,0
1944,37044,0
2032,37044,0
1992,37044,0
1948,37061,0
1878,37033,0
1786,37076,0
1709,37041,0
1642,37050,0
1580,37058,0
1544,37047,0
1524,37034,0
1529,37027,0
1551,37030,0
1606,37029,0
1620,37061,0
1760,37045,0
1792,37010,0
1924,37020,0
1944,37026,0
2044,37012,0
2040,37036,0
2056,37040,0
1944,37017,0
1884,37003,0
1800,37018,0
1718,37008,0
1684,37017,0
1604,37029,0
1545,37028,0
1496,36990,0
1404,37002,0
1401,37001,0
1433,36994,0
1594,37005,0
1654,37003,0
1736,36990,0
1810,36997,0
1868,37025,0
1938,36988,0
1978,36989,0
2000,36990,0
1976,37013,0
1946,37005,0
1890,36964,0
1785,36983,0
1712,36979,0
1562,36970,0
1546,36991,0
1424,37002,0
1430,36987,0
1345,36962,0
1432,36972,0
1424,36980,0
1505,36969,0
1440,36994,0
1540,36986,0
1621,36957,0
1705,36966,0
1800,36956,0
1853,36957,0
1872,36961,0
1856,36990,0
1756,36983,0
1692,36947,0
1606,36952,0
1621,36960,0
1535,36946,0
1464,36968,0
1386,36948,0
1352,36982,0
1350,36927,0
1344,36945,0
1381,36946,0
1424,36949,0
1500,36943,0
1568,36976,0
1632,36963,0
1732,36940,0
1728,36946,0
1832,36930,0
1804,36949,0
1840,36972,0
1756,36960,0
1745,36924,0
1662,36941,0
1588,36934,0
1392,36938,0
1312,36959,0
1238,36961,0
1200,36951,0
1265,36939,0
1267,36938,0
1301,36927,0
1354,36929,0
1344,36967,0
1442,36962,0
1704,36941,0
1777,36955,0
1820,36944,0
1836,36934,0
1828,36937,0
1772,36929,0
1720,36932,0
1646,36934,0
1548,36959,0
1476,36956,0
1406,36917,0
1325,36929,0
1305,36932,0
1216,36934,0
1286,36959,0
1254,36953,0
1378,36914,0
1388,36932,0
1532,36929,0
1588,36926,0
1588,36959,0
1660,36950,0
1704,36912,0
1721,36935,0
1717,36927,0
1722,36928,0
1662,36946,0
1584,36957,0
1497,36943,0
1338,36927,0
1268,36932,0
1208,36925,0
1292,36934,0
1282,36938,0
1292,36940,0
1332,36952,0
1384,36912,0
1456,36933,0
1532,36962,0
1618,36963,0
1696,36925,0
1758,36932,0
1808,36932,0
1800,36929,0
1802,36932,0
1700,36963,0
1696,36954,0
1558,36917,0
1532,36929,0
1372,36924,0
1368,36945,0
1300,36969,0
1276,36956,0
1137,36920,0
1148,36926,0
1201,36921,0
1248,36940,0
1398,36961,0
1490,36953,0
1574,36956,0
1649,36921,0
1648,36929,0
1698,36935,0
1702,36926,0
1790,36934,0
1746,36947,0
1684,36939,0
1598,36973,0
1528,36949,0
1444,36952,0
1362,36951,0
1314,36925,0
1277,36936,0
1269,36922,0
1274,36930,0
1293,36962,0
1376,36956,0
1378,36919,0
1548,36942,0
1565,36934,0
1704,36937,0
1714,36953,0
1808,36960,0
1808,36937,0
1800,36930,0
1652,36924,0
1584,36919,0
1490,36936,0
1401,36959,0
1396,36956,0
1317,36924,0
1254,36942,0
1233,36936,0
1128,36931,0
1152,36949,0
1201,36957,0
1384,36903,0
1452,36898,0
1532,36931,0
1629,36938,0
1700,36930,0
1760,36912,0
1790,36934,0
1800,36923,0
1784,36928,0
1740,36937,0
1676,36965,0
1603,36914,0
1522,36930,0
1368,36927,0
1368,36930,0
1250,36928,0
1284,36952,0
1197,36955,0
1292,36906,0
1304,36923,0
1392,36921,0
1360,36918,0
1436,36937,0
1529,36953,0
1596,36935,0
1720,36913,0
1760,36920,0
1771,36918,0
1750,36926,0
1644,36948,0
1579,36949,0
1488,36899,0
1520,36928,0
1470,36914,0
1360,36927,0
1306,36939,0
1268,36928,0
1268,36918,0
1284,36918,0
1322,36912,0
1380,36923,0
1450,36960,0
1541,36942,0
1604,36900,0
1700,36917,0
1688,36926,0
1794,36923,0
1744,36947,0
1782,36940,0
1668,36904,0
1668,36919,0
1560,36920,0
1488,36921,0
1290,36940,0
1221,36935,0
1168,36900,0
1131,36915,0
1196,36920,0
1220,36917,0
1256,36935,0
1326,36957,0
1322,36942,0
1416,36912,0
1512,36916,0
1688,36924,0
1740,36948,0
1768,36918,0
1770,36928,0
1770,36918,0
1712,36930,0
1644,36915,0
1570,36932,0
1481,36955,0
1396,36958,0
1332,36919,0
1252,36933,0
1248,36928,0
1168,36924,0
1264,36951,0
1240,36951,0
1368,36937,0
1386,36923,0
1528,36936,0
1600,36928,0
1688,36935,0
1642,36962,0
1670,36954,0
1681,36907,0
1658,36932,0
1652,36928,0
1594,36922,0
1512,36944,0
1421,36956,0
1272,36937,0
1195,36923,0
1140,36922,0
1236,36937,0
1241,36920,0
1256,36952,0
1310,36952,0
1356,36921,0
1440,36922,0
1530,36927,0
1608,36934,0
1680,36927,0
1740,36962,0
1776,36947,0
1775,36910,0
1756,36936,0
1650,36925,0
1645,36920,0
1492,36936,0
1472,36960,0
1320,36958,0
1312,36917,0
1228,36935,0
1228,36932,0
1098,36931,0
1121,36954,0
1169,36953,0
1242,36939,0
1382,36933,0
1481,36938,0
1569,36925,0
1651,36929,0
1640,36961,0
1670,36966,0
1680,36915,0
1754,36945,0
1704,36953,0
1628,36932,0
1545,36933,0
1446,36952,0
1372,36962,0
1302,36936,0
1260,36933,0
1208,36941,0
1220,36938,0
1240,36945,0
1270,36971,0
1364,36965,0
1364,36918,0
1524,36939,0
1548,36939,0
1674,36943,0
1660,36948,0
1772,36972,0
1756,36946,0
1728,36942,0
1589,36948,0
1508,36942,0
1427,36948,0
1325,36974,0
1320,36957,0
1242,36921,0
1189,36937,0
1164,36939,0
1082,36945,0
1117,36957,0
1168,36964,0
1356,36945,0
1440,36950,0
1528,36950,0
1612,36955,0
1674,36940,0
1730,36942,0
1764,36952,0
1772,36978,0
1752,36969,0
1682,36929,0
1618,36942,0
1509,36945,0
1448,36944,0
1304,36978,0
1296,36965,0
1184,36934,0
1218,36951,0
1148,36952,0
1248,36945,0
1264,36951,0
1346,36969,0
1320,36978,0
1408,36925,0
1493,36953,0
1568,36948,0
1676,36949,0
1714,36961,0
1706,36978,0
1688,36967,0
1570,36935,0
1512,36954,0
1432,36955,0
1356,36927,0
1290,36958,0
1242,36952,0
1224,36941,0
1230,36949,0
1248,36974,0
1300,36967,0
1370,36926,0
1445,36956,0
1534,36945,0
1604,36947,0
1688,36972,0
1696,36976,0
1786,36964,0
1720,36940,0
1732,36955,0
1612,36947,0
1596,36953,0
1482,36977,0
1296,36972,0
1216,36929,0
1156,36946,0
1104,36953,0
1081,36945,0
1224,36965,0
1184,36977,0
1237,36972,0
1308,36941,0
1314,36948,0
1422,36943,0
1508,36940,0
1688,36955,0
1736,36980,0
1776,36959,0
1762,36951,0
1736,36969,0
1680,36952,0
1606,36972,0
1517,36972,0
1413,36942,0
1362,36954,0
1296,36956,0
1217,36945,0
1217,36965,0
1148,36985,0
1264,36955,0
1254,36962,0
1392,36954,0
1402,36954,0
1572,36962,0
1656,36984,0
1744,36975,0
1702,36947,0
1744,36964,0
1740,36958,0
1728,36955,0
1714,36976,0
1652,36988,0
1565,36949,0
1467,36962,0
1328,36960,0
1253,36963,0
1192,36971,0
1296,36955,0
1284,36973,0
1320,36940,0
1370,36975,0
1434,36967,0
1516,36967,0
1600,36960,0
1684,36969,0
1752,36992,0
1794,36999,0
1821,36960,0
1792,36966,0
1778,36973,0
1672,36973,0
1644,36988,0
1500,36997,0
1476,36973,0
1332,36965,0
1324,36971,0
1264,36972,0
1253,36969,0
1112,37001,0
1146,36996,0
1202,36955,0
1269,36979,0
1400,36972,0
1506,36971,0
1592,36994,0
1644,37013,0
1644,36990,0
1676,36964,0
1668,36982,0
1736,36985,0
1676,36997,0
1604,36956,0
1496,36998,0
1416,36979,0
1354,36967,0
1277,36988,0
1224,36999,0
1208,36991,0
1210,37002,0
1237,37011,0
1298,37011,0
1368,36978,0
1398,36997,0
1552,36998,0
1574,37001,0
1712,37023,0
1698,37023,0
1768,37015,0
1738,36997,0
1730,37005,0
1568,37011,0
1486,37011,0
1386,37036,0
1292,37027,0
1272,36989,0
1224,37005,0
1181,37003,0
1158,37006,0
1080,37023,0
1120,37048,0
1180,37023,0
1376,37011,0
1448,37014,0
1542,36991,0
1617,37038,0
1688,36999,0
1733,37029,0
1756,37038,0
1744,37018,0
1696,37005,0
1640,37016,0
1556,37023,0
1431,37019,0
1348,37040,0
1185,37037,0
1181,37011,0
1032,37022,0
1053,37014,0
960,37012,0
1036,37045,0
1040,37041,0
1116,37004,0
1049,37018,0
1125,37018,0
1202,37010,0
1267,37032,0
1362,37052,0
1410,37031,0
1412,37023,0
1379,37023,0
1252,37020,0
1200,37029,0
1138,37048,0
1204,37049,0
1180,37026,0
1172,37038,0
1194,37020,0
1228,37046,0
1331,37024,0
1456,37047,0
1636,37054,0
1832,37016,0
2064,37017,0
2288,37027,0
2500,37023,0
2712,37033,0
2864,37056,0
2980,37042,0
3020,37020,0
3000,37023,0
2936,37013,0
2804,37023,0
2672,37050,0
2512,37045,0
2292,37005,0
2152,37021,0
2052,37033,0
1965,37021,0
1992,37033,0
2000,37051,0
2053,37048,0
2125,37015,0
2184,37028,0
2284,37023,0
2386,37027,0
2504,37020,0
2558,37047,0
2562,37023,0
2528,37013,0
2460,37047,0
2356,37032,0
2234,37017,0
2096,37029,0
1952,37031,0
1816,37058,0
1708,37050,0
1593,37019,0
1522,37029,0
1404,37019,0
1456,37033,0
1398,37047,0
1488,37052,0
1464,37018,0
1584,37030,0
1604,37024,0
1664,37028,0
1590,37047,0
1602,37048,0
1568,37027,0
1509,37029,0
1488,37032,0
1414,37021,0
1322,37027,0
1248,37043,0
1072,37052,0
1024,37014,0
977,37019,0
1098,37038,0
1121,37033,0
1148,37018,0
1216,37033,0
1284,37032,0
1372,37047,0
1458,37041,0
1529,37018,0
1584,37021,0
1640,37021,0
1648,37021,0
1623,37036,0
1592,37052,0
1456,37060,0
1437,37010,0
1272,37029,0
1264,37033,0
1092,37034,0
1114,37045,0
1052,37054,0
1062,37040,0
924,37024,0
962,37034,0
1037,37030,0
1109,37037,0
1262,37051,0
1367,37054,0
1441,37023,0
1513,37031,0
1476,37027,0
1498,37038,0
1480,37068,0
1560,37027,0
1482,37059,0
1401,37048,0
1315,37044,0
1232,37042,0
1168,37042,0
1102,37075,0
1072,37070,0
1064,37020,0
1075,37049,0
1104,37039,0
1153,37054,0
1248,37068,0
1267,37075,0
1428,37055,0
1509,37050,0
1568,37053,0
1608,37048,0
1616,37050,0
1608,37091,0
1556,37068,0
1362,37036,0
1280,37055,0
1186,37065,0
1088,37056,0
1094,37081,0
1040,37088,0
995,37048,0
1002,37075,0
928,37055,0
976,37072,0
1260,37088,0
1346,37068,0
1448,37072,0
1518,37089,0
1588,37077,0
1634,37098,0
1641,37048,0
1634,37073,0
1588,37070,0
1512,37065,0
1424,37083,0
1300,37100,0
1242,37074,0
1088,37069,0
1112,37076,0
1005,37074,0
1064,37083,0
1028,37102,0
1133,37099,0
1204,37068,0
1154,37083,0
1248,37069,0
1353,37074,0
1428,37098,0
1496,37103,0
1610,37075,0
1608,37080,0
1597,37068,0
1540,37067,0
1404,37082,0
1316,37111,0
1216,37087,0
1252,37088,0
1184,37067,0
1122,37088,0
1092,37068,0
1080,37083,0
1108,37101,0
1148,37072,0
1221,37075,0
1292,37072,0
1384,37079,0
1480,37098,0
1545,37107,0
1617,37058,0
1600,37084,0
1680,37070,0
1594,37079,0
1609,37089,0
1464,37107,0
1450,37096,0
1332,37059,0
1272,37069,0
1072,37058,0
1020,37072,0
992,37088,0
981,37102,0
1168,37084,0
1140,37073,0
1206,37075,0
1296,37080,0
1312,37071,0
1408,37096,0
1493,37099,0
1665,37075,0
1700,37081,0
1713,37059,0
1697,37082,0
1648,37086,0
1584,37062,0
1498,37081,0
1404,37068,0
1320,37074,0
1250,37093,0
1184,37097,0
1138,37057,0
1164,37082,0
1124,37079,0
1248,37064,0
1308,37086,0
1400,37097,0
1496,37082,0
1588,37067,0
1664,37078,0
1736,37054,0
1674,37068,0
1696,37090,0
1665,37099,0
1610,37042,0
1584,37071,0
1514,37062,0
1426,37060,0
1342,37091,0
1220,37088,0
1145,37055,0
1112,37062,0
1242,37059,0
1268,37061,0
1316,37053,0
1396,37079,0
1480,37060,0
1576,37063,0
1698,37054,0
1756,37064,0
1818,37091,0
1848,37075,0
1860,37042,0
1800,37055,0
1776,37043,0
1640,37050,0
1617,37073,0
1474,37077,0
1444,37060,0
1314,37042,0
1332,37043,0
1288,37045,0
1306,37045,0
1212,37067,0
1272,37067,0
1352,37024,0
1444,37039,0
1616,37039,0
1712,37043,0
1790,37045,0
1862,37067,0
1840,37058,0
1848,37022,0
1824,37030,0
1864,37006,0
1785,37047,0
1688,37019,0
1604,37044,0
1508,37047,0
1438,37047,0
1386,37007,0
1336,37009,0
1360,37018,0
1380,37003,0
1424,37015,0
1489,37038,0
1584,37024,0
1616,36991,0
1760,37002,0
1784,36999,0
1892,37007,0
1864,37028,0
1936,37021,0
1880,36979,0
1840,36999,0
1653,36993,0
1556,36997,0
1468,37003,0
1366,37015,0
1353,36999,0
1303,36983,0
1265,36990,0
1264,36987,0
1197,36991,0
1257,37018,0
1322,37004,0
1528,36981,0
1580,36985,0
1696,36972,0
1760,36985,0
1812,37047,0
1840,36971,0
1834,37002,0
1810,36995,0
1744,36952,0
1665,36971,0
1572,36973,0
1452,36978,0
1392,36978,0
1244,36999,0
1256,36990,0
1165,36953,0
1232,36968,0
1204,36961,0
1304,36969,0
1356,36998,0
1453,36983,0
1440,36958,0
1528,36954,0
1596,36965,0
1680,36952,0
1748,36963,0
1746,36988,0
1716,36980,0
1659,36947,0
1514,36967,0
1417,36956,0
1312,36963,0
1344,36963,0
1272,36975,0
1218,36963,0
1196,36974,0
1186,36966,0
1224,36979,0
1272,36995,0
1344,36971,0
1428,36958,0
1528,36968,0
1608,36964,0
1655,36971,0
1746,36995,0
1716,36984,0
1768,36954,0
1688,36961,0
1682,36960,0
1552,36957,0
1520,36990,0
1418,36991,0
1354,36946,0
1160,36956,0
1112,36970,0
1088,36955,0
1088,36983,0
1190,36990,0
1249,36974,0
1316,36970,0
1418,36957,0
1440,36970,0
1524,36966,0
1604,36994,0
1760,36973,0
1786,36967,0
1776,36979,0
1746,36969,0
1685,36962,0
1617,36964,0
1520,36961,0
1426,36998,0
1353,36985,0
1276,36955,0
1226,36978,0
1189,36961,0
1216,36964,0
1169,36980,0
1304,36985,0
1312,36954,0
1464,36970,0
1494,36969,0
1652,36970,0
1700,36982,0
1776,37000,0
1708,36980,0
1700,36962,0
1672,36974,0
1608,36967,0
1589,36960,0
1500,36997,0
1404,36998,0
1338,36960,0
1176,36969,0
1146,36973,0
1248,36965,0
1292,36961,0
1336,36995,0
1420,36993,0
1500,36967,0
1604,36954,0
1684,36967,0
1760,36968,0
1808,36970,0
1838,36991,0
1832,36985,0
1776,36992,0
1744,36959,0
1604,36965,0
1568,36969,0
1425,36969,0
1402,36986,0
1268,36992,0
1305,36967,0
1264,36961,0
1154,36969,0
1190,36964,0
1258,36973,0
1331,37001,0
1437,36991,0
1600,36948,0
1689,36972,0
1761,36960,0
1817,36963,0
1780,36972,0
1771,36993,0
1736,36964,0
1776,36963,0
1686,36954,0
1592,36969,0
1501,36955,0
1430,36987,0
1360,36974,0
1312,36991,0
1304,36988,0
1304,36938,0
1340,36955,0
1400,36962,0
1444,36949,0
1560,36987,0
1594,36989,0
1744,36960,0
1776,36953,0
1864,36958,0
1845,36964,0
1888,36968,0
1832,36997,0
1790,36980,0
1602,36947,0
1514,36963,0
1410,36966,0
1334,36951,0
1320,36994,0
1289,36983,0
1272,36946,0
1288,36963,0
1244,36966,0
1309,36965,0
1386,36979,0
1586,36963,0
1672,36958,0
1776,36992,0
1844,36964,0
1888,36977,0
1916,36967,0
1904,36969,0
1864,36968,0
1796,36998,0
1722,36993,0
1632,36956,0
1529,36969,0
1458,36967,0
1329,36976,0
1360,36994,0
1276,36992,0
1360,36958,0
1324,36967,0
1457,36959,0
1498,36968,0
1621,37006,0
1608,36992,0
1700,36974,0
1772,36968,0
1816,36973,0
1894,36969,0
1880,36979,0
1836,36994,0
1768,36990,0
1624,36962,0
1520,36976,0
1430,36973,0
1468,36969,0
1410,36983,0
1368,36993,0
1356,36988,0
1366,36979,0
1412,36977,0
1464,36978,0
1541,36980,0
1640,36983,0
1725,37009,0
1812,37011,0
1858,36969,0
1920,36979,0
1888,36977,0
1928,36973,0
1828,36992,0
1816,36995,0
1670,36995,0
1632,36968,0
1533,36986,0
1468,36973,0
1282,36982,0
1253,37002,0
1240,37004,0
1252,36953,0
1352,36988,0
1429,36983,0
1514,36977,0
1612,36990,0
1642,37002,0
1734,36992,0
1812,36967,0
1936,36995,0
1960,36984,0
1944,36985,0
1896,36982,0
1844,36990,0
1748,36990,0
1650,37021,0
1568,37000,0
1485,36969,0
1424,36981,0
1380,36980,0
1344,36984,0
1392,37009,0
1371,37000,0
1506,36986,0
1525,36986,0
1676,36981,0
1718,36985,0
1852,37007,0
1920,37006,0
1960,36975,0
1889,36992,0
1868,36976,0
1824,36982,0
1749,36990,0
1696,37008,0
1618,37010,0
1526,36964,0
1441,36979,0
1297,36980,0
1273,36983,0
1262,37000,0
1394,36991,0
1436,36996,0
1508,36969,0
1588,37003,0
1676,36993,0
1776,36991,0
1856,36979,0
1928,36997,0
1976,37016,0
1978,37004,0
1969,36969,0
1919,36976,0
1872,36979,0
1716,36985,0
1672,37003,0
1540,37005,0
1512,36973,0
1384,36984,0
1420,36988,0
1376,36981,0
1424,36993,0
1354,37016,0
1418,37001,0
1497,36969,0
1584,36984,0
1744,36985,0
1833,36974,0
1897,37000,0
1946,36998,0
1904,36985,0
1888,36968,0
1849,36984,0
1872,36981,0
1788,36977,0
1696,36983,0
1610,36988,0
1532,36990,0
1485,36974,0
1434,36973,0
1432,36981,0
1448,36977,0
1485,36996,0
1552,36996,0
1628,36961,0
1728,36976,0
1768,36974,0
1906,36971,0
1916,37011,0
2012,37000,0
1964,36959,0
1996,36969,0
1952,36978,0
1888,36972,0
1708,36981,0
1602,37003,0
1524,36989,0
1442,36966,0
1445,36970,0
1421,36970,0
1406,36963,0
1442,36996,0
1400,36996,0
1484,36949,0
1571,36970,0
1768,36985,0
1854,36973,0
1936,36987,0
1990,36981,0
2036,36976,0
2046,36971,0
2016,36992,0
1968,37008,0
1892,36974,0
1804,36966,0
1716,36967,0
1597,36970,0
1545,36974,0
1424,37008,0
1448,36997,0
1378,36962,0
1476,36973,0
1456,36969,0
1584,36974,0
1662,36998,0
1760,36998,0
1756,36956,0
1840,36977,0
1912,36973,0
1957,36967,0
2014,36989,0
1993,36998,0
1943,37010,0
1872,36960,0
1720,36981,0
1616,36976,0
1520,36970,0
1568,36978,0
1504,36973,0
1472,36998,0
1466,36992,0
1488,36975,0
1560,36986,0
1600,36974,0
1685,36987,0
1786,37000,0
1866,37000,0
1944,36958,0
2007,36970,0
2042,36975,0
2000,36978,0
2028,36975,0
2032,37008,0
1904,36999,0
1756,36962,0
1732,36971,0
1616,36966,0
1556,36987,0
1404,36995,0
1376,37002,0
1366,36965,0
1393,36989,0
1508,36973,0
1576,36972,0
1667,36988,0
1766,37010,0
1800,37003,0
1881,36968,0
2044,36983,0
2060,37002,0
2036,36976,0
1994,36974,0
1920,36956,0
1840,36976,0
1752,36982,0
1688,37004,0
1624,37000,0
1584,36977,0
1568,36978,0
1555,36987,0
1608,36980,0
1608,36993,0
1744,37006,0
1772,36989,0
1920,36979,0
1956,36993,0
2080,36982,0
2124,36998,0
2088,37017,0
2092,37012,0
2064,36973,0
2005,36991,0
1928,36994,0
1888,36987,0
1798,37002,0
1710,37008,0
1648,37007,0
1524,36981,0
1496,36995,0
1500,36983,0
1624,36983,0
1672,36997,0
1722,36986,0
1814,37003,0
1888,36969,0
1989,36984,0
2047,36987,0
2100,37026,0
2128,37020,0
2134,36968,0
2096,36995,0
2024,36992,0
1948,36995,0
1808,37010,0
1768,37016,0
1624,36982,0
1601,36982,0
1492,36999,0
1520,36994,0
1510,36991,0
1552,37018,0
1504,37014,0
1580,36982,0
1676,36999,0
1780,37004,0
1936,36995,0
2013,37022,0
2072,37024,0
2109,36991,0
2064,37006,0
2032,37001,0
1976,36994,0
1972,37000,0
1892,37003,0
1794,37015,0
1696,37015,0
1636,37000,0
1576,37010,0
1548,37002,0
1554,36998,0
1578,37023,0
1636,37034,0
1696,36992,0
1787,37009,0
1884,37000,0
1924,37003,0
2056,37002,0
2064,37024,0
2145,37016,0
2098,36997,0
2120,36998,0
2028,37002,0
1980,37001,0
1794,37031,0
1709,37034,0
1612,36987,0
1550,37004,0
1633,37005,0
1528,36996,0
1532,37027,0
1570,37032,0
1548,37010,0
1619,37006,0
1708,36997,0
1880,36999,0
1970,37004,0
2020,36998,0
2072,37007,0
2084,37020,0
2060,37005,0
2008,37002,0
1920,37020,0
1804,37026,0
1701,37000,0
1580,37006,0
1456,37004,0
1396,36995,0
1244,37004,0
1292,37041,0
1216,37016,0
1312,36985,0
1274,37002,0
1448,36992,0
1520,36998,0
1649,37025,0
1658,37024,0
1764,36986,0
1856,36992,0
1947,36999,0
2056,36994,0
2072,37020,0
2080,37020,0
2092,36977,0
2050,36990,0
2080,36980,0
2116,36988,0
2264,37026,0
2360,36981,0
2480,36993,0
2608,36994,0
2740,37006,0
2880,36991,0
3012,36991,0
3112,37014,0
3192,37017,0
3252,36970,0
3256,36984,0
3245,36982,0
3220,36980,0
3156,36988,0
3068,37014,0
2944,37014,0
2852,36978,0
2720,36983,0
2648,36982,0
2564,36981,0
2520,37016,0
2424,37015,0
2420,36978,0
2432,36981,0
2468,36986,0
2548,36982,0
2597,36993,0
2650,37010,0
2724,36978,0
2724,36987,0
2741,36982,0
2722,36980,0
2738,36988,0
2684,36997,0
2576,36992,0
2460,36981,0
2320,36968,0
2176,36977,0
2040,36977,0
1929,36983,0
1820,37001,0
1744,37005,0
1676,36976,0
1655,36981,0
1672,36978,0
1648,36978,0
1768,36983,0
1784,36999,0
1912,36998,0
1936,36966,0
2047,36980,0
2084,36975,0
2124,36980,0
2032,37000,0
2012,36997,0
1949,36992,0
1872,36971,0
1833,36975,0
1739,36971,0
1665,36980,0
1592,37004,0
1474,36988,0
1446,36960,0
1442,36965,0
1584,36985,0
1636,36974,0
1700,36998,0
1777,36973,0
1873,36982,0
1944,36997,0
2018,36971,0
2064,36975,0
2104,36964,0
2092,36977,0
2056,36995,0
1983,36995,0
1924,36957,0
1784,36964,0
1744,36957,0
1596,36977,0
1584,37000,0
1472,36997,0
1512,36970,0
1504,36977,0
1545,36965,0
1490,36969,0
1568,36980,0
1660,37005,0
1760,36995,0
1905,36954,0
1984,36964,0
2032,36973,0
2064,36971,0
2008,36983,0
1976,37003,0
1912,36955,0
1917,36958,0
1818,36989,0
1730,36976,0
1660,36981,0
1600,37024,0
1550,36959,0
1535,36975,0
1538,36973,0
1568,36969,0
1632,37002,0
1690,36993,0
1729,36958,0
1872,36971,0
1904,36971,0
2032,36972,0
2032,36986,0
2130,36989,0
2046,36967,0
2040,36967,0
1992,36964,0
1928,36958,0
1736,36967,0
1649,36990,0
1565,36993,0
1497,36959,0
1506,36960,0
1505,36954,0
1536,36970,0
1554,36988,0
1552,36985,0
1632,36945,0
1728,36956,0
1918,36950,0
2008,36958,0
2076,36970,0
2120,36949,0
2136,36935,0
2112,36965,0
2096,36952,0
2032,36948,0
1940,36952,0
1844,36977,0
1756,36962,0
1679,36942,0
1610,36943,0
1510,36945,0
1556,36955,0
1516,36970,0
1608,36970,0
1608,36936,0
1756,36953,0
1824,36949,0
1936,36946,0
1940,36959,0
2016,36968,0
2068,36951,0
2084,36936,0
2114,36940,0
2072,36950,0
2008,36942,0
1938,36976,0
1785,36966,0
1704,36923,0
1672,36923,0
1648,36944,0
1632,36951,0
1641,36934,0
1676,36949,0
1738,36935,0
1818,36939,0
1898,36957,0
1996,36959,0
2060,36921,0
2136,36937,0
2170,36929,0
2188,36923,0
2125,36946,0
2124,36951,0
2016,36937,0
1976,36930,0
1828,36928,0
1794,36930,0
1712,36930,0
1564,36966,0
1526,36950,0
1516,36911,0
1540,36923,0
1586,36918,0
1732,36918,0
1808,36950,0
1906,36950,0
2002,36912,0
2048,36918,0
2122,36913,0
2184,36924,0
2272,36923,0
2254,36912,0
2212,36923,0
2154,36927,0
2068,36922,0
1992,36939,0
1904,36898,0
1824,36910,0
1765,36911,0
1734,36905,0
1720,36930,0
1720,36940,0
1794,36920,0
1800,36919,0
1944,36907,0
1992,36917,0
2128,36919,0
2164,36933,0
2280,36936,0
2308,36894,0
2340,36903,0
2272,36907,0
2236,36903,0
2144,36915,0
2061,36931,0
2004,36903,0
1909,36906,0
1834,36900,0
1776,36899,0
1680,36905,0
1660,36931,0
1677,36915,0
1834,36886,0
1896,36921,0
1978,36906,0
2080,36896,0
2178,36894,0
2268,36900,0
2336,36889,0
2392,36893,0
2412,36894,0
2400,36910,0
2360,36904,0
2300,36864,0
2216,36884,0
2080,36880,0
2042,36867,0
1924,36901,0
1918,36890,0
1828,36863,0
1880,36865,0
1876,36872,0
1948,36861,0
1928,36887,0
2016,36892,0
2120,36877,0
2218,36858,0
2336,36873,0
2404,36858,0
2449,36856,0
2462,36877,0
2400,36885,0
2361,36841,0
2272,36848,0
2256,36854,0
2156,36847,0
2060,36864,0
1988,36861,0
1928,36837,0
1881,36871,0
1864,36807,0
1870,36838,0
1920,36834,0
1984,36836,0
2064,36842,0
2127,36846,0
2240,36843,0
2264,36815,0
2368,36831,0
2370,36819,0
2424,36823,0
2360,36839,0
2352,36840,0
2276,36836,0
2196,36809,0
2032,36807,0
1932,36813,0
1856,36804,0
1786,36836,0
1804,36828,0
1778,36800,0
1788,36801,0
1833,36802,0
1840,36798,0
1912,36810,0
2017,36819,0
2173,36790,0
2256,36816,0
2320,36809,0
2352,36785,0
2352,36812,0
2336,36790,0
2272,36791,0
2200,36784,0
2100,36823,0
2002,36799,0
1908,36764,0
1820,36778,0
1770,36780,0
1664,36779,0
1718,36802,0
1690,36799,0
1784,36774,0
1800,36777,0
1932,36776,0
2008,36773,0
2104,36780,0
2112,36796,0
2180,36788,0
2220,36751,0
2217,36760,0
2256,36750,0
2168,36755,0
2112,36788,0
2014,36781,0
1864,36743,0
1774,36750,0
1696,36758,0
1740,36753,0
1702,36773,0
1698,36768,0
1717,36753,0
1768,36738,0
1836,36754,0
1918,36755,0
1996,36749,0
2090,36744,0
2172,36744,0
2224,36774,0
2244,36762,0
2264,36728,0
2200,36735,0
2184,36737,0
2068,36731,0
2024,36766,0
1888,36766,0
1848,36723,0
1765,36729,0
1732,36730,0
1593,36733,0
1592,36729,0
1616,36754,0
1669,36755,0
1792,36698,0
1880,36730,0
1985,36727,0
2077,36719,0
2104,36733,0
2169,36739,0
2204,36713,0
2272,36721,0
2257,36712,0
2196,36683,0
2126,36716,0
2036,36721,0
1936,36713,0
1856,36737,0
1784,36737,0
1748,36696,0
1698,36708,0
1696,36703,0
1713,36702,0
1764,36715,0
1776,36730,0
1916,36716,0
1972,36681,0
2100,36699,0
2136,36707,0
2256,36694,0
2272,36717,0
2288,36722,0
2193,36685,0
2136,36696,0
2060,36698,0
1966,36693,0
1920,36717,0
1832,36726,0
1764,36677,0
1712,36697,0
1616,36683,0
1605,36693,0
1632,36709,0
1788,36698,0
1844,36698,0
1936,36674,0
2029,36705,0
2116,36689,0
2210,36687,0
2266,36681,0
2296,36698,0
2296,36712,0
2284,36695,0
2264,36679,0
2148,36680,0
2064,36688,0
1924,36683,0
1908,36711,0
1776,36700,0
1776,36665,0
1680,36667,0
1732,36682,0
1752,36670,0
1820,36700,0
1784,36696,0
1876,36651,0
1970,36677,0
2060,36674,0
2188,36672,0
2240,36709,0
2276,36693,0
2280,36653,0
2212,36662,0
2160,36667,0
2068,36660,0
1986,36676,0
1892,36683,0
1832,36679,0
1768,36647,0
1744,36670,0
1730,36694,0
1760,36683,0
1808,36644,0
1880,36673,0
1968,36664,0
2043,36657,0
2152,36681,0
2192,36678,0
2288,36658,0
2292,36664,0
2324,36667,0
2276,36658,0
2248,36678,0
2164,36687,0
2000,36659,0
1904,36667,0
1812,36653,0
1733,36667,0
1677,36675,0
1704,36682,0
1704,36690,0
1725,36646,0
1798,36652,0
1796,36659,0
1899,36652,0
1996,36674,0
2162,36654,0
2250,36631,0
2296,36668,0
2324,36656,0
2328,36674,0
2292,36628,0
2240,36668,0
2160,36654,0
2080,36650,0
1974,36671,0
1892,36684,0
1807,36667,0
1772,36662,0
1684,36654,0
1744,36649,0
1724,36659,0
1834,36682,0
1850,36666,0
2002,36652,0
2074,36656,0
2185,36649,0
2192,36649,0
2216,36674,0
2280,36675,0
2273,36647,0
2280,36668,0
2212,36661,0
2128,36654,0
2026,36683,0
1882,36671,0
1792,36642,0
1728,36653,0
1764,36654,0
1736,36646,0
1740,36660,0
1784,36660,0
1842,36683,0
1928,36646,0
2016,36651,0
2116,36643,0
2208,36661,0
2282,36686,0
2325,36662,0
2336,36644,0
2348,36648,0
2256,36654,0
2240,36645,0
2112,36687,0
2044,36680,0
1904,36619,0
1868,36644,0
1784,36650,0
1748,36645,0
1617,36655,0
1618,36661,0
1656,36644,0
1716,36639,0
1856,36638,0
1941,36644,0
2040,36637,0
2132,36672,0
2176,36666,0
2244,36621,0
2261,36641,0
2336,36639,0
2303,36645,0
2244,36631,0
2174,36651,0
2104,36626,0
1996,36634,0
1922,36635,0
1860,36657,0
1804,36662,0
1780,36625,0
1773,36632,0
1786,36631,0
1858,36620,0
1872,36633,0
2008,36651,0
2064,36644,0
2176,36606,0
2212,36626,0
2288,36623,0
2308,36614,0
2306,36628,0
2208,36643,0
2144,36614,0
2056,36611,0
1960,36612,0
1920,36614,0
1844,36622,0
1770,36644,0
1732,36641,0
1636,36594,0
1645,36611,0
1680,36600,0
1840,36595,0
1910,36619,0
2034,36599,0
2108,36599,0
2180,36628,0
2256,36597,0
2312,36606,0
2332,36601,0
2336,36594,0
2288,36640,0
2236,36635,0
2154,36594,0
2056,36601,0
1924,36598,0
1900,36598,0
1780,36611,0
1802,36631,0
1712,36619,0
1788,36600,0
1800,36595,0
1860,36591,0
1840,36600,0
1938,36617,0
2052,36619,0
2116,36600,0
2240,36588,0
2270,36592,0
2296,36585,0
2288,36597,0
2200,36620,0
2136,36609,0
2056,36584,0
2040,36602,0
1945,36614,0
1862,36600,0
1808,36584,0
1753,36565,0
1748,36615,0
1749,36569,0
1794,36586,0
1848,36586,0
1919,36579,0
2010,36612,0
2096,36611,0
2196,36587,0
2228,36577,0
2328,36583,0
2324,36594,0
2360,36580,0
2284,36610,0
2266,36614,0
2196,36557,0
2098,36588,0
1952,36572,0
1872,36584,0
1801,36591,0
1761,36603,0
1796,36580,0
1813,36578,0
1852,36580,0
1913,36582,0
1936,36576,0
2040,36600,0
2146,36604,0
2308,36576,0
2380,36550,0
2428,36586,0
2456,36574,0
2436,36572,0
2384,36578,0
2316,36608,0
2245,36585,0
2146,36564,0
2050,36576,0
1970,36571,0
1890,36568,0
1872,36597,0
1792,36581,0
1864,36556,0
1840,36575,0
1954,36564,0
1968,36569,0
2098,36569,0
2172,36596,0
2260,36589,0
2252,36546,0
2284,36573,0
2309,36566,0
2272,36559,0
2276,36577,0
2204,36585,0
2128,36565,0
2042,36559,0
1882,36559,0
1804,36556,0
1744,36561,0
1800,36561,0
1784,36583,0
1794,36566,0
1832,36577,0
1888,36573,0
1964,36551,0
2046,36563,0
2130,36559,0
2208,36595,0
2276,36580,0
2320,36546,0
2335,36560,0
2336,36561,0
2260,36563,0
2240,36589,0
2124,36593,0
2072,36544,0
1936,36569,0
1917,36557,0
1824,36561,0
1813,36574,0
1688,36579,0
1696,36573,0
1736,36553,0
1780,36556,0
1920,36560,0
1992,36562,0
2068,36588,0
2181,36583,0
2184,36568,0
2232,36565,0
2244,36562,0
2304,36565,0
2256,36556,0
2188,36534,0
2114,36578,0
2024,36567,0
1942,36559,0
1864,36564,0
1804,36552,0
1768,36573,0
1760,36586,0
1776,36590,0
1788,36555,0
1844,36569,0
1848,36559,0
1968,36560,0
1964,36590,0
2064,36577,0
2042,36543,0
2106,36560,0
2072,36556,0
2060,36568,0
1912,36581,0
1817,36590,0
1721,36566,0
1621,36558,0
1596,36565,0
1529,36566,0
1491,36566,0
1465,36590,0
1424,36579,0
1481,36547,0
1796,36562,0
1928,36583,0
2076,36570,0
2226,36563,0
2360,36536,0
2492,36567,0
2608,36560,0
2698,36591,0
2776,36584,0
2832,36550,0
2872,36571,0
2888,36562,0
2912,36566,0
2866,36590,0
2864,36587,0
2808,36551,0
2792,36558,0
2740,36560,0
2736,36556,0
2712,36563,0
2672,36583,0
2696,36548,0
2742,36566,0
2801,36554,0
2874,36557,0
2968,36572,0
3032,36586,0
3076,36571,0
3104,36554,0
3096,36554,0
3076,36562,0
3033,36563,0
3000,36562,0
2936,36567,0
2872,36568,0
2802,36560,0
2736,36548,0
2686,36551,0
2648,36554,0
2620,36556,0
2618,36582,0
2618,36580,0
2640,36546,0
2631,36566,0
2640,36551,0
2612,36563,0
2600,36584,0
2528,36570,0
2488,36537,0
2348,36550,0
2288,36548,0
2148,36558,0
2056,36581,0
1880,36577,0
1794,36561,0
1721,36543,0
1689,36545,0
1696,36538,0
1758,36552,0
1794,36570,0
1860,36560,0
1872,36536,0
1964,36558,0
2040,36542,0
2184,36524,0
2220,36575,0
2248,36524,0
2240,36549,0
2216,36528,0
2154,36551,0
2064,36545,0
1980,36546,0
1880,36562,0
1800,36573,0
1736,36531,0
1654,36539,0
1632,36546,0
1556,36542,0
1662,36551,0
1642,36567,0
1784,36531,0
1820,36529,0
1968,36539,0
2052,36542,0
2152,36548,0
2152,36570,0
2184,36566,0
2198,36523,0
2177,36533,0
2172,36545,0
2096,36536,0
2008,36564,0
1912,36570,0
1748,36521,0
1664,36552,0
1588,36537,0
1636,36560,0
1626,36530,0
1640,36564,0
1677,36526,0
1740,36563,0
1832,36537,0
1921,36543,0
2012,36545,0
2096,36539,0
2162,36572,0
2220,36559,0
2216,36541,0
2212,36553,0
2120,36540,0
2100,36546,0
1968,36570,0
1916,36568,0
1776,36538,0
1744,36544,0
1688,36546,0
1664,36545,0
1540,36572,0
1580,36563,0
1620,36528,0
1704,36546,0
1856,36536,0
1948,36531,0
2042,36559,0
2136,36569,0
2138,36549,0
2176,36535,0
2176,36535,0
2216,36508,0
2156,36536,0
2072,36541,0
1984,36543,0
1888,36535,0
1812,36570,0
1724,36550,0
1680,36529,0
1649,36536,0
1644,36537,0
1672,36529,0
1719,36565,0
1796,36561,0
1840,36516,0
1984,36534,0
2040,36528,0
2156,36531,0
2186,36550,0
2256,36562,0
2240,36546,0
2224,36533,0
2088,36539,0
2006,36538,0
1896,36537,0
1796,36547,0
1764,36559,0
1698,36511,0
1648,36526,0
1632,36521,0
1568,36535,0
1602,36534,0
1658,36554,0
1836,36531,0
1922,36539,0
2000,36527,0
2098,36553,0
2168,36543,0
2224,36521,0
2256,36526,0
2258,36546,0
2232,36547,0
2180,36509,0
2120,36529,0
2021,36517,0
1945,36529,0
1800,36553,0
1784,36544,0
1680,36501,0
1700,36529,0
1620,36524,0
1716,36526,0
1752,36551,0
1834,36555,0
1834,36506,0
1932,36506,0
2017,36534,0
2105,36522,0
2208,36531,0
2240,36557,0
2244,36552,0
2225,36507,0
2112,36523,0
2028,36515,0
1926,36520,0
1912,36489,0
1824,36540,0
1756,36517,0
1712,36543,0
1680,36552,0
1666,36518,0
1697,36528,0
1760,36530,0
1816,36518,0
1888,36550,0
1980,36552,0
2049,36516,0
2120,36532,0
2128,36525,0
2200,36523,0
2146,36539,0
2154,36555,0
2060,36541,0
2012,36516,0
1914,36521,0
1836,36530,0
1664,36533,0
1584,36558,0
1546,36556,0
1524,36513,0
1604,36516,0
1638,36525,0
1705,36525,0
1789,36542,0
1828,36550,0
1946,36511,0
2034,36528,0
2192,36542,0
2245,36544,0
2268,36520,0
2276,36538,0
2232,36522,0
2172,36558,0
2108,36558,0
2020,36514,0
1932,36531,0
1852,36516,0
1794,36529,0
1741,36556,0
1728,36556,0
1672,36508,0
1790,36532,0
1768,36521,0
1892,36522,0
1938,36547,0
2088,36557,0
2162,36542,0
2256,36520,0
2252,36530,0
2274,36526,0
2272,36521,0
2224,36560,0
2208,36543,0
2118,36504,0
2014,36519,0
1912,36522,0
1764,36526,0
1670,36547,0
1620,36537,0
1692,36534,0
1700,36497,0
1724,36551,0
1792,36524,0
1868,36538,0
1978,36553,0
2072,36541,0
2172,36518,0
2260,36513,0
2320,36505,0
2361,36520,0
2345,36539,0
2312,36536,0
2196,36500,0
2144,36510,0
1976,36514,0
1924,36499,0
1769,36519,0
1748,36534,0
1676,36524,0
1669,36497,0
1580,36511,0
1621,36499,0
1688,36505,0
1764,36520,0
1904,36525,0
2011,36505,0
2096,36495,0
2172,36499,0
2160,36498,0
2185,36507,0
2184,36477,0
2140,36516,0
2000,36501,0
1908,36483,0
1828,36520,0
1720,36491,0
1640,36488,0
1586,36515,0
1564,36515,0
1569,36469,0
1593,36481,0
1632,36486,0
1724,36487,0
1752,36493,0
1916,36501,0
1944,36499,0
2064,36470,0
2065,36478,0
2136,36483,0
2112,36479,0
2000,36502,0
1928,36505,0
1856,36462,0
1760,36477,0
1658,36482,0
1664,36473,0
1557,36484,0
1544,36490,0
1500,36489,0
1456,36457,0
1464,36467,0
1536,36462,0
1713,36477,0
1802,36437,0
1888,36463,0
1968,36456,0
2064,36473,0
2104,36476,0
2128,36485,0
2136,36454,0
2108,36451,0
2052,36456,0
1986,36462,0
1895,36463,0
1804,36479,0
1645,36454,0
1628,36453,0
1496,36457,0
1516,36444,0
1440,36453,0
1528,36480,0
1560,36475,0
1658,36434,0
1657,36450,0
1754,36450,0
1870,36448,0
1954,36474,0
2064,36471,0
2105,36431,0
2112,36451,0
2085,36438,0
2000,36443,0
1920,36465,0
1840,36470,0
1830,36466,0
1744,36457,0
1680,36457,0
1617,36438,0
1600,36456,0
1608,36442,0
1652,36464,0
1689,36462,0
1760,36434,0
1838,36448,0
1912,36445,0
1983,36444,0
2064,36479,0
2053,36473,0
2116,36436,0
2064,36455,0
2047,36449,0
1936,36442,0
1917,36457,0
1840,36479,0
1760,36467,0
1584,36447,0
1537,36448,0
1508,36453,0
1518,36458,0
1594,36481,0
1660,36468,0
1730,36438,0
1820,36454,0
1898,36451,0
1974,36458,0
2041,36465,0
2160,36446,0
2200,36481,0
2184,36445,0
2160,36482,0
2092,36467,0
2024,36455,0
1936,36458,0
1844,36455,0
1768,36488,0
1706,36475,0
1657,36436,0
1632,36473,0
1660,36450,0
1633,36458,0
1752,36480,0
1776,36496,0
1892,36451,0
1922,36458,0
2064,36458,0
2120,36455,0
2188,36462,0
2144,36492,0
2148,36488,0
2112,36441,0
2056,36458,0
2032,36469,0
1932,36471,0
1837,36484,0
1733,36484,0
1592,36460,0
1532,36464,0
1509,36469,0
1600,36481,0
1632,36474,0
1682,36431,0
1768,36481,0
1860,36464,0
1964,36459,0
2080,36476,0
2172,36498,0
2250,36482,0
2292,36454,0
2320,36479,0
2301,36475,0
2232,36473,0
2112,36485,0
2064,36499,0
1912,36444,0
1856,36474,0
1720,36466,0
1708,36466,0
1640,36496,0
1664,36485,0
1576,36457,0
1625,36479,0
1689,36470,0
1796,36470,0
1952,36489,0
2050,36494,0
2146,36472,0
2216,36470,0
2216,36472,0
2224,36472,0
2192,36466,0
2208,36480,0
2112,36463,0
2016,36475,0
1910,36492,0
1816,36488,0
1744,36471,0
1686,36468,0
1650,36481,0
1652,36501,0
1684,36496,0
1733,36459,0
1799,36468,0
1876,36474,0
1912,36476,0
2047,36492,0
2082,36501,0
2200,36467,0
2196,36480,0
2256,36485,0
2216,36476,0
2172,36492,0
2020,36496,0
1926,36486,0
1832,36481,0
1728,36472,0
1704,36469,0
1652,36482,0
1608,36504,0
1597,36499,0
1540,36465,0
1600,36489,0
1672,36474,0
1864,36485,0
1968,36506,0
2068,36490,0
2170,36485,0
2236,36501,0
2278,36475,0
2302,36478,0
2296,36501,0
2242,36498,0
2170,36481,0
2080,36485,0
1970,36475,0
1892,36475,0
1752,36510,0
1745,36508,0
1642,36460,0
1674,36481,0
1616,36483,0
1716,36480,0
1761,36513,0
1848,36500,0
1856,36475,0
1948,36499,0
2056,36484,0
2140,36493,0
2232,36500,0
2228,36515,0
2213,36508,0
2153,36481,0
2024,36486,0
1920,36484,0
1820,36486,0
1820,36494,0
1738,36510,0
1682,36468,0
1644,36506,0
1644,36488,0
1690,36498,0
1752,36499,0
1830,36498,0
1940,36515,0
2056,36513,0
2164,36475,0
2233,36498,0
2320,36494,0
2308,36502,0
2368,36510,0
2264,36509,0
2224,36489,0
2092,36495,0
2024,36494,0
1908,36500,0
1825,36535,0
1660,36523,0
1620,36488,0
1597,36502,0
1610,36493,0
1692,36504,0
1744,36525,0
1820,36528,0
1917,36490,0
1952,36496,0
2068,36499,0
2162,36493,0
2312,36489,0
2372,36513,0
2384,36500,0
2380,36514,0
2336,36498,0
2260,36496,0
2192,36498,0
2100,36537,0
2012,36524,0
1924,36482,0
1868,36504,0
1819,36506,0
1808,36497,0
1768,36519,0
1872,36525,0
1866,36476,0
2000,36504,0
2050,36493,0
2188,36497,0
2272,36528,0
2344,36523,0
2344,36490,0
2358,36495,0
2364,36497,0
2304,36496,0
2216,36514,0
2180,36528,0
2082,36522,0
1990,36494,0
1848,36494,0
1770,36499,0
1788,36527,0
1806,36497,0
1858,36510,0
1905,36499,0
1984,36526,0
2064,36511,0
2120,36499,0
2184,36501,0
2226,36497,0
2246,36516,0
2240,36526,0
2192,36519,0
2144,36498,0
2032,36493,0
1996,36510,0
1872,36505,0
1856,36530,0
1744,36531,0
1756,36489,0
1733,36506,0
1648,36500,0
1681,36505,0
1734,36523,0
1792,36528,0
1878,36486,0
2016,36501,0
2112,36507,0
2194,36496,0
2261,36504,0
2264,36525,0
2280,36525,0
2262,36488,0
2252,36527,0
2168,36515,0
2074,36499,0
1960,36517,0
1856,36502,0
1768,36501,0
1700,36497,0
1682,36501,0
1688,36515,0
1720,36521,0
1776,36502,0
1836,36497,0
1937,36489,0
1972,36498,0
2092,36507,0
2116,36526,0
2160,36503,0
2084,36490,0
2044,36496,0
1906,36501,0
1768,36510,0
1488,36528,0
1308,36518,0
1130,36477,0
977,36506,0
934,36497,0
856,36491,0
812,36510,0
805,36520,0
732,36496,0
796,36496,0
884,36493,0
1146,36474,0
1262,36515,0
1386,36497,0
1512,36513,0
1596,36507,0
1658,36493,0
1688,36487,0
1674,36527,0
1644,36519,0
1624,36484,0
1544,36496,0
1470,36494,0
1444,36491,0
1352,36517,0
1416,36528,0
1384,36478,0
1525,36502,0
1652,36495,0
1814,36494,0
2002,36519,0
2136,36526,0
2352,36499,0
2538,36502,0
2688,36505,0
2776,36502,0
2828,36508,0
2812,36525,0
2728,36517,0
2620,36493,0
2432,36492,0
2266,36491,0
2113,36500,0
2047,36487,0
1954,36521,0
1908,36525,0
1888,36499,0
1896,36504,0
1968,36509,0
2064,36528,0
2196,36536,0
2346,36489,0
2496,36511,0
2640,36508,0
2739,36511,0
2840,36522,0
2852,36540,0
2868,36523,0
2776,36504,0
2704,36510,0
2524,36504,0
2384,36524,0
2200,36547,0
2024,36527,0
1778,36501,0
1640,36517,0
1512,36514,0
1449,36509,0
1465,36534,0
1481,36540,0
1506,36509,0
1562,36520,0
1580,36520,0
1656,36518,0
1714,36533,0
1860,36514,0
1882,36521,0
1864,36529,0
1816,36528,0
1740,36522,0
1648,36538,0
1552,36505,0
1444,36516,0
1377,36514,0
1288,36520,0
1246,36550,0
1194,36548,0
1246,36500,0
1226,36532,0
1344,36517,0
1346,36528,0
1504,36530,0
1552,36547,0
1700,36550,0
1762,36521,0
1832,36529,0
1772,36526,0
1766,36528,0
1720,36560,0
1650,36545,0
1608,36513,0
1531,36534,0
1444,36536,0
1360,36537,0
1232,36564,0
1192,36551,0
1184,36512,0
1324,36545,0
1369,36548,0
1424,36540,0
1501,36529,0
1580,36522,0
1666,36540,0
1746,36561,0
1800,36557,0
1841,36526,0
1844,36537,0
1832,36543,0
1765,36534,0
1704,36559,0
1553,36565,0
1524,36517,0
1372,36547,0
1368,36548,0
1236,36542,0
1286,36566,0
1240,36564,0
1300,36533,0
1221,36533,0
1288,36538,0
1386,36530,0
1494,36543,0
1632,36563,0
1742,36555,0
1824,36541,0
1869,36533,0
1828,36531,0
1824,36551,0
1782,36564,0
1800,36547,0
1720,36555,0
1618,36564,0
1529,36543,0
1442,36555,0
1389,36544,0
1344,36538,0
1330,36546,0
1352,36553,0
1384,36573,0
1452,36539,0
1512,36551,0
1632,36543,0
1664,36536,0
1812,36561,0
1832,36582,0
1936,36555,0
1904,36543,0
1954,36546,0
1880,36542,0
1840,36538,0
1644,36574,0
1548,36569,0
1449,36532,0
1361,36550,0
1368,36552,0
1332,36547,0
1324,36574,0
1366,36574,0
1320,36552,0
1401,36560,0
1502,36550,0
1712,36558,0
1805,36553,0
1906,36561,0
1980,36565,0
2026,36583,0
2046,36584,0
2034,36540,0
1989,36557,0
1912,36561,0
1816,36573,0
1712,36569,0
1584,36583,0
1521,36577,0
1392,36560,0
1414,36561,0
1344,36560,0
1426,36571,0
1420,36589,0
1552,36591,0
1632,36561,0
1756,36576,0
1760,36576,0
1852,36589,0
1936,36610,0
1992,36580,0
2069,36582,0
2040,36578,0
1989,36576,0
1923,36594,0
1769,36610,0
1665,36606,0
1585,36630,0
1548,36609,0
1498,36599,0
1476,36592,0
1504,36595,0
1557,36626,0
1624,36613,0
1718,36589,0
1813,36602,0
1914,36606,0
2020,36608,0
2079,36636,0
2136,36627,0
2106,36603,0
2136,36617,0
2040,36608,0
2016,36604,0
1872,36635,0
1832,36638,0
1708,36607,0
1552,36616,0
1497,36616,0
1456,36618,0
1449,36638,0
1466,36650,0
1585,36613,0
1668,36627,0
1756,36616,0
1862,36632,0
1912,36649,0
2009,36672,0
2104,36628,0
2212,36681,0
2226,36630,0
2218,36650,0
2176,36643,0
2100,36627,0
2016,36645,0
1914,36642,0
1826,36652,0
1756,36658,0
1702,36681,0
1662,36653,0
1636,36653,0
1682,36659,0
1674,36651,0
1812,36670,0
1842,36686,0
1994,36656,0
2040,36658,0
2188,36656,0
2248,36651,0
2312,36669,0
2268,36695,0
2253,36691,0
2196,36653,0
2116,36667,0
2074,36663,0
1980,36672,0
1893,36696,0
1822,36694,0
1697,36662,0
1656,36675,0
1660,36672,0
1780,36681,0
1828,36686,0
1900,36684,0
1984,36685,0
2088,36665,0
2188,36679,0
2268,36677,0
2338,36678,0
2384,36677,0
2396,36707,0
2368,36708,0
2312,36654,0
2248,36682,0
2116,36673,0
2056,36676,0
1922,36703,0
1890,36702,0
1777,36665,0
1790,36682,0
1768,36673,0
1804,36672,0
1756,36702,0
1820,36700,0
1920,36667,0
1996,36681,0
2160,36678,0
2242,36668,0
2292,36682,0
2344,36696,0
2320,36693,0
2288,36679,0
2240,36689,0
2224,36666,0
2128,36690,0
2026,36690,0
1936,36682,0
1860,36668,0
1784,36678,0
1749,36673,0
1742,36671,0
1756,36661,0
1802,36686,0
1868,36694,0
1949,36670,0
2040,36660,0
2096,36666,0
2228,36680,0
2256,36683,0
2336,36691,0
2300,36668,0
2328,36662,0
2266,36670,0
2196,36664,0
2032,36670,0
1930,36694,0
1841,36688,0
1752,36643,0
1752,36660,0
1706,36654,0
1702,36661,0
1734,36680,0
1706,36685,0
1787,36642,0
1880,36669,0
2064,36672,0
2146,36650,0
2228,36657,0
2284,36672,0
2320,36649,0
2328,36657,0
2288,36655,0
2236,36668,0
2160,36674,0
2072,36663,0
1984,36659,0
1880,36660,0
1820,36655,0
1698,36659,0
1736,36675,0
1669,36666,0
1756,36653,0
1744,36649,0
1874,36663,0
1952,36654,0
2064,36673,0
2080,36686,0
2178,36650,0
2244,36662,0
2272,36659,0
2320,36651,0
2318,36666,0
2236,36679,0
2168,36661,0
2008,36647,0
1922,36645,0
1826,36656,0
1868,36654,0
1780,36669,0
1760,36678,0
1752,36652,0
1792,36658,0
1844,36637,0
1920,36654,0
2009,36654,0
2108,36647,0
2204,36674,0
2289,36678,0
2332,36667,0
2388,36656,0
2368,36653,0
2368,36651,0
2280,36652,0
2224,36681,0
2096,36668,0
2042,36655,0
1936,36658,0
1880,36653,0
1724,36670,0
1689,36691,0
1688,36684,0
1728,36638,0
1832,36652,0
1904,36653,0
1984,36651,0
2077,36687,0
2144,36685,0
2224,36639,0
2289,36651,0
2392,36640,0
2396,36668,0
2378,36639,0
2324,36674,0
2240,36659,0
2152,36671,0
2056,36676,0
1972,36654,0
1896,36651,0
1836,36654,0
1812,36652,0
1809,36662,0
1844,36674,0
1836,36654,0
1964,36651,0
2008,36654,0
2152,36658,0
2197,36660,0
2320,36684,0
2360,36673,0
2416,36641,0
2348,36659,0
2324,36645,0
2260,36660,0
2177,36677,0
2128,36677,0
2026,36647,0
1942,36661,0
1881,36655,0
1752,36658,0
1748,36682,0
1744,36692,0
1856,36662,0
1924,36685,0
1988,36677,0
2074,36661,0
2164,36665,0
2248,36664,0
2324,36666,0
2412,36689,0
2416,36700,0
2416,36665,0
2392,36674,0
2328,36671,0
2256,36671,0
2136,36671,0
2072,36692,0
1936,36695,0
1918,36657,0
1808,36682,0
1848,36681,0
1825,36684,0
1880,36704,0
1836,36712,0
1920,36688,0
2012,36681,0
2116,36689,0
2264,36683,0
2336,36701,0
2384,36716,0
2426,36709,0
2392,36681,0
2352,36701,0
2288,36690,0
2280,36690,0
2188,36721,0
2096,36724,0
2016,36696,0
1940,36716,0
1884,36724,0
1860,36714,0
1872,36696,0
1900,36704,0
1964,36706,0
2032,36705,0
2102,36740,0
2208,36732,0
2264,36690,0
2384,36711,0
2400,36720,0
2456,36712,0
2424,36736,0
2432,36737,0
2344,36698,0
2288,36715,0
2112,36720,0
2010,36722,0
1920,36742,0
1845,36742,0
1852,36709,0
1832,36720,0
1836,36711,0
1883,36712,0
1876,36741,0
1958,36742,0
2228,36716,0
2312,36727,0
2380,36742,0
2440,36727,0
2464,36721,0
2460,36755,0
2420,36705,0
2354,36731,0
2280,36724,0
2188,36725,0
2104,36740,0
2015,36747,0
1948,36726,0
1852,36729,0
1904,36728,0
1852,36721,0
1937,36728,0
1946,36751,0
2072,36752,0
2136,36710,0
2176,36719,0
2272,36728,0
2348,36725,0
2400,36749,0
2420,36752,0
2448,36702,0
2408,36717,0
2341,36717,0
2262,36728,0
2132,36730,0
2037,36748,0
1948,36735,0
1964,36716,0
1922,36725,0
1900,36737,0
1909,36697,0
1944,36717,0
2002,36736,0
2072,36706,0
2162,36712,0
2258,36713,0
2340,36701,0
2416,36735,0
2458,36733,0
2484,36703,0
2436,36709,0
2428,36713,0
2328,36708,0
2282,36708,0
2176,36732,0
2090,36729,0
2012,36686,0
1956,36713,0
1816,36706,0
1797,36703,0
1808,36727,0
1856,36734,0
1972,36692,0
2041,36709,0
2145,36700,0
2234,36700,0
2276,36706,0
2380,36726,0
2448,36716,0
2512,36717,0
2512,36693,0
2472,36711,0
2408,36662,0
2332,36711,0
2240,36724,0
2140,36691,0
2068,36713,0
1994,36708,0
1960,36695,0
1946,36704,0
1940,36732,0
2004,36718,0
2024,36698,0
2162,36701,0
2216,36704,0
2352,36705,0
2416,36730,0
2520,36733,0
2568,36685,0
2596,36709,0
2548,36710,0
2501,36713,0
2436,36728,0
2342,36742,0
2284,36728,0
2192,36715,0
2122,36721,0
2052,36711,0
1960,36717,0
1949,36747,0
1949,36738,0
2076,36733,0
2132,36753,0
2204,36722,0
2288,36743,0
2376,36748,0
2460,36731,0
2528,36749,0
2572,36771,0
2592,36749,0
2576,36730,0
2528,36735,0
2450,36734,0
2368,36752,0
2220,36767,0
2164,36768,0
2032,36744,0
2008,36759,0
1920,36746,0
1936,36751,0
1924,36783,0
1978,36780,0
1960,36746,0
2024,36760,0
2128,36758,0
2200,36767,0
2330,36777,0
2384,36802,0
2441,36787,0
2461,36772,0
2416,36779,0
2358,36788,0
2293,36786,0
2272,36803,0
2184,36800,0
2096,36783,0
2016,36817,0
1940,36803,0
1912,36764,0
1892,36795,0
1908,36794,0
1956,36795,0
2008,36809,0
2084,36824,0
2164,36798,0
2272,36809,0
2320,36810,0
2436,36809,0
2424,36814,0
2488,36831,0
2432,36831,0
2430,36811,0
2348,36822,0
2280,36812,0
2116,36817,0
2020,36852,0
1948,36843,0
1921,36797,0
2000,36824,0
1902,36823,0
1922,36819,0
1962,36837,0
1992,36842,0
2069,36810,0
2169,36825,0
2330,36840,0
2416,36847,0
2472,36815,0
2520,36825,0
2516,36847,0
2488,36823,0
2424,36830,0
2336,36858,0
2226,36838,0
2104,36829,0
1992,36833,0
1872,36820,0
1808,36828,0
1696,36859,0
1724,36850,0
1696,36813,0
1788,36825,0
1796,36818,0
1944,36826,0
2028,36851,0
2140,36850,0
2168,36836,0
2272,36822,0
2372,36818,0
2400,36814,0
2484,36826,0
2490,36849,0
2490,36843,0
2480,36811,0
2432,36831,0
2452,36812,0
2492,36813,0
2616,36797,0
2732,36820,0
2864,36820,0
3024,36790,0
3212,36827,0
3408,36788,0
3568,36814,0
3716,36814,0
3832,36810,0
3912,36823,0
3952,36840,0
3935,36823,0
3888,36808,0
3840,36804,0
3708,36794,0
3592,36833,0
3464,36830,0
3336,36810,0
3236,36809,0
3152,36805,0
3092,36811,0
3024,36805,0
3016,36830,0
3040,36827,0
3072,36783,0
3156,36800,0
3189,36795,0
3252,36799,0
3288,36821,0
3328,36825,0
3344,36793,0
3316,36795,0
3272,36782,0
3188,36805,0
3068,36807,0
2930,36796,0
2772,36793,0
2616,36795,0
2480,36829,0
2326,36818,0
2220,36792,0
2132,36799,0
2090,36798,0
2066,36793,0
2092,36815,0
2056,36822,0
2160,36832,0
2224,36787,0
2300,36812,0
2320,36807,0
2408,36811,0
2464,36832,0
2465,36830,0
2392,36815,0
2320,36820,0
2240,36816,0
2146,36818,0
2096,36834,0
2003,36855,0
1931,36829,0
1872,36828,0
1778,36835,0
1769,36827,0
1788,36848,0
1916,36825,0
1986,36843,0
2047,36853,0
2148,36809,0
2218,36825,0
2298,36845,0
2344,36836,0
2388,36852,0
2392,36885,0
2362,36885,0
2308,36837,0
2224,36858,0
2132,36856,0
1984,36855,0
1948,36883,0
1816,36893,0
1820,36846,0
1728,36865,0
1772,36866,0
1786,36876,0
1845,36898,0
1832,36902,0
1924,36863,0
2032,36883,0
2128,36890,0
2252,36889,0
2312,36889,0
2352,36908,0
2357,36900,0
2296,36888,0
2232,36889,0
2124,36915,0
2021,36920,0
1929,36913,0
1860,36905,0
1776,36887,0
1748,36919,0
1745,36933,0
1760,36891,0
1804,36911,0
1888,36909,0
1976,36908,0
2044,36923,0
2174,36941,0
2208,36930,0
2312,36911,0
2305,36918,0
2352,36907,0
2308,36913,0
2276,36935,0
2192,36937,0
2042,36882,0
1931,36918,0
1842,36920,0
1769,36916,0
1712,36931,0
1720,36948,0
1732,36903,0
1755,36912,0
1808,36913,0
1824,36916,0
1920,36931,0
2018,36946,0
2180,36915,0
2274,36926,0
2328,36936,0
2365,36934,0
2372,36938,0
2346,36925,0
2288,36911,0
2218,36926,0
2122,36950,0
2029,36942,0
1944,36899,0
1855,36923,0
1816,36912,0
1720,36914,0
1785,36936,0
1744,36950,0
1848,36933,0
1872,36921,0
2004,36916,0
2096,36917,0
2204,36913,0
2212,36933,0
2277,36939,0
2309,36904,0
2320,36923,0
2336,36917,0
2278,36920,0
2196,36941,0
2099,36947,0
1944,36909,0
1856,36930,0
1785,36915,0
1824,36911,0
1790,36931,0
1800,36947,0
1820,36906,0
1872,36923,0
1944,36922,0
2024,36951,0
2114,36953,0
2200,36909,0
2284,36930,0
2340,36916,0
2376,36925,0
2388,36957,0
2320,36956,0
2312,36905,0
2208,36927,0
2148,36934,0
2000,36934,0
1988,36957,0
1880,36945,0
1840,36913,0
1717,36932,0
1717,36933,0
1753,36935,0
1812,36965,0
1929,36958,0
2017,36918,0
2120,36925,0
2212,36926,0
2256,36939,0
2324,36964,0
2356,36952,0
2420,36957,0
2390,36912,0
2348,36959,0
2268,36937,0
2184,36954,0
2096,36958,0
2020,36929,0
1945,36952,0
1904,36937,0
1884,36941,0
1872,36969,0
1890,36967,0
1968,36942,0
1988,36935,0
2120,36958,0
2180,36935,0
2320,36958,0
2360,36969,0
2448,36961,0
2472,36942,0
2488,36953,0
2394,36940,0
2346,36950,0
2256,36956,0
2164,36961,0
2114,36933,0
2018,36951,0
1954,36942,0
1910,36960,0
1825,36971,0
1824,36973,0
1856,36923,0
2008,36962,0
2088,36938,0
2172,36962,0
2265,36968,0
2368,36933,0
2440,36941,0
2504,36940,0
2524,36941,0
2528,36970,0
2502,36962,0
2440,36933,0
2369,36940,0
2276,36946,0
2144,36935,0
2112,36937,0
1996,36963,0
1992,36948,0
1918,36922,0
1986,36921,0
1996,36920,0
2080,36924,0
2068,36953,0
2162,36950,0
2264,36910,0
2360,36920,0
2472,36921,0
2522,36911,0
2552,36926,0
2564,36929,0
2472,36901,0
2432,36901,0
2340,36899,0
2314,36913,0
2220,36899,0
2129,36900,0
2064,36906,0
2010,36886,0
1984,36910,0
1984,36912,0
2014,36888,0
2056,36882,0
2124,36877,0
2212,36872,0
2285,36887,0
2376,36892,0
2408,36876,0
2490,36865,0
2480,36861,0
2508,36856,0
2432,36872,0
2402,36880,0
2312,36879,0
2224,36848,0
2052,36862,0
1960,36854,0
1890,36851,0
1844,36861,0
1864,36863,0
1866,36832,0
1904,36835,0
1952,36841,0
1962,36844,0
2057,36856,0
2132,36843,0
2296,36823,0
2364,36827,0
2392,36825,0
2424,36834,0
2408,36837,0
2372,36805,0
2300,36826,0
2216,36838,0
2122,36791,0
2032,36804,0
1952,36805,0
1857,36803,0
1832,36815,0
1753,36827,0
1824,36814,0
1808,36782,0
1904,36797,0
1944,36782,0
2074,36798,0
2148,36823,0
2240,36821,0
2252,36789,0
2305,36784,0
2328,36793,0
2330,36792,0
2324,36785,0
2250,36816,0
2168,36813,0
2086,36765,0
1924,36778,0
1828,36775,0
1750,36787,0
1796,36788,0
1766,36791,0
1780,36794,0
1818,36785,0
1864,36807,0
1940,36804,0
2032,36765,0
2140,36772,0
2220,36778,0
2292,36781,0
2345,36792,0
2373,36805,0
2364,36805,0
2281,36766,0
2256,36786,0
2128,36773,0
2068,36785,0
1921,36806,0
1882,36807,0
1800,36777,0
1788,36781,0
1672,36783,0
1677,36774,0
1728,36808,0
1780,36819,0
1920,36789,0
2015,36788,0
2112,36793,0
2196,36781,0
2228,36796,0
2280,36815,0
2309,36815,0
2360,36798,0
2312,36776,0
2260,36810,0
2156,36797,0
2068,36783,0
1980,36792,0
1892,36808,0
1832,36824,0
1784,36799,0
1772,36792,0
1780,36788,0
1794,36789,0
1876,36803,0
1902,36816,0
2044,36821,0
2096,36791,0
2224,36799,0
2252,36790,0
2336,36805,0
2345,36833,0
2338,36816,0
2240,36777,0
2160,36804,0
2064,36803,0
1965,36798,0
1932,36808,0
1832,36822,0
1772,36815,0
1750,36790,0
1656,36811,0
1674,36795,0
1876,36796,0
1956,36806,0
2056,36826,0
2140,36796,0
2224,36804,0
2296,36801,0
2340,36788,0
2360,36816,0
2348,36821,0
2306,36810,0
2232,36794,0
2128,36803,0
2036,36798,0
1892,36800,0
1876,36820,0
1752,36815,0
1756,36780,0
1688,36787,0
1752,36788,0
1780,36793,0
1772,36807,0
1856,36817,0
1952,36825,0
2060,36783,0
2144,36799,0
2260,36793,0
2310,36791,0
2332,36812,0
2332,36820,0
2244,36778,0
2177,36792,0
2085,36783,0
2064,36796,0
1968,36803,0
1888,36771,0
1828,36804,0
1780,36773,0
1760,36811,0
1776,36790,0
1816,36786,0
1872,36781,0
1952,36784,0
2040,36781,0
2130,36809,0
2212,36805,0
2248,36762,0
2324,36782,0
2308,36777,0
2332,36774,0
2242,36800,0
2220,36802,0
2105,36790,0
2072,36762,0
1856,36784,0
1776,36774,0
1701,36773,0
1654,36800,0
1688,36804,0
1716,36765,0
1754,36774,0
1818,36770,0
1840,36777,0
1936,36792,0
2052,36805,0
2200,36784,0
2264,36798,0
2306,36778,0
2324,36787,0
2312,36769,0
2260,36776,0
2180,36764,0
2096,36797,0
2000,36803,0
1916,36754,0
1828,36775,0
1752,36768,0
1738,36773,0
1664,36790,0
1734,36804,0
1732,36768,0
1842,36771,0
1857,36770,0
1994,36767,0
2096,36778,0
2192,36790,0
2176,36776,0
2232,36771,0
2250,36777,0
2228,36775,0
2220,36779,0
2148,36794,0
2057,36790,0
1957,36775,0
1796,36773,0
1729,36782,0
1648,36775,0
1720,36787,0
1696,36800,0
1732,36782,0
1744,36760,0
1816,36776,0
1900,36771,0
1988,36777,0
2108,36778,0
2160,36782,0
2225,36785,0
2288,36798,0
2264,36801,0
2268,36775,0
2176,36778,0
2152,36790,0
2020,36781,0
1960,36811,0
1820,36802,0
1788,36773,0
1712,36791,0
1696,36778,0
1576,36781,0
1588,36818,0
1643,36812,0
1706,36775,0
1840,36784,0
1941,36788,0
2036,36785,0
2124,36808,0
2136,36813,0
2196,36777,0
2212,36785,0
2248,36776,0
2212,36788,0
2138,36798,0
2056,36811,0
1960,36817,0
1892,36821,0
1800,36834,0
1754,36793,0
1724,36794,0
1712,36803,0
1740,36797,0
1797,36806,0
1872,36828,0
1920,36825,0
2064,36792,0
2116,36798,0
2252,36798,0
2280,36809,0
2368,36832,0
2352,36825,0
2344,36784,0
2228,36811,0
2150,36794,0
2048,36806,0
1952,36818,0
1892,36823,0
1814,36814,0
1760,36803,0
1728,36805,0
1648,36808,0
1664,36818,0
1714,36848,0
1880,36825,0
1952,36808,0
2046,36834,0
2140,36812,0
2216,36817,0
2284,36796,0
2320,36805,0
2328,36810,0
2288,36808,0
2252,36831,0
2176,36850,0
2050,36813,0
1968,36807,0
1820,36812,0
1780,36815,0
1668,36818,0
1680,36845,0
1600,36839,0
1682,36792,0
1712,36809,0
1800,36819,0
1785,36805,0
1880,36829,0
1989,36831,0
2068,36799,0
2176,36815,0
2217,36810,0
2224,36811,0
2200,36817,0
2104,36828,0
2014,36829,0
1924,36797,0
1908,36824,0
1816,36813,0
1750,36830,0
1658,36810,0
1644,36817,0
1643,36837,0
1666,36836,0
1714,36789,0
1784,36820,0
1856,36812,0
1956,36797,0
2036,36813,0
2124,36830,0
2148,36813,0
2232,36796,0
2196,36801,0
2204,36804,0
2112,36808,0
2080,36832,0
1972,36827,0
1882,36794,0
1692,36812,0
1608,36797,0
1560,36811,0
1517,36838,0
1580,36832,0
1601,36797,0
1658,36807,0
1736,36809,0
1760,36798,0
1858,36831,0
1956,36818,0
2114,36819,0
2176,36803,0
2204,36816,0
2202,36812,0
2160,36789,0
2092,36805,0
1992,36798,0
1876,36795,0
1752,36824,0
1632,36824,0
1528,36811,0
1421,36808,0
1392,36804,0
1288,36793,0
1361,36813,0
1344,36831,0
1468,36819,0
1478,36798,0
1644,36796,0
1704,36807,0
1826,36805,0
1796,36842,0
1848,36832,0
1875,36795,0
1876,36815,0
1918,36804,0
1882,36801,0
1845,36838,0
1812,36834,0
1748,36787,0
1765,36806,0
2000,36816,0
2154,36821,0
2332,36808,0
2536,36805,0
2756,36816,0
2984,36803,0
3184,36839,0
3368,36836,0
3496,36802,0
3564,36813,0
3580,36813,0
3561,36801,0
3480,36823,0
3360,36832,0
3224,36806,0
3056,36800,0
2904,36806,0
2744,36810,0
2660,36828,0
2569,36832,0
2480,36810,0
2469,36811,0
2496,36810,0
2546,36814,0
2624,36824,0
2728,36844,0
2804,36834,0
2880,36815,0
2936,36817,0
2944,36805,0
2944,36820,0
2884,36832,0
2832,36842,0
2728,36826,0
2584,36811,0
2432,36807,0
2272,36832,0
2126,36816,0
1993,36815,0
1882,36813,0
1816,36845,0
1760,36839,0
1754,36812,0
1756,36817,0
1802,36825,0
1816,36819,0
1945,36832,0
1976,36841,0
2076,36849,0
2080,36800,0
2136,36827,0
2120,36817,0
2096,36825,0
1942,36832,0
1858,36851,0
1752,36808,0
1652,36823,0
1620,36826,0
1560,36821,0
1500,36838,0
1492,36861,0
1413,36851,0
1448,36812,0
1512,36838,0
1684,36842,0
1768,36848,0
1864,36832,0
1944,36813,0
2032,36841,0
2084,36854,0
2106,36855,0
2096,36810,0
2064,36836,0
2000,36840,0
1916,36842,0
1825,36858,0
1732,36865,0
1580,36825,0
1572,36844,0
1450,36833,0
1488,36841,0
1416,36847,0
1517,36870,0
1552,36872,0
1656,36832,0
1637,36845,0
1746,36837,0
1841,36849,0
1925,36869,0
2024,36868,0
2060,36819,0
2056,36848,0
2020,36835,0
1896,36846,0
1812,36857,0
1716,36864,0
1700,36830,0
1628,36851,0
1544,36854,0
1490,36856,0
1464,36861,0
1470,36839,0
1500,36858,0
1562,36878,0
1634,36885,0
1740,36834,0
1840,36857,0
1914,36856,0
2008,36843,0
2020,36867,0
2096,36883,0
2046,36838,0
2056,36853,0
1928,36856,0
1898,36858,0
1788,36866,0
1704,36879,0
1506,36832,0
1437,36859,0
1380,36850,0
1353,36859,0
1432,36863,0
1465,36880,0
1526,36845,0
1620,36860,0
1648,36852,0
1760,36861,0
1841,36869,0
2012,36888,0
2064,36875,0
2084,36858,0
2084,36875,0
2046,36852,0
2000,36841,0
1889,36857,0
1808,36857,0
1700,36860,0
1626,36881,0
1535,36873,0
1464,36848,0
1472,36854,0
1408,36851,0
1508,36853,0
1520,36878,0
1656,36879,0
1696,36852,0
1844,36853,0
1930,36854,0
2016,36850,0
1988,36871,0
2020,36885,0
2020,36877,0
1984,36841,0
2032,36856,0
1860,36854,0
1761,36855,0
1673,36871,0
1504,36874,0
1428,36838,0
1384,36847,0
1472,36856,0
1488,36822,0
1524,36872,0
1592,36850,0
1676,36877,0
1780,36848,0
1868,36847,0
1944,36850,0
2032,36850,0
2088,36869,0
2120,36876,0
2105,36859,0
2066,36846,0
1952,36849,0
1904,36841,0
1766,36872,0
1720,36886,0
1576,36876,0
1569,36831,0
1492,36860,0
1504,36854,0
1396,36855,0
1433,36873,0
1504,36872,0
1592,36842,0
1744,36841,0
1859,36847,0
1944,36848,0
2024,36876,0
2032,36877,0
2060,36832,0
2064,36846,0
2088,36856,0
2040,36844,0
1946,36830,0
1854,36848,0
1764,36832,0
1676,36866,0
1604,36853,0
1568,36834,0
1529,36849,0
1562,36836,0
1616,36845,0
1655,36865,0
1756,36866,0
1808,36820,0
1957,36841,0
2008,36844,0
2124,36825,0
2128,36849,0
2192,36865,0
2180,36828,0
2152,36834,0
1996,36837,0
1904,36825,0
1814,36844,0
1712,36854,0
1672,36840,0
1626,36839,0
1582,36830,0
1576,36830,0
1514,36839,0
1568,36854,0
1640,36845,0
1825,36847,0
1924,36835,0
2016,36824,0
2104,36823,0
2185,36834,0
2236,36845,0
2256,36816,0
2248,36818,0
2204,36814,0
2132,36804,0
2040,36814,0
1924,36844,0
1841,36840,0
1704,36794,0
1704,36810,0
1609,36805,0
1642,36808,0
1602,36835,0
1712,36833,0
1764,36800,0
1860,36800,0
1868,36806,0
1964,36789,0
2068,36807,0
2144,36818,0
2232,36815,0
2260,36778,0
2232,36793,0
2185,36792,0
2068,36790,0
1984,36818,0
1874,36809,0
1864,36789,0
1778,36800,0
1716,36787,0
1658,36790,0
1648,36780,0
1642,36779,0
1688,36807,0
1748,36797,0
1828,36761,0
1942,36778,0
2024,36768,0
2085,36769,0
2154,36789,0
2163,36797,0
2212,36754,0
2152,36767,0
2140,36766,0
2016,36768,0
1970,36786,0
1840,36790,0
1772,36771,0
1576,36759,0
1512,36757,0
1460,36757,0
1458,36772,0
1520,36785,0
1574,36775,0
1648,36745,0
1724,36759,0
1748,36756,0
1848,36752,0
2088,36759,0
2142,36777,0
2152,36730,0
2136,36771,0
2080,36754,0
2016,36785,0
1918,36770,0
1816,36747,0
1720,36757,0
1632,36755,0
1574,36754,0
1513,36788,0
1500,36774,0
1465,36741,0
1564,36749,0
1572,36758,0
1720,36750,0
1776,36771,0
1904,36789,0
1968,36753,0
1968,36752,0
2016,36759,0
2034,36750,0
2008,36774,0
1964,36782,0
1936,36774,0
1844,36759,0
1742,36752,0
1646,36758,0
1488,36776,0
1424,36784,0
1383,36768,0
1492,36759,0
1516,36782,0
1556,36732,0
1636,36774,0
1720,36761,0
1825,36772,0
1928,36754,0
2016,36768,0
2080,36760,0
2132,36760,0
2136,36786,0
2120,36791,0
2074,36745,0
1940,36774,0
1900,36765,0
1748,36760,0
1708,36785,0
1568,36792,0
1554,36775,0
1504,36761,0
1504,36765,0
1430,36769,0
1473,36772,0
1546,36789,0
1642,36774,0
1882,36766,0
1907,36770,0
1996,36766,0
2082,36776,0
2068,36790,0
2084,36787,0
2049,36746,0
2096,36767,0
2014,36762,0
1920,36786,0
1826,36745,0
1728,36779,0
1652,36790,0
1588,36797,0
1544,36751,0
1544,36766,0
1562,36774,0
1604,36765,0
1684,36791,0
1776,36795,0
1817,36751,0
1968,36768,0
2008,36761,0
2122,36761,0
2124,36785,0
2180,36784,0
2144,36783,0
2108,36755,0
1944,36760,0
1882,36769,0
1752,36756,0
1648,36803,0
1725,36796,0
1568,36746,0
1532,36763,0
1520,36761,0
1480,36767,0
1532,36787,0
1605,36790,0
1798,36770,0
1896,36791,0
1994,36758,0
2096,36773,0
2160,36786,0
2200,36753,0
2208,36775,0
2196,36791,0
2144,36775,0
2066,36762,0
1964,36768,0
1853,36765,0
1768,36772,0
1632,36780,0
1634,36768,0
1538,36761,0
1596,36758,0
1544,36754,0
1660,36758,0
1724,36786,0
1824,36783,0
1820,36738,0
1928,36762,0
2028,36758,0
2088,36758,0
2180,36770,0
2184,36779,0
2170,36762,0
2128,36756,0
1992,36750,0
1900,36753,0
1796,36774,0
1808,36766,0
1721,36774,0
1669,36761,0
1633,36759,0
1632,36739,0
1645,36750,0
1700,36743,0
1766,36764,0
1872,36777,0
1972,36782,0
2068,36737,0
2136,36747,0
2212,36741,0
2216,36753,0
2260,36761,0
2196,36786,0
2180,36770,0
2048,36756,0
2008,36760,0
1896,36751,0
1812,36759,0
1634,36790,0
1582,36781,0
1542,36740,0
1536,36756,0
1632,36764,0
1684,36756,0
1766,36782,0
1862,36776,0
1912,36747,0
2010,36762,0
2116,36759,0
2240,36774,0
2290,36775,0
2292,36776,0
2249,36771,0
2196,36791,0
2116,36784,0
2024,36752,0
1950,36754,0
1832,36762,0
1752,36762,0
1704,36779,0
1629,36792,0
1649,36748,0
1620,36771,0
1724,36767,0
1740,36776,0
1892,36790,0
1940,36794,0
2080,36764,0
2160,36764,0
2146,36766,0
2208,36770,0
2220,36782,0
2192,36795,0
2136,36780,0
2096,36770,0
2001,36773,0
1906,36771,0
1822,36768,0
1680,36797,0
1620,36793,0
1576,36757,0
1684,36777,0
1706,36797,0
1748,36779,0
1821,36775,0
1904,36757,0
2002,36768,0
2130,36781,0
2184,36803,0
2248,36815,0
2276,36775,0
2280,36788,0
2249,36776,0
2176,36780,0
2080,36802,0
2020,36808,0
1876,36776,0
1842,36774,0
1714,36779,0
1712,36761,0
1666,36790,0
1712,36823,0
1612,36814,0
1676,36763,0
1752,36788,0
1848,36787,0
1996,36794,0
2104,36814,0
2180,36818,0
2256,36791,0
2240,36786,0
2257,36794,0
2216,36801,0
2224,36815,0
2145,36811,0
2047,36807,0
1944,36811,0
1856,36793,0
1776,36825,0
1717,36817,0
1696,36788,0
1696,36801,0
1720,36793,0
1764,36800,0
1839,36822,0
1952,36830,0
2000,36785,0
2138,36810,0
2192,36790,0
2280,36802,0
2272,36824,0
2312,36830,0
2280,36810,0
2224,36794,0
2072,36798,0
1971,36801,0
1870,36800,0
1781,36830,0
1752,36822,0
1712,36788,0
1682,36800,0
1674,36805,0
1656,36790,0
1714,36801,0
1787,36831,0
1978,36767,0
2076,36819,0
2168,36795,0
2242,36814,0
2302,36802,0
2332,36791,0
2330,36792,0
2296,36816,0
2252,36826,0
2160,36793,0
2064,36794,0
1951,36795,0
1892,36795,0
1762,36807,0
1776,36831,0
1688,36822,0
1746,36783,0
1729,36794,0
1824,36786,0
1898,36788,0
2001,36810,0
2020,36828,0
2125,36808,0
2210,36776,0
2268,36794,0
2336,36787,0
2336,36795,0
2310,36822,0
2244,36813,0
2120,36767,0
2018,36783,0
1944,36800,0
1848,36808,0
1804,36784,0
1774,36818,0
1777,36800,0
1804,36784,0
1860,36789,0
1949,36782,0
2040,36785,0
2128,36793,0
2216,36814,0
2299,36791,0
2354,36769,0
2352,36785,0
2388,36782,0
2320,36788,0
2290,36806,0
2152,36812,0
2112,36767,0
2005,36794,0
1848,36788,0
1780,36784,0
1729,36803,0
1706,36814,0
1712,36813,0
1800,36784,0
1864,36791,0
1944,36785,0
2044,36790,0
2096,36822,0
2192,36802,0
2266,36773,0
2392,36800,0
2444,36788,0
2416,36770,0
2388,36785,0
2328,36786,0
2256,36819,0
2168,36805,0
2076,36777,0
2000,36794,0
1946,36785,0
1909,36775,0
1872,36816,0
1908,36814,0
1919,36772,0
2012,36799,0
2064,36796,0
2188,36789,0
2256,36818,0
2388,36816,0
2448,36802,0
2508,36795,0
2484,36789,0
2473,36798,0
2468,36789,0
2374,36816,0
2330,36820,0
2230,36764,0
2132,36792,0
2044,36800,0
1920,36807,0
1872,36797,0
1850,36821,0
1956,36799,0
1984,36802,0
2044,36827,0
2124,36781,0
2212,36812,0
2312,36799,0
2400,36840,0
2460,36820,0
2522,36797,0
2544,36804,0
2536,36799,0
2471,36817,0
2420,36840,0
2288,36824,0
2224,36794,0
2096,36808,0
2034,36803,0
1952,36807,0
1932,36834,0
1904,36835,0
1920,36829,0
1884,36802,0
1934,36815,0
2013,36802,0
2120,36816,0
2264,36828,0
2348,36837,0
2421,36808,0
2480,36812,0
2472,36824,0
2464,36816,0
2416,36819,0
2416,36794,0
2332,36827,0
2236,36818,0
2144,36781,0
2060,36819,0
1992,36809,0
1944,36814,0
1932,36839,0
1946,36842,0
1984,36801,0
2052,36825,0
2116,36813,0
2224,36821,0
2272,36837,0
2402,36842,0
2448,36816,0
2522,36824,0
2528,36808,0
2544,36819,0
2492,36812,0
2432,36851,0
2292,36843,0
2192,36796,0
2106,36823,0
1997,36818,0
1996,36817,0
1947,36842,0
1928,36847,0
1952,36809,0
1936,36820,0
2002,36817,0
2081,36809,0
2240,36800,0
2348,36821,0
2412,36824,0
2484,36799,0
2520,36821,0
2516,36843,0
2480,36796,0
2416,36828,0
2324,36815,0
2200,36824,0
2104,36833,0
1964,36850,0
1882,36830,0
1747,36823,0
1740,36829,0
1664,36823,0
1712,36832,0
1696,36855,0
1820,36843,0
1888,36809,0
1992,36822,0
2034,36830,0
2146,36817,0
2252,36843,0
2352,36850,0
2436,36827,0
2490,36825,0
2514,36832,0
2518,36827,0
2488,36833,0
2504,36850,0
2546,36862,0
2664,36850,0
2744,36839,0
2856,36799,0
2992,36848,0
3136,36846,0
3290,36816,0
3436,36842,0
3560,36829,0
3668,36829,0
3752,36846,0
3800,36855,0
3832,36860,0
3816,36816,0
3768,36831,0
3696,36829,0
3616,36832,0
3496,36861,0
3376,36853,0
3260,36824,0
3168,36836,0
3088,36832,0
3016,36828,0
2978,36860,0
2969,36863,0
2984,36838,0
3032,36836,0
3077,36835,0
3128,36838,0
3196,36839,0
3232,36862,0
3264,36863,0
3280,36834,0
3280,36831,0
3240,36843,0
3168,36837,0
3064,36857,0
2940,36841,0
2800,36870,0
2656,36863,0
2510,36825,0
2388,36842,0
2289,36837,0
2224,36840,0
2169,36857,0
2160,36868,0
2128,36868,0
2208,36836,0
2232,36838,0
2348,36844,0
2392,36847,0
2516,36865,0
2558,36868,0
2610,36828,0
2586,36832,0
2572,36842,0
2513,36840,0
2441,36863,0
2396,36856,0
2304,36853,0
2216,36842,0
2138,36844,0
2020,36844,0
1985,36855,0
1972,36869,0
2076,36853,0
2117,36839,0
2174,36851,0
2257,36855,0
2336,36864,0
2416,36826,0
2516,36855,0
2576,36849,0
2616,36841,0
2624,36852,0
2612,36876,0
2552,36873,0
2496,36825,0
2368,36853,0
2320,36848,0
2194,36857,0
2160,36877,0
2064,36875,0
2068,36849,0
2060,36849,0
2090,36861,0
2068,36846,0
2132,36867,0
2220,36878,0
2312,36888,0
2448,36848,0
2535,36852,0
2598,36858,0
2658,36850,0
2640,36888,0
2624,36873,0
2586,36840,0
2568,36863,0
2488,36827,0
2392,36877,0
2308,36852,0
2240,36857,0
2178,36879,0
2148,36891,0
2144,36865,0
2164,36860,0
2212,36859,0
2304,36860,0
2348,36863,0
2452,36891,0
2512,36878,0
2636,36844,0
2672,36862,0
2736,36860,0
2728,36858,0
2728,36888,0
2672,36894,0
2616,36862,0
2488,36863,0
2384,36870,0
2296,36858,0
2216,36866,0
2202,36887,0
2168,36879,0
2164,36857,0
2189,36862,0
2192,36865,0
2268,36864,0
2520,36886,0
2608,36873,0
2681,36869,0
2748,36846,0
2794,36879,0
2804,36866,0
2792,36857,0
2736,36864,0
2676,36860,0
2592,36892,0
2504,36888,0
2411,36843,0
2352,36870,0
2256,36863,0
2260,36867,0
2224,36878,0
2280,36893,0
2288,36855,0
2392,36861,0
2458,36868,0
2512,36855,0
2608,36864,0
2698,36888,0
2776,36893,0
2820,36838,0
2868,36865,0
2828,36867,0
2789,36875,0
2720,36895,0
2608,36887,0
2514,36848,0
2420,36872,0
2404,36886,0
2364,36873,0
2336,36869,0
2324,36860,0
2338,36881,0
2396,36856,0
2452,36863,0
2552,36863,0
2636,36880,0
2736,36889,0
2840,36876,0
2876,36848,0
2912,36865,0
2904,36876,0
2904,36871,0
2842,36892,0
2792,36885,0
2688,36841,0
2620,36857,0
2536,36862,0
2476,36864,0
2368,36873,0
2336,36887,0
2332,36858,0
2358,36854,0
2450,36851,0
2508,36854,0
2592,36876,0
2696,36880,0
2768,36886,0
2840,36854,0
2912,36858,0
2984,36870,0
2994,36845,0
2976,36870,0
2916,36847,0
2856,36871,0
2776,36870,0
2688,36858,0
2600,36847,0
2548,36872,0
2494,36889,0
2472,36871,0
2474,36858,0
2488,36864,0
2522,36854,0
2632,36860,0
2688,36876,0
2800,36869,0
2872,36846,0
2972,36862,0
3024,36856,0
3064,36864,0
3056,36885,0
3028,36880,0
2976,36861,0
2897,36842,0
2960,36851,0
2746,36845,0
2661,36848,0
2608,36880,0
2512,36877,0
2488,36830,0
2496,36847,0
2572,36831,0
2641,36855,0
2700,36857,0
2780,36829,0
2876,36852,0
2960,36832,0
3040,36837,0
3098,36833,0
3136,36851,0
3178,36849,0
3136,36852,0
3079,36833,0
3016,36827,0
2920,36821,0
2852,36839,0
2756,36859,0
2712,36843,0
2640,36804,0
2648,36828,0
2648,36821,0
2680,36824,0
2704,36845,0
2776,36831,0
2866,36791,0
2964,36805,0
3068,36802,0
3154,36807,0
3216,36813,0
3248,36826,0
3248,36784,0
3232,36801,0
3160,36804,0
3104,36787,0
3028,36780,0
2936,36770,0
2860,36793,0
2784,36794,0
2732,36778,0
2724,36778,0
2706,36800,0
2724,36807,0
2772,36752,0
2844,36785,0
2925,36767,0
3020,36771,0
3092,36790,0
3160,36790,0
3216,36771,0
3256,36760,0
3256,36769,0
3240,36760,0
3176,36756,0
3104,36785,0
2984,36787,0
2896,36736,0
2809,36765,0
2736,36761,0
2712,36756,0
2678,36762,0
2680,36778,0
2713,36773,0
2732,36748,0
2808,36751,0
2880,36749,0
3004,36754,0
3084,36772,0
3152,36751,0
3200,36776,0
3232,36761,0
3232,36772,0
3204,36773,0
3124,36729,0
3068,36747,0
2972,36753,0
2880,36745,0
2806,36769,0
2732,36772,0
2688,36734,0
2648,36753,0
2632,36748,0
2684,36745,0
2712,36770,0
2794,36773,0
2872,36755,0
2936,36753,0
3040,36751,0
3112,36757,0
3172,36773,0
3209,36772,0
3216,36771,0
3184,36753,0
3124,36752,0
3058,36748,0
2944,36748,0
2864,36792,0
2769,36774,0
2744,36773,0
2708,36777,0
2684,36766,0
2680,36776,0
2720,36765,0
2776,36758,0
2856,36761,0
2948,36778,0
3032,36798,0
3120,36788,0
3192,36768,0
3244,36772,0
3280,36758,0
3264,36776,0
3240,36794,0
3184,36796,0
3108,36754,0
3008,36771,0
2936,36775,0
2850,36763,0
2780,36791,0
2720,36794,0
2700,36757,0
2688,36782,0
2736,36773,0
2816,36769,0
2889,36779,0
2976,36805,0
3069,36800,0
3140,36768,0
3232,36780,0
3284,36783,0
3340,36798,0
3322,36807,0
3296,36782,0
3232,36790,0
3156,36784,0
3064,36799,0
2968,36778,0
2896,36784,0
2820,36772,0
2796,36794,0
2764,36811,0
2771,36811,0
2796,36768,0
2840,36786,0
2928,36781,0
2992,36779,0
3088,36814,0
3168,36794,0
3248,36753,0
3296,36771,0
3324,36774,0
3314,36770,0
3268,36783,0
3208,36800,0
3120,36790,0
3040,36765,0
2948,36767,0
2872,36770,0
2812,36762,0
2744,36801,0
2720,36789,0
2728,36755,0
2800,36766,0
2866,36762,0
2936,36788,0
3020,36778,0
3112,36788,0
3196,36753,0
3252,36767,0
3312,36759,0
3326,36764,0
3320,36778,0
3280,36804,0
3208,36775,0
3132,36743,0
3028,36767,0
2944,36756,0
2848,36761,0
2800,36792,0
2732,36772,0
2730,36744,0
2732,36753,0
2776,36755,0
2788,36753,0
2880,36772,0
2976,36775,0
3057,36747,0
3152,36746,0
3226,36752,0
3276,36751,0
3300,36757,0
3296,36781,0
3248,36773,0
3120,36773,0
3032,36758,0
2932,36763,0
2856,36769,0
2792,36776,0
2746,36742,0
2712,36758,0
2728,36750,0
2736,36774,0
2800,36765,0
2872,36744,0
2959,36760,0
3028,36752,0
3092,36750,0
3176,36777,0
3200,36775,0
3220,36734,0
3216,36750,0
3192,36756,0
3112,36749,0
3024,36768,0
2928,36776,0
2832,36770,0
2748,36751,0
2682,36757,0
2680,36761,0
2640,36761,0
2646,36781,0
2676,36781,0
2704,36749,0
2762,36758,0
2864,36760,0
2980,36795,0
3050,36762,0
3112,36761,0
3156,36747,0
3172,36779,0
3168,36767,0
3124,36754,0
3057,36758,0
2976,36797,0
2896,36795,0
2800,36760,0
2717,36774,0
2660,36766,0
2584,36772,0
2600,36778,0
2586,36801,0
2640,36795,0
2664,36762,0
2768,36771,0
2832,36765,0
2920,36778,0
2968,36796,0
3026,36801,0
3072,36760,0
3100,36780,0
3092,36781,0
3056,36779,0
2978,36794,0
2900,36806,0
2788,36755,0
2728,36786,0
2616,36776,0
2596,36795,0
2564,36803,0
2544,36778,0
2576,36773,0
2632,36795,0
2680,36763,0
2752,36773,0
2832,36779,0
2904,36778,0
3002,36794,0
3048,36814,0
3088,36793,0
3106,36774,0
3076,36775,0
3040,36777,0
2952,36776,0
2888,36798,0
2776,36800,0
2704,36757,0
2624,36781,0
2568,36772,0
2476,36778,0
2456,36795,0
2472,36793,0
2512,36768,0
2608,36775,0
2676,36775,0
2764,36763,0
2864,36780,0
2912,36785,0
2980,36774,0
3024,36774,0
3064,36773,0
3056,36779,0
3004,36779,0
2944,36751,0
2849,36774,0
2768,36778,0
2688,36774,0
2608,36795,0
2548,36792,0
2516,36752,0
2512,36770,0
2520,36766,0
2554,36762,0
2578,36774,0
2680,36789,0
2744,36768,0
2856,36753,0
2896,36762,0
2984,36759,0
3016,36769,0
3040,36783,0
3000,36773,0
2952,36758,0
2872,36750,0
2796,36747,0
2728,36768,0
2636,36774,0
2569,36726,0
2508,36742,0
2442,36762,0
2432,36748,0
2436,36763,0
2532,36767,0
2586,36769,0
2652,36742,0
2728,36754,0
2808,36768,0
2880,36750,0
2928,36751,0
2960,36743,0
2964,36777,0
2944,36770,0
2896,36733,0
2831,36760,0
2744,36738,0
2632,36747,0
2568,36758,0
2466,36776,0
2448,36744,0
2368,36754,0
2384,36749,0
2388,36748,0
2448,36750,0
2432,36768,0
2528,36768,0
2612,36744,0
2705,36743,0
2916,36735,0
2869,36740,0
2920,36768,0
2931,36766,0
2912,36725,0
2848,36742,0
2772,36745,0
2736,36759,0
2630,36759,0
2552,36738,0
2474,36758,0
2404,36761,0
2368,36779,0
2345,36760,0
2368,36744,0
2392,36746,0
2449,36746,0
2530,36757,0
2596,36780,0
2686,36768,0
2728,36737,0
2824,36757,0
2832,36736,0
2858,36745,0
2816,36768,0
2784,36776,0
2712,36733,0
2632,36757,0
2480,36747,0
2377,36748,0
2312,36783,0
2252,36766,0
2260,36741,0
2260,36749,0
2272,36749,0
2308,36745,0
2336,36778,0
2408,36773,0
2502,36730,0
2636,36739,0
2692,36733,0
2752,36760,0
2772,36749,0
2784,36751,0
2740,36742,0
2688,36761,0
2616,36782,0
2538,36758,0
2448,36742,0
2360,36743,0
2266,36748,0
2224,36760,0
2156,36770,0
2180,36774,0
2168,36727,0
2240,36756,0
2272,36757,0
2376,36738,0
2444,36767,0
2536,36774,0
2560,36744,0
2608,36753,0
2636,36756,0
2646,36744,0
2644,36764,0
2592,36779,0
2528,36756,0
2434,36755,0
2308,36752,0
2216,36749,0
2146,36770,0
2170,36763,0
2136,36756,0
2130,36766,0
2140,36756,0
2180,36766,0
2244,36752,0
2312,36741,0
2396,36747,0
2496,36775,0
2558,36786,0
2612,36729,0
2642,36751,0
2660,36745,0
2600,36749,0
2580,36763,0
2480,36776,0
2420,36747,0
2308,36757,0
2248,36753,0
2160,36758,0
2120,36763,0
2020,36777,0
2024,36755,0
2026,36759,0
2064,36761,0
2172,36758,0
2252,36775,0
2324,36779,0
2424,36764,0
2464,36760,0
2512,36755,0
2546,36762,0
2596,36756,0
2568,36769,0
2512,36729,0
2444,36761,0
2352,36801,0
2272,36780,0
2184,36765,0
2112,36752,0
2064,36762,0
2024,36765,0
2028,36789,0
2044,36787,0
2108,36734,0
2124,36765,0
2258,36767,0
2312,36772,0
2428,36785,0
2472,36778,0
2544,36747,0
2584,36763,0
2584,36767,0
2496,36761,0
2432,36798,0
2340,36792,0
2244,36757,0
2192,36772,0
2105,36769,0
2028,36767,0
1994,36805,0
1904,36799,0
1912,36759,0
2096,36803,0
2168,36793,0
2256,36778,0
2356,36753,0
2448,36801,0
2532,36777,0
2584,36782,0
2636,36773,0
2648,36787,0
2614,36809,0
2558,36805,0
2475,36768,0
2396,36776,0
2264,36779,0
2236,36787,0
2112,36812,0
2096,36814,0
2032,36783,0
2072,36789,0
2088,36780,0
2066,36790,0
2144,36802,0
2230,36810,0
2309,36785,0
2405,36791,0
2528,36784,0
2560,36787,0
2598,36796,0
2604,36820,0
2532,36817,0
2472,36778,0
2388,36791,0
2372,36803,0
2288,36790,0
2200,36782,0
2146,36801,0
2089,36794,0
2064,36827,0
2058,36807,0
2108,36791,0
2128,36794,0
2192,36793,0
2264,36789,0
2337,36815,0
2430,36815,0
2456,36778,0
2528,36791,0
2524,36795,0
2559,36797,0
2496,36809,0
2465,36821,0
2378,36779,0
2312,36795,0
2144,36786,0
2056,36782,0
1994,36801,0
1940,36825,0
1964,36807,0
1958,36787,0
1996,36786,0
2046,36792,0
2068,36789,0
2144,36815,0
2240,36818,0
2392,36799,0
2454,36795,0
2514,36804,0
2536,36802,0
2529,36797,0
2508,36792,0
2434,36795,0
2372,36792,0
2268,36814,0
2192,36810,0
2100,36795,0
2034,36794,0
1988,36782,0
1916,36789,0
1968,36812,0
1952,36809,0
2052,36779,0
2080,36795,0
2208,36788,0
2280,36788,0
2372,36815,0
2392,36810,0
2438,36764,0
2468,36781,0
2452,36779,0
2460,36775,0
2400,36810,0
2320,36810,0
2226,36764,0
2084,36780,0
1989,36783,0
1904,36769,0
1914,36796,0
1864,36770,0
1840,36773,0
1841,36781,0
1856,36778,0
1896,36774,0
1944,36776,0
2016,36768,0
2080,36781,0
2128,36789,0
2160,36807,0
2163,36763,0
2172,36770,0
2104,36778,0
2108,36777,0
1984,36780,0
1972,36798,0
1864,36793,0
1876,36748,0
1860,36772,0
1872,36770,0
1834,36775,0
1904,36794,0
2028,36799,0
2184,36767,0
2400,36775,0
2608,36769,0
2824,36785,0
3057,36800,0
3264,36794,0
3464,36754,0
3564,36777,0
3624,36773,0
3636,36795,0
3582,36774,0
3488,36788,0
3364,36787,0
3212,36784,0
3056,36780,0
2940,36776,0
2844,36804,0
2776,36807,0
2736,36761,0
2751,36783,0
2814,36787,0
2868,36791,0
2964,36815,0
3076,36802,0
3184,36767,0
3256,36795,0
3348,36786,0
3380,36782,0
3360,36820,0
3298,36825,0
3220,36775,0
3080,36798,0
2944,36790,0
2836,36800,0
2664,36823,0
2532,36821,0
2417,36777,0
2290,36802,0
2228,36798,0
2194,36791,0
2248,36797,0
2266,36800,0
2292,36801,0
2341,36830,0
2384,36800,0
2418,36805,0
2430,36811,0
2424,36807,0
2384,36837,0
2324,36834,0
2248,36790,0
2144,36812,0
2044,36814,0
1881,36817,0
1848,36841,0
1716,36827,0
1720,36803,0
1618,36832,0
1696,36810,0
1696,36819,0
1768,36847,0
1748,36827,0
1840,36816,0
1944,36824,0
2029,36812,0
2154,36824,0
2201,36856,0
2228,36840,0
2218,36810,0
2130,36817,0
2056,36828,0
1962,36824,0
1960,36804,0
1854,36822,0
1768,36829,0
1688,36831,0
1636,36841,0
1628,36858,0
1628,36853,0
1672,36802,0
1728,36840,0
1798,36820,0
1888,36825,0
1960,36853,0
2056,36850,0
2080,36816,0
2169,36827,0
2148,36826,0
2168,36823,0
2092,36850,0
2056,36848,0
1964,36812,0
1888,36833,0
1706,36829,0
1632,36826,0
1573,36845,0
1536,36852,0
1576,36840,0
1608,36828,0
1646,36833,0
1721,36824,0
1732,36834,0
1824,36863,0
1920,36845,0
2080,36838,0
2152,36827,0
2192,36846,0
2216,36825,0
2188,36822,0
2152,36822,0
2066,36827,0
2000,36850,0
1912,36860,0
1828,36812,0
1765,36836,0
1703,36821,0
1681,36818,0
1616,36846,0
1698,36857,0
1707,36827,0
1816,36824,0
1856,36818,0
2000,36818,0
2084,36828,0
2180,36847,0
2184,36834,0
2234,36819,0
2250,36822,0
2252,36825,0
2258,36830,0
2196,36855,0
2120,36838,0
2084,36821,0
1904,36827,0
1828,36813,0
1773,36824,0
1844,36807,0
1834,36814,0
1850,36835,0
1892,36846,0
1960,36843,0
2040,36798,0
2128,36824,0
2228,36821,0
2292,36815,0
2376,36845,0
2424,36849,0
2424,36798,0
2428,36829,0
2344,36822,0
2324,36827,0
2196,36838,0
2152,36847,0
2016,36796,0
1984,36828,0
1922,36823,0
1904,36811,0
1786,36855,0
1810,36845,0
1856,36814,0
1920,36832,0
2052,36820,0
2141,36826,0
2224,36848,0
2332,36851,0
2340,36815,0
2384,36822,0
2441,36820,0
2394,36828,0
2328,36814,0
2244,36829,0
2148,36810,0
2074,36831,0
2000,36824,0
1952,36858,0
1908,36852,0
1904,36812,0
1928,36821,0
1953,36816,0
2047,36821,0
2072,36844,0
2208,36832,0
2257,36814,0
2364,36824,0
2400,36816,0
2468,36829,0
2464,36849,0
2400,36843,0
2345,36819,0
2266,36826,0
2188,36811,0
2093,36833,0
2052,36841,0
1984,36829,0
1918,36816,0
1894,36811,0
1832,36814,0
1864,36828,0
1914,36842,0
2064,36820,0
2130,36790,0
2220,36831,0
2316,36842,0
2386,36814,0
2440,36817,0
2480,36813,0
2484,36798,0
2464,36826,0
2410,36836,0
2336,36796,0
2251,36815,0
2154,36797,0
2024,36811,0
1996,36814,0
1900,36825,0
1916,36800,0
1856,36793,0
1928,36804,0
1944,36802,0
2028,36816,0
2042,36830,0
2121,36780,0
2224,36797,0
2292,36791,0
2388,36798,0
2426,36809,0
2436,36806,0
2416,36780,0
2336,36793,0
2244,36781,0
2160,36781,0
2144,36789,0
2052,36784,0
1980,36794,0
1932,36766,0
1904,36797,0
1898,36770,0
1908,36769,0
1956,36767,0
2020,36760,0
2104,36784,0
2176,36788,0
2264,36749,0
2344,36750,0
2360,36762,0
2436,36757,0
2404,36769,0
2416,36774,0
2320,36749,0
2288,36738,0
2192,36746,0
2112,36741,0
1936,36752,0
1858,36774,0
1796,36753,0
1756,36726,0
1816,36727,0
1834,36728,0
1875,36727,0
1939,36751,0
1960,36746,0
2052,36709,0
2136,36722,0
2276,36719,0
2332,36736,0
2368,36695,0
2404,36736,0
2352,36721,0
2296,36735,0
2208,36716,0
2124,36712,0
2026,36712,0
1928,36703,0
1858,36726,0
1776,36733,0
1746,36706,0
1688,36696,0
1762,36705,0
1760,36700,0
1872,36716,0
