ECG,IR,PCG
1988,39433,0
1946,39416,0
1936,39409,0
1924,39433,0
1928,39412,0
1930,39402,0
1936,39433,0
1952,39422,0
1952,39402,0
1960,39416,0
1948,39398,0
1962,39420,0
1962,39412,0
1970,39433,0
1960,39429,0
1960,39395,0
1960,39415,0
1962,39422,0
1976,39392,0
1980,39397,0
1984,39419,0
1984,39405,0
1992,39398,0
2000,39410,0
2008,39402,0
2020,39405,0
2033,39430,0
2046,39406,0
2052,39405,0
2064,39404,0
2064,39414,0
2064,39397,0
2084,39400,0
2090,39411,0
2088,39392,0
2096,39400,0
2105,39415,0
2124,39390,0
2132,39392,0
2144,39411,0
2160,39404,0
2188,39378,0
2208,39418,0
2216,39406,0
2216,39388,0
2224,39412,0
2228,39402,0
2232,39385,0
2240,39422,0
2228,39395,0
2232,39401,0
2212,39409,0
2200,39385,0
2208,39393,0
2200,39415,0
2184,39387,0
2184,39385,0
2168,39398,0
2164,39401,0
2164,39393,0
2176,39404,0
2168,39391,0
2168,39390,0
2181,39413,0
2176,39398,0
2184,39391,0
2192,39397,0
2208,39396,0
2208,39401,0
2212,39373,0
2220,39410,0
2236,39378,0
2228,39375,0
2232,39422,0
2276,39418,0
2240,39392,0
2240,39391,0
2232,39405,0
2234,39412,0
2228,39388,0
2230,39406,0
2224,39388,0
2224,39385,0
2224,39390,0
2224,39402,0
2220,39385,0
2216,39372,0
2208,39410,0
2208,39386,0
2200,39368,0
2200,39402,0
2200,39390,0
2188,39363,0
2186,39404,0
2184,39375,0
2168,39367,0
2180,39415,0
2178,39389,0
2184,39356,0
2176,39404,0
2192,39370,0
2194,39388,0
2216,39405,0
2226,39380,0
2248,39372,0
2258,39420,0
2266,39394,0
2266,39386,0
2276,39409,0
2272,39394,0
2264,39386,0
2268,39395,0
2248,39394,0
2248,39406,0
2240,39374,0
2232,39402,0
2232,39411,0
2216,39402,0
2204,39392,0
2200,39404,0
2200,39411,0
2200,39382,0
2200,39403,0
2200,39401,0
2192,39400,0
2194,39412,0
2196,39422,0
2196,39390,0
2196,39386,0
2200,39422,0
2201,39388,0
2208,39371,0
2208,39412,0
2224,39388,0
2218,39397,0
2216,39419,0
2242,39392,0
2244,39370,0
2244,39406,0
2256,39400,0
2256,39396,0
2260,39390,0
2268,39390,0
2272,39397,0
2273,39386,0
2268,39424,0
2264,39396,0
2266,39376,0
2260,39433,0
2256,39401,0
2248,39380,0
2242,39413,0
2226,39386,0
2224,39412,0
2216,39425,0
2212,39393,0
2196,39391,0
2192,39413,0
2184,39406,0
2194,39398,0
2192,39411,0
2200,39399,0
2208,39403,0
2216,39422,0
2228,39395,0
2248,39399,0
2252,39415,0
2264,39415,0
2268,39405,0
2268,39415,0
2282,39406,0
2284,39397,0
2272,39421,0
2264,39414,0
2256,39394,0
2256,39408,0
2250,39417,0
2240,39435,0
2244,39400,0
2244,39386,0
2240,39417,0
2236,39420,0
2240,39402,0
2232,39432,0
2240,39396,0
2244,39389,0
2240,39434,0
2240,39402,0
2240,39384,0
2236,39428,0
2244,39393,0
2242,39399,0
2228,39428,0
2232,39392,0
2228,39372,0
2224,39422,0
2240,39412,0
2256,39383,0
2242,39424,0
2260,39400,0
2272,39383,0
2266,39418,0
2280,39394,0
2280,39415,0
2274,39376,0
2284,39414,0
2288,39391,0
2272,39393,0
2280,39404,0
2264,39416,0
2260,39404,0
2250,39395,0
2256,39411,0
2240,39381,0
2240,39414,0
2236,39407,0
2224,39393,0
2228,39399,0
2224,39397,0
2216,39398,0
2216,39399,0
2212,39395,0
2224,39383,0
2224,39394,0
2225,39406,0
2240,39370,0
2240,39383,0
2248,39391,0
2256,39385,0
2258,39391,0
2268,39401,0
2277,39371,0
2280,39366,0
2272,39404,0
2272,39393,0
2272,39345,0
2280,39367,0
2272,39351,0
2260,39379,0
2260,39353,0
2258,39337,0
2256,39367,0
2252,39355,0
2264,39336,0
2252,39370,0
2252,39348,0
2256,39320,0
2248,39380,0
2300,39352,0
2240,39339,0
2236,39355,0
2241,39329,0
2228,39330,0
2220,39352,0
2220,39336,0
2224,39322,0
2224,39359,0
2224,39342,0
2220,39315,0
2228,39348,0
2240,39319,0
2244,39319,0
2264,39354,0
2280,39330,0
2288,39310,0
2302,39344,0
2298,39341,0
2308,39320,0
2308,39330,0
2312,39327,0
2298,39296,0
2298,39342,0
2304,39312,0
2288,39296,0
2268,39335,0
2256,39317,0
2252,39304,0
2264,39342,0
2268,39310,0
2248,39286,0
2248,39346,0
2248,39317,0
2248,39282,0
2248,39332,0
2258,39297,0
2256,39305,0
2256,39329,0
2252,39297,0
2252,39284,0
2248,39331,0
2241,39312,0
2252,39296,0
2240,39302,0
2240,39292,0
2232,39284,0
2242,39327,0
2240,39296,0
2240,39275,0
2240,39279,0
2240,39296,0
2232,39317,0
2228,39292,0
2220,39292,0
2236,39277,0
2218,39325,0
2216,39288,0
2212,39270,0
2208,39316,0
2208,39286,0
2196,39287,0
2188,39316,0
2188,39294,0
2184,39265,0
2188,39330,0
2188,39290,0
2168,39266,0
2164,39306,0
2164,39280,0
2168,39278,0
2177,39312,0
2192,39283,0
2184,39275,0
2202,39314,0
2202,39291,0
2224,39285,0
2226,39305,0
2236,39280,0
2250,39288,0
2252,39316,0
2256,39303,0
2260,39294,0
2256,39261,0
2240,39318,0
2242,39304,0
2320,39291,0
2216,39282,0
2216,39310,0
2212,39314,0
2208,39291,0
2204,39321,0
2200,39301,0
2196,39300,0
2196,39311,0
2208,39307,0
2196,39301,0
2196,39294,0
2192,39319,0
2200,39300,0
2192,39276,0
2192,39312,0
2184,39285,0
2196,39297,0
2192,39318,0
2184,39296,0
2196,39276,0
2200,39313,0
2216,39297,0
2220,39272,0
2244,39312,0
2248,39287,0
2256,39293,0
2264,39303,0
2280,39293,0
2276,39314,0
2288,39285,0
2284,39311,0
2276,39289,0
2264,39321,0
2252,39294,0
2248,39280,0
2244,39323,0
2228,39292,0
2216,39290,0
2216,39314,0
2202,39296,0
2200,39290,0
2196,39316,0
2192,39294,0
2192,39291,0
2192,39321,0
2196,39299,0
2200,39297,0
2210,39316,0
2202,39291,0
2210,39299,0
2212,39326,0
2216,39297,0
2232,39298,0
2226,39319,0
2220,39304,0
2236,39296,0
2234,39318,0
2240,39284,0
2232,39300,0
2228,39314,0
2228,39310,0
2228,39306,0
2224,39289,0
2232,39311,0
2224,39312,0
2232,39324,0
2228,39291,0
2236,39294,0
2225,39332,0
2236,39292,0
2229,39307,0
2224,39312,0
2224,39304,0
2224,39308,0
2216,39324,0
2216,39295,0
2208,39293,0
2208,39323,0
2192,39298,0
2192,39308,0
2192,39321,0
2192,39288,0
2196,39307,0
2201,39323,0
2204,39292,0
2224,39298,0
2228,39312,0
2248,39311,0
2264,39303,0
2260,39304,0
2272,39303,0
2276,39286,0
2280,39303,0
2272,39302,0
2268,39316,0
2264,39315,0
2248,39311,0
2240,39309,0
2232,39319,0
2224,39298,0
2208,39296,0
2200,39336,0
2202,39297,0
2196,39297,0
2192,39327,0
2196,39300,0
2200,39303,0
2200,39331,0
2200,39300,0
2208,39288,0
2208,39337,0
2202,39306,0
2208,39318,0
2216,39329,0
2224,39303,0
2216,39304,0
2232,39343,0
2228,39308,0
2224,39291,0
2236,39334,0
2242,39324,0
2244,39298,0
2252,39321,0
2252,39309,0
2264,39335,0
2267,39305,0
2260,39315,0
2260,39331,0
2260,39310,0
2264,39317,0
2260,39343,0
2248,39329,0
2248,39312,0
2240,39332,0
2230,39341,0
2218,39318,0
2212,39343,0
2204,39317,0
2192,39318,0
2196,39347,0
2176,39329,0
2176,39322,0
2180,39345,0
2176,39330,0
2176,39341,0
2180,39360,0
2185,39315,0
2210,39331,0
2208,39359,0
2224,39342,0
2224,39330,0
2248,39348,0
2248,39323,0
2256,39343,0
2256,39372,0
2264,39347,0
2264,39318,0
2256,39340,0
2250,39315,0
2240,39360,0
2240,39338,0
2228,39323,0
2236,39365,0
2218,39344,0
2220,39342,0
2240,39358,0
2212,39334,0
2216,39354,0
2216,39367,0
2212,39348,0
2212,39344,0
2208,39369,0
2212,39360,0
2264,39352,0
2208,39372,0
2194,39357,0
2208,39351,0
2208,39381,0
2200,39356,0
2208,39359,0
2212,39377,0
2208,39373,0
2216,39362,0
2232,39381,0
2248,39360,0
2240,39348,0
2256,39365,0
2258,39357,0
2268,39371,0
2280,39380,0
2272,39363,0
2272,39369,0
2264,39376,0
2266,39355,0
2244,39362,0
2256,39389,0
2236,39378,0
2232,39359,0
2214,39392,0
2264,39367,0
2208,39373,0
2208,39388,0
2200,39378,0
2208,39368,0
2202,39389,0
2202,39401,0
2208,39362,0
2202,39372,0
2210,39384,0
2212,39375,0
2210,39383,0
2218,39393,0
2224,39374,0
2228,39377,0
2224,39410,0
2232,39372,0
2232,39368,0
2232,39397,0
2224,39389,0
2228,39380,0
2224,39389,0
2231,39366,0
2224,39345,0
2232,39406,0
2234,39399,0
2234,39373,0
2232,39400,0
2244,39373,0
2248,39385,0
2244,39412,0
2256,39379,0
2252,39374,0
2248,39404,0
2242,39392,0
2232,39395,0
2224,39401,0
2224,39391,0
2216,39377,0
2216,39420,0
2208,39401,0
2194,39392,0
2208,39418,0
2204,39382,0
2208,39405,0
2216,39412,0
2228,39396,0
2236,39389,0
2258,39424,0
2258,39411,0
2257,39404,0
2264,39405,0
2260,39398,0
2268,39419,0
2252,39436,0
2236,39407,0
2232,39394,0
2236,39425,0
2216,39418,0
2208,39391,0
2200,39433,0
2272,39409,0
2200,39406,0
2192,39444,0
2202,39418,0
2200,39410,0
2204,39430,0
2204,39422,0
2208,39431,0
2212,39446,0
2220,39412,0
2212,39428,0
2216,39463,0
2218,39423,0
2224,39429,0
2224,39449,0
2220,39431,0
2224,39439,0
2224,39444,0
2224,39454,0
2236,39429,0
2240,39438,0
2248,39478,0
2252,39448,0
2252,39442,0
2252,39425,0
2264,39473,0
2256,39438,0
2272,39428,0
2264,39465,0
2264,39444,0
2266,39435,0
2252,39471,0
2244,39445,0
2236,39434,0
2232,39478,0
2224,39458,0
2216,39433,0
2210,39484,0
2200,39440,0
2192,39449,0
2196,39475,0
2196,39448,0
2200,39435,0
2208,39469,0
2208,39463,0
2218,39447,0
2224,39473,0
2244,39450,0
2252,39451,0
2260,39487,0
2268,39460,0
2276,39441,0
2282,39477,0
2276,39491,0
2296,39473,0
2272,39474,0
2261,39478,0
2256,39487,0
2252,39498,0
2240,39484,0
2228,39465,0
2234,39495,0
2232,39471,0
2234,39480,0
2240,39508,0
2232,39470,0
2232,39464,0
2240,39507,0
2244,39487,0
2240,39465,0
2232,39513,0
2232,39468,0
2232,39470,0
2228,39515,0
2216,39492,0
2216,39466,0
2208,39498,0
2204,39500,0
2208,39475,0
2212,39499,0
2216,39471,0
2224,39465,0
2228,39528,0
2240,39486,0
2240,39474,0
2244,39491,0
2248,39510,0
2252,39482,0
2248,39487,0
2256,39516,0
2248,39480,0
2242,39525,0
2240,39515,0
2224,39499,0
2208,39526,0
2216,39498,0
2194,39509,0
2192,39524,0
2184,39492,0
2184,39506,0
2180,39533,0
2184,39524,0
2204,39516,0
2192,39526,0
2196,39517,0
2208,39512,0
2216,39535,0
2220,39510,0
2232,39515,0
2232,39536,0
2240,39527,0
2248,39525,0
2248,39536,0
2256,39530,0
2258,39523,0
2256,39540,0
2256,39541,0
2252,39514,0
2244,39525,0
2240,39553,0
2233,39522,0
2232,39516,0
2224,39524,0
2232,39518,0
2224,39544,0
2224,39528,0
2228,39512,0
2234,39553,0
2226,39530,0
2224,39517,0
2226,39562,0
2233,39544,0
2224,39508,0
2232,39559,0
2217,39542,0
2216,39518,0
2208,39556,0
2208,39526,0
2212,39527,0
2208,39562,0
2208,39526,0
2216,39519,0
2224,39554,0
2229,39548,0
2240,39551,0
2240,39561,0
2252,39539,0
2258,39540,0
2260,39571,0
2260,39544,0
2266,39540,0
2256,39540,0
2256,39562,0
2256,39574,0
2244,39565,0
2225,39540,0
2220,39517,0
2220,39576,0
2216,39553,0
2216,39524,0
2208,39559,0
2208,39543,0
2216,39537,0
2208,39573,0
2220,39542,0
2216,39546,0
2224,39576,0
2216,39549,0
2220,39545,0
2224,39572,0
2220,39546,0
2224,39536,0
2228,39579,0
2212,39546,0
2220,39535,0
2218,39566,0
2216,39558,0
2224,39553,0
2232,39581,0
2232,39559,0
2240,39549,0
2240,39582,0
2240,39590,0
2248,39559,0
2250,39561,0
2248,39563,0
2256,39594,0
2256,39559,0
2240,39565,0
2236,39571,0
2232,39574,0
2232,39574,0
2236,39587,0
2220,39560,0
2216,39562,0
2208,39599,0
2202,39574,0
2196,39570,0
2196,39581,0
2148,39594,0
2188,39580,0
2200,39583,0
2200,39600,0
2200,39571,0
2202,39565,0
2212,39610,0
2224,39570,0
2240,39559,0
2248,39601,0
2256,39572,0
2266,39576,0
2268,39613,0
2272,39575,0
2272,39577,0
2264,39595,0
2268,39578,0
2250,39590,0
2242,39577,0
2234,39566,0
2228,39611,0
2216,39582,0
2224,39567,0
2208,39588,0
2216,39589,0
2208,39591,0
2220,39615,0
2210,39584,0
2220,39584,0
2212,39617,0
2208,39590,0
2212,39593,0
2212,39607,0
2208,39581,0
2208,39600,0
2202,39612,0
2200,39592,0
2201,39590,0
2200,39609,0
2200,39597,0
2224,39594,0
2224,39615,0
2234,39594,0
2248,39601,0
2256,39634,0
2264,39595,0
2268,39618,0
2280,39617,0
2292,39606,0
2295,39624,0
2288,39637,0
2284,39589,0
2276,39582,0
2272,39619,0
2256,39593,0
2244,39595,0
2244,39615,0
2232,39588,0
2220,39595,0
2220,39617,0
2220,39589,0
2208,39586,0
2208,39617,0
2210,39607,0
2208,39591,0
2208,39617,0
2202,39578,0
2208,39605,0
2208,39623,0
2202,39595,0
2200,39595,0
2192,39618,0
2188,39610,0
2196,39594,0
2196,39619,0
2192,39587,0
2184,39602,0
2184,39628,0
2180,39596,0
2178,39599,0
2178,39600,0
2176,39603,0
2180,39600,0
2176,39629,0
2184,39600,0
2196,39582,0
2208,39639,0
2282,39598,0
2240,39589,0
2260,39624,0
2276,39598,0
2296,39604,0
2320,39635,0
2340,39608,0
2376,39587,0
2408,39635,0
2456,39620,0
2496,39586,0
2544,39627,0
2576,39591,0
2624,39600,0
2672,39629,0
2720,39605,0
2776,39576,0
2832,39628,0
2872,39612,0
2912,39596,0
2952,39630,0
2980,39598,0
2988,39580,0
2980,39610,0
2960,39597,0
2916,39614,0
2864,39598,0
2788,39608,0
2714,39628,0
2640,39614,0
2560,39604,0
2474,39622,0
2408,39641,0
2338,39609,0
2256,39590,0
2192,39627,0
2136,39611,0
2080,39605,0
2026,39627,0
1986,39610,0
1964,39581,0
1938,39635,0
1922,39611,0
1908,39587,0
1888,39631,0
1888,39600,0
1872,39600,0
1866,39637,0
1864,39610,0
1860,39587,0
1872,39628,0
1880,39610,0
1892,39584,0
1898,39632,0
1920,39649,0
1928,39637,0
1936,39628,0
1948,39610,0
1956,39627,0
1964,39604,0
1972,39636,0
1978,39616,0
1986,39606,0
2002,39635,0
2000,39607,0
2000,39623,0
2004,39642,0
2012,39620,0
2016,39600,0
2018,39620,0
2025,39638,0
2034,39625,0
2040,39628,0
2040,39621,0
2058,39610,0
2068,39618,0
2084,39640,0
2096,39620,0
2116,39583,0
2132,39650,0
2145,39626,0
2176,39591,0
2184,39628,0
2196,39601,0
2201,39610,0
2216,39649,0
2264,39649,0
2212,39617,0
2208,39604,0
2216,39636,0
2202,39621,0
2196,39610,0
2200,39614,0
2192,39631,0
2192,39627,0
2184,39625,0
2180,39637,0
2180,39612,0
2192,39625,0
2188,39649,0
2196,39612,0
2192,39615,0
2192,39632,0
2192,39644,0
2192,39616,0
2184,39622,0
2192,39630,0
2184,39623,0
2176,39604,0
2176,39637,0
2184,39610,0
2185,39593,0
2197,39645,0
2213,39632,0
2210,39606,0
2232,39634,0
2256,39614,0
2248,39619,0
2264,39623,0
2276,39646,0
2272,39633,0
2272,39618,0
2272,39620,0
2268,39634,0
2260,39628,0
2256,39633,0
2241,39638,0
2236,39627,0
2224,39614,0
2220,39642,0
2210,39617,0
2208,39612,0
2204,39659,0
2196,39617,0
2196,39595,0
2196,39638,0
2196,39620,0
2192,39607,0
2208,39630,0
2202,39621,0
2197,39617,0
2208,39648,0
2208,39621,0
2218,39611,0
2224,39637,0
2224,39629,0
2236,39632,0
2236,39639,0
2242,39639,0
2240,39621,0
2244,39648,0
2244,39630,0
2244,39650,0
2252,39636,0
2240,39620,0
2244,39627,0
2248,39659,0
2240,39624,0
2248,39605,0
2240,39654,0
2248,39642,0
2236,39613,0
2244,39656,0
2232,39620,0
2232,39621,0
2232,39660,0
2216,39617,0
2224,39622,0
2216,39642,0
2208,39628,0
2202,39640,0
2208,39651,0
2208,39634,0
2208,39632,0
2216,39668,0
2224,39636,0
2240,39639,0
2246,39645,0
2256,39636,0
2264,39653,0
2272,39666,0
2272,39635,0
2276,39661,0
2266,39658,0
2264,39638,0
2256,39637,0
2240,39635,0
2240,39637,0
2230,39677,0
2220,39658,0
2212,39637,0
2208,39660,0
2208,39659,0
2204,39658,0
2216,39653,0
2212,39674,0
2224,39643,0
2220,39643,0
2228,39690,0
2240,39646,0
2242,39638,0
2248,39668,0
2240,39662,0
2248,39653,0
2234,39675,0
2229,39650,0
2232,39660,0
2232,39688,0
2244,39651,0
2240,39657,0
2244,39677,0
2250,39668,0
2258,39676,0
2264,39685,0
2272,39650,0
2276,39665,0
2284,39676,0
2284,39679,0
2288,39670,0
2296,39668,0
2292,39659,0
2280,39701,0
2280,39675,0
2274,39652,0
2264,39679,0
2250,39670,0
2240,39676,0
2232,39696,0
2224,39673,0
2224,39671,0
2208,39692,0
2208,39673,0
2208,39669,0
2196,39689,0
2212,39665,0
2208,39676,0
2212,39694,0
2218,39683,0
2232,39667,0
2240,39671,0
2244,39691,0
2264,39672,0
2272,39670,0
2268,39684,0
2288,39670,0
2288,39677,0
2280,39693,0
2288,39664,0
2272,39673,0
2276,39670,0
2260,39702,0
2264,39678,0
2260,39657,0
2264,39668,0
2260,39695,0
2272,39656,0
2264,39654,0
2264,39669,0
2260,39655,0
2260,39648,0
2260,39675,0
2248,39651,0
2252,39624,0
2248,39682,0
2242,39652,0
2236,39631,0
2240,39664,0
2216,39629,0
2217,39636,0
2216,39667,0
2210,39642,0
2212,39622,0
2224,39657,0
2228,39643,0
2240,39625,0
2257,39652,0
2268,39619,0
2272,39620,0
2288,39653,0
2296,39645,0
2312,39641,0
2306,39624,0
2308,39631,0
2300,39652,0
2296,39630,0
2304,39612,0
2292,39632,0
2280,39635,0
2280,39621,0
2264,39627,0
2272,39626,0
2256,39619,0
2256,39628,0
2252,39636,0
2252,39611,0
2250,39588,0
2260,39627,0
2260,39613,0
2264,39597,0
2272,39622,0
2280,39598,0
2272,39585,0
2276,39636,0
2280,39609,0
2280,39569,0
2280,39613,0
2280,39600,0
2280,39586,0
2276,39608,0
2280,39597,0
2276,39612,0
2276,39603,0
2276,39593,0
2274,39598,0
2276,39589,0
2276,39588,0
2272,39617,0
2272,39582,0
2272,39588,0
2264,39606,0
2268,39588,0
2352,39595,0
2250,39606,0
2252,39586,0
2240,39581,0
2228,39623,0
2210,39587,0
2208,39588,0
2196,39599,0
2196,39579,0
2200,39590,0
2184,39607,0
2184,39586,0
2192,39575,0
2192,39604,0
2208,39612,0
2212,39574,0
2220,39586,0
2232,39598,0
2240,39584,0
2250,39590,0
2260,39564,0
2252,39599,0
2248,39593,0
2240,39588,0
2236,39579,0
2272,39580,0
2224,39584,0
2212,39571,0
2202,39576,0
2194,39589,0
2210,39563,0
2192,39564,0
2192,39593,0
2194,39567,0
2208,39576,0
2204,39590,0
2212,39571,0
2224,39583,0
2218,39591,0
2228,39569,0
2220,39564,0
2216,39590,0
2216,39564,0
2212,39566,0
2224,39588,0
2224,39565,0
2216,39570,0
2228,39584,0
2236,39574,0
2236,39568,0
2258,39567,0
2256,39582,0
2256,39564,0
2260,39557,0
2264,39568,0
2274,39555,0
2354,39585,0
2264,39559,0
2264,39584,0
2248,39549,0
2256,39554,0
2234,39583,0
2236,39553,0
2216,39553,0
2208,39569,0
2208,39562,0
2192,39554,0
2192,39570,0
2186,39558,0
2184,39544,0
2188,39578,0
2196,39552,0
2196,39550,0
2216,39547,0
2204,39570,0
2216,39554,0
2220,39533,0
2224,39554,0
2232,39535,0
2256,39533,0
2260,39568,0
2268,39533,0
2268,39518,0
2272,39547,0
2272,39547,0
2258,39530,0
2352,39542,0
2256,39495,0
2248,39534,0
2240,39525,0
2236,39521,0
2232,39542,0
2228,39521,0
2232,39516,0
2232,39544,0
2232,39507,0
2244,39515,0
2244,39525,0
2224,39517,0
2224,39522,0
2224,39529,0
2224,39504,0
2208,39495,0
2208,39549,0
2208,39515,0
2196,39491,0
2200,39518,0
2200,39500,0
2192,39496,0
2200,39504,0
2209,39504,0
2220,39484,0
2234,39501,0
2248,39525,0
2260,39477,0
2277,39496,0
2288,39480,0
2288,39478,0
2292,39471,0
2293,39480,0
2282,39455,0
2288,39492,0
2274,39481,0
2272,39457,0
2256,39487,0
2248,39463,0
2250,39470,0
2232,39496,0
2232,39459,0
2224,39465,0
2228,39466,0
2218,39462,0
2216,39462,0
2216,39477,0
2217,39447,0
2216,39446,0
2224,39482,0
2220,39458,0
2216,39436,0
2216,39468,0
2216,39442,0
2208,39450,0
2216,39447,0
2208,39438,0
2212,39432,0
2216,39449,0
2224,39454,0
2220,39432,0
2232,39428,0
2226,39439,0
2224,39462,0
2247,39444,0
2228,39422,0
2240,39443,0
2234,39437,0
2234,39431,0
2248,39433,0
2232,39440,0
2240,39409,0
2232,39419,0
2240,39451,0
2234,39421,0
2228,39402,0
2224,39447,0
2224,39420,0
2210,39409,0
2201,39437,0
2208,39407,0
2208,39399,0
2196,39440,0
2200,39409,0
2200,39399,0
2208,39429,0
2212,39399,0
2233,39415,0
2240,39431,0
2256,39409,0
2264,39401,0
2274,39427,0
2272,39404,0
2276,39408,0
2280,39398,0
2276,39400,0
2272,39420,0
2264,39422,0
2248,39397,0
2248,39419,0
2236,39382,0
2228,39409,0
2216,39419,0
2220,39395,0
2224,39396,0
2220,39424,0
2216,39410,0
2208,39391,0
2216,39409,0
2216,39396,0
2216,39397,0
2224,39416,0
2260,39408,0
2210,39378,0
2212,39376,0
2208,39427,0
2208,39391,0
2208,39376,0
2210,39404,0
2224,39382,0
2232,39374,0
2232,39413,0
2252,39378,0
2257,39365,0
2262,39415,0
2268,39395,0
2280,39395,0
2284,39395,0
2288,39381,0
2288,39411,0
2288,39376,0
2288,39372,0
2284,39402,0
2276,39367,0
2266,39378,0
2264,39401,0
2256,39376,0
2244,39382,0
2232,39390,0
2226,39381,0
2216,39385,0
2212,39393,0
2208,39368,0
2208,39379,0
2204,39401,0
2212,39366,0
2208,39381,0
2212,39397,0
2208,39385,0
2208,39373,0
2216,39393,0
2228,39382,0
2232,39373,0
2236,39394,0
2244,39389,0
2248,39372,0
2250,39367,0
2248,39359,0
2252,39391,0
2256,39379,0
2251,39365,0
2241,39364,0
2240,39396,0
2240,39373,0
2236,39363,0
2244,39383,0
2240,39356,0
2236,39380,0
2240,39401,0
2244,39361,0
2244,39364,0
2240,39384,0
2256,39382,0
2240,39376,0
2244,39383,0
2234,39371,0
2228,39368,0
2224,39392,0
2208,39372,0
2200,39368,0
2208,39382,0
2208,39395,0
2212,39378,0
2212,39358,0
2224,39386,0
2240,39362,0
2244,39367,0
2264,39388,0
2268,39370,0
2274,39348,0
2272,39376,0
2280,39382,0
2288,39375,0
2272,39367,0
2264,39363,0
2256,39391,0
2248,39374,0
2240,39378,0
2228,39391,0
2272,39358,0
2216,39374,0
2212,39397,0
2202,39378,0
2208,39365,0
2200,39385,0
2200,39374,0
2208,39369,0
2200,39387,0
2200,39369,0
2200,39371,0
2212,39388,0
2208,39398,0
2210,39374,0
2208,39359,0
2224,39404,0
2224,39386,0
2220,39353,0
2230,39405,0
2234,39360,0
2240,39362,0
2248,39400,0
2256,39395,0
2256,39363,0
2264,39377,0
2258,39394,0
2256,39381,0
2264,39395,0
2256,39379,0
2260,39376,0
2256,39412,0
2252,39373,0
2248,39369,0
2244,39400,0
2240,39386,0
2232,39376,0
2240,39408,0
2226,39374,0
2220,39354,0
2212,39416,0
2204,39381,0
2208,39368,0
2208,39402,0
2216,39382,0
2200,39384,0
2220,39400,0
2232,39384,0
2240,39371,0
2244,39421,0
2258,39387,0
2268,39376,0
2276,39413,0
2288,39385,0
2288,39403,0
2288,39393,0
2282,39408,0
2273,39416,0
2264,39413,0
2256,39422,0
2248,39400,0
2256,39399,0
2236,39415,0
2228,39386,0
2236,39414,0
2226,39422,0
2228,39401,0
2224,39400,0
2220,39428,0
2232,39405,0
2228,39407,0
2224,39416,0
2224,39405,0
2224,39410,0
2228,39408,0
2212,39428,0
2200,39410,0
2204,39384,0
2202,39455,0
2202,39410,0
2208,39387,0
2224,39426,0
2220,39407,0
2234,39406,0
2248,39436,0
2250,39411,0
2264,39403,0
2272,39419,0
2280,39420,0
2288,39413,0
2292,39441,0
2296,39416,0
2304,39444,0
2312,39414,0
2312,39407,0
2312,39431,0
2312,39422,0
2312,39432,0
2304,39443,0
2288,39414,0
2280,39419,0
2268,39436,0
2264,39444,0
2256,39427,0
2248,39415,0
2248,39444,0
2249,39436,0
2240,39421,0
2242,39445,0
2240,39434,0
2242,39404,0
2256,39474,0
2256,39434,0
2257,39426,0
2256,39455,0
2262,39437,0
2268,39432,0
2266,39457,0
2260,39434,0
2260,39463,0
2248,39468,0
2256,39444,0
2240,39451,0
2232,39463,0
2232,39432,0
2228,39453,0
2224,39475,0
2232,39445,0
2240,39443,0
2232,39470,0
2240,39457,0
2232,39459,0
2232,39462,0
2234,39452,0
2232,39458,0
2232,39478,0
2224,39473,0
2216,39454,0
2216,39451,0
2208,39498,0
2204,39467,0
2209,39440,0
2212,39472,0
2212,39452,0
2240,39437,0
2233,39496,0
2256,39463,0
2260,39444,0
2268,39490,0
2280,39465,0
2288,39466,0
2296,39484,0
2292,39474,0
2298,39472,0
2292,39460,0
2276,39464,0
2272,39459,0
2272,39480,0
2256,39479,0
2244,39482,0
2244,39487,0
2228,39479,0
2224,39470,0
2218,39489,0
2216,39501,0
2220,39479,0
2212,39476,0
2212,39501,0
2224,39493,0
2224,39473,0
2224,39495,0
2224,39471,0
2208,39488,0
2216,39515,0
2216,39481,0
2216,39476,0
2218,39501,0
2225,39485,0
2228,39466,0
2236,39505,0
2244,39488,0
2240,39474,0
2248,39501,0
2252,39501,0
2252,39489,0
2256,39483,0
2256,39493,0
2260,39500,0
2260,39507,0
2252,39477,0
2260,39494,0
2244,39522,0
2240,39491,0
2240,39503,0
2234,39525,0
2216,39497,0
2212,39518,0
2210,39521,0
2188,39505,0
2192,39498,0
2176,39521,0
2184,39538,0
2180,39504,0
2192,39485,0
2200,39521,0
2200,39511,0
2216,39495,0
2224,39527,0
2245,39503,0
2256,39484,0
2272,39541,0
2284,39510,0
2292,39500,0
2291,39526,0
2296,39512,0
2296,39505,0
2288,39511,0
2282,39517,0
2272,39516,0
2272,39540,0
2256,39516,0
2244,39521,0
2256,39540,0
2240,39519,0
2240,39509,0
2242,39548,0
2232,39514,0
2240,39499,0
2242,39539,0
2236,39533,0
2240,39513,0
2244,39554,0
2244,39521,0
2240,39492,0
2233,39558,0
2228,39521,0
2220,39520,0
2224,39539,0
2224,39524,0
2208,39522,0
2210,39551,0
2216,39527,0
2224,39512,0
2232,39565,0
2240,39533,0
2249,39522,0
2258,39513,0
2272,39531,0
2276,39547,0
2290,39540,0
2284,39537,0
2280,39521,0
2272,39561,0
2272,39549,0
2264,39537,0
2252,39556,0
2244,39543,0
2240,39545,0
2228,39558,0
2220,39568,0
2212,39535,0
2210,39535,0
2200,39577,0
2200,39534,0
2200,39518,0
2208,39561,0
2208,39527,0
2208,39540,0
2210,39558,0
2208,39538,0
2224,39528,0
2232,39567,0
2240,39567,0
2240,39528,0
2240,39573,0
2244,39546,0
2250,39540,0
2252,39577,0
2250,39556,0
2248,39552,0
2248,39570,0
2260,39541,0
2244,39557,0
2256,39538,0
2248,39571,0
2260,39554,0
2258,39571,0
2266,39559,0
2256,39573,0
2264,39550,0
2264,39541,0
2256,39597,0
2256,39562,0
2248,39545,0
2234,39567,0
2228,39563,0
2184,39552,0
2216,39581,0
2208,39554,0
2208,39542,0
2194,39587,0
2196,39566,0
2194,39547,0
2200,39570,0
2208,39565,0
2216,39561,0
2228,39589,0
2236,39557,0
2260,39553,0
2257,39584,0
2272,39555,0
2276,39571,0
2274,39577,0
2276,39563,0
2276,39576,0
2272,39596,0
2256,39564,0
2248,39555,0
2240,39596,0
2228,39583,0
2232,39565,0
2224,39598,0
2276,39568,0
2228,39572,0
2220,39610,0
2220,39576,0
2226,39576,0
2232,39591,0
2228,39583,0
2232,39588,0
2240,39600,0
2240,39580,0
2232,39576,0
2228,39619,0
2228,39587,0
2240,39579,0
2242,39597,0
2240,39589,0
2242,39604,0
2240,39609,0
2240,39604,0
2242,39651,0
2236,39601,0
2232,39629,0
2232,39591,0
2224,39608,0
2224,39616,0
2224,39616,0
2224,39595,0
2224,39586,0
2216,39619,0
2216,39596,0
2210,39595,0
2208,39623,0
2208,39598,0
2200,39582,0
2220,39620,0
2216,39606,0
2224,39597,0
2224,39623,0
2244,39591,0
2248,39605,0
2292,39640,0
2316,39600,0
2356,39605,0
2408,39621,0
2456,39621,0
2513,39607,0
2580,39628,0
2628,39606,0
2696,39612,0
2740,39613,0
2792,39645,0
2840,39651,0
2896,39623,0
2916,39612,0
2944,39624,0
2976,39625,0
2984,39616,0
2984,39636,0
2960,39623,0
2932,39623,0
2900,39644,0
2840,39615,0
2776,39619,0
2706,39653,0
2640,39631,0
2568,39623,0
2500,39618,0
2420,39644,0
2352,39635,0
2276,39611,0
2202,39636,0
2132,39628,0
2068,39625,0
2008,39663,0
1960,39623,0
1924,39622,0
1908,39646,0
1884,39637,0
1866,39640,0
1868,39657,0
1872,39627,0
1880,39625,0
1844,39650,0
1884,39620,0
1884,39645,0
1898,39651,0
1896,39656,0
1916,39649,0
1912,39637,0
1916,39637,0
1922,39663,0
1926,39643,0
1936,39648,0
1936,39665,0
1944,39651,0
1940,39640,0
1948,39670,0
1954,39673,0
1956,39650,0
1960,39652,0
1968,39665,0
1980,39666,0
1985,39636,0
2000,39682,0
2012,39651,0
2016,39636,0
2036,39689,0
2032,39667,0
2048,39647,0
2068,39672,0
2065,39660,0
2084,39655,0
2101,39688,0
2106,39668,0
2120,39648,0
2116,39688,0
2130,39674,0
2136,39668,0
2144,39663,0
2144,39668,0
2149,39665,0
2152,39702,0
2162,39667,0
2156,39648,0
2160,39695,0
2160,39682,0
2172,39671,0
2164,39694,0
2164,39663,0
2160,39693,0
2156,39703,0
2160,39683,0
2144,39678,0
2138,39695,0
2128,39689,0
2128,39679,0
2116,39706,0
2113,39683,0
2112,39689,0
2114,39694,0
2120,39712,0
2128,39692,0
2152,39695,0
2152,39717,0
2164,39695,0
2176,39693,0
2188,39718,0
2192,39707,0
2196,39704,0
2194,39724,0
2192,39718,0
2184,39692,0
2180,39685,0
2168,39706,0
2164,39713,0
2146,39705,0
2140,39699,0
2136,39726,0
2136,39724,0
2128,39693,0
2128,39707,0
2132,39718,0
2128,39709,0
2132,39702,0
2132,39727,0
2132,39702,0
2136,39699,0
2144,39738,0
2140,39713,0
2136,39696,0
2128,39727,0
2136,39697,0
2144,39701,0
2144,39734,0
2145,39706,0
2148,39688,0
2156,39744,0
2160,39722,0
2160,39696,0
2161,39723,0
2168,39717,0
2170,39735,0
2176,39737,0
2180,39738,0
2176,39733,0
2176,39726,0
2169,39729,0
2160,39741,0
2152,39744,0
2152,39716,0
2144,39723,0
2136,39763,0
2128,39728,0
2124,39708,0
2112,39736,0
2112,39720,0
2108,39721,0
2100,39759,0
2098,39731,0
2096,39712,0
2097,39775,0
2104,39740,0
2112,39714,0
2112,39747,0
2128,39734,0
2136,39742,0
2144,39770,0
2160,39736,0
2180,39738,0
2176,39767,0
2180,39743,0
2188,39754,0
2188,39761,0
2176,39748,0
2176,39752,0
2160,39762,0
2160,39749,0
2160,39765,0
2154,39751,0
2152,39765,0
2148,39764,0
2152,39785,0
2152,39752,0
2170,39743,0
2156,39793,0
2164,39756,0
2156,39732,0
2152,39771,0
2164,39765,0
2156,39758,0
2144,39778,0
2144,39747,0
2132,39740,0
2140,39787,0
2128,39764,0
2137,39762,0
2148,39783,0
2138,39756,0
2140,39773,0
2152,39786,0
2164,39762,0
2168,39762,0
2176,39784,0
2184,39774,0
2188,39774,0
2200,39745,0
2208,39751,0
2200,39790,0
2204,39767,0
2192,39774,0
2192,39771,0
2180,39754,0
2188,39771,0
2176,39793,0
2176,39755,0
2172,39752,0
2160,39780,0
2156,39787,0
2152,39752,0
2164,39770,0
2154,39777,0
2152,39762,0
2160,39757,0
2164,39783,0
2160,39764,0
2168,39740,0
2176,39780,0
2168,39771,0
2176,39751,0
2184,39783,0
2180,39752,0
2188,39773,0
2194,39788,0
2192,39760,0
2186,39752,0
2184,39744,0
2180,39779,0
2184,39760,0
2192,39755,0
2184,39740,0
2188,39778,0
2196,39758,0
2184,39737,0
2184,39773,0
2192,39739,0
2186,39741,0
2140,39777,0
2184,39750,0
2184,39733,0
2176,39763,0
2164,39748,0
2164,39719,0
2156,39750,0
2144,39724,0
2148,39730,0
2144,39765,0
2136,39733,0
2138,39729,0
2146,39727,0
2154,39734,0
2152,39739,0
2160,39745,0
2180,39727,0
2184,39722,0
2208,39752,0
2224,39724,0
2224,39682,0
2226,39726,0
2224,39718,0
2220,39722,0
2220,39707,0
2216,39692,0
2200,39725,0
2192,39708,0
2172,39696,0
2176,39728,0
2168,39703,0
2164,39688,0
2160,39729,0
2168,39697,0
2161,39667,0
2168,39720,0
2172,39697,0
2172,39691,0
2164,39715,0
2168,39687,0
2176,39679,0
2180,39701,0
2178,39698,0
2176,39681,0
2176,39696,0
2188,39674,0
2192,39682,0
2202,39712,0
2194,39672,0
2214,39679,0
2208,39695,0
2218,39680,0
2228,39682,0
2240,39678,0
2228,39669,0
2252,39665,0
2242,39696,0
2242,39665,0
2248,39685,0
2240,39654,0
2240,39663,0
2232,39677,0
2232,39663,0
2224,39670,0
2216,39664,0
2208,39683,0
2204,39655,0
2184,39641,0
2184,39677,0
2164,39635,0
2162,39640,0
2146,39680,0
2144,39640,0
2153,39630,0
2154,39671,0
2148,39648,0
2144,39641,0
2160,39667,0
2160,39643,0
2176,39637,0
2170,39663,0
2180,39635,0
2193,39632,0
2186,39651,0
2196,39643,0
2196,39638,0
2144,39650,0
2182,39639,0
2176,39638,0
2176,39647,0
2176,39633,0
2168,39656,0
2168,39628,0
2160,39622,0
2160,39665,0
2160,39630,0
2162,39638,0
2160,39647,0
2160,39623,0
2164,39639,0
2152,39651,0
2148,39622,0
2144,39627,0
2140,39668,0
2136,39638,0
2128,39628,0
2116,39647,0
2112,39625,0
2120,39646,0
2116,39646,0
2114,39647,0
2120,39621,0
2136,39613,0
2144,39658,0
2160,39632,0
2168,39602,0
2184,39629,0
2192,39641,0
2200,39630,0
2200,39645,0
2200,39642,0
2208,39625,0
2200,39657,0
2196,39616,0
2194,39630,0
2180,39642,0
2176,39619,0
2176,39630,0
2168,39658,0
2170,39624,0
2168,39607,0
2244,39649,0
2172,39628,0
2156,39604,0
2162,39647,0
2160,39616,0
2160,39613,0
2160,39637,0
2160,39609,0
2160,39614,0
2164,39632,0
2162,39622,0
2160,39624,0
2168,39655,0
2172,39619,0
2176,39619,0
2184,39660,0
2184,39637,0
2193,39647,0
2192,39645,0
2192,39629,0
2199,39627,0
2202,39639,0
2200,39621,0
2196,39650,0
2193,39628,0
2196,39617,0
2208,39626,0
2200,39637,0
2196,39609,0
2200,39621,0
2196,39644,0
2192,39615,0
2194,39598,0
2186,39638,0
2180,39620,0
2176,39601,0
2172,39636,0
2168,39610,0
2160,39619,0
2160,39640,0
2160,39609,0
2154,39609,0
2168,39635,0
2168,39613,0
2180,39620,0
2192,39634,0
2202,39604,0
2224,39610,0
2224,39648,0
2224,39605,0
2228,39628,0
2244,39616,0
2225,39624,0
2242,39620,0
2228,39605,0
2216,39609,0
2212,39615,0
2200,39618,0
2200,39610,0
2196,39628,0
2200,39612,0
2184,39599,0
2178,39630,0
2180,39615,0
2184,39606,0
2192,39603,0
2184,39636,0
2192,39617,0
2194,39594,0
2192,39618,0
2192,39592,0
2176,39593,0
2176,39619,0
2176,39602,0
2176,39589,0
2192,39614,0
2182,39611,0
2192,39588,0
2194,39623,0
2201,39600,0
2204,39583,0
2208,39626,0
2208,39597,0
2208,39612,0
2212,39576,0
2208,39621,0
2208,39630,0
2212,39595,0
2204,39597,0
2196,39610,0
2200,39609,0
2184,39606,0
2184,39608,0
2176,39613,0
2178,39595,0
2168,39620,0
2160,39618,0
2156,39595,0
2156,39588,0
2152,39630,0
2160,39613,0
2168,39591,0
2176,39629,0
2176,39586,0
2176,39583,0
2192,39631,0
2192,39599,0
2200,39587,0
2210,39625,0
2224,39598,0
2228,39603,0
2234,39622,0
2232,39588,0
2240,39619,0
2236,39616,0
2232,39611,0
2237,39624,0
2220,39619,0
2216,39607,0
2216,39640,0
2212,39609,0
2212,39611,0
2220,39620,0
2220,39622,0
2224,39611,0
2212,39608,0
2220,39619,0
2208,39602,0
2208,39602,0
2212,39637,0
2192,39604,0
2188,39588,0
2184,39631,0
2184,39619,0
2176,39587,0
2168,39634,0
2160,39601,0
2165,39593,0
2176,39643,0
2168,39613,0
2178,39599,0
2192,39614,0
2208,39611,0
2212,39617,0
2224,39635,0
2234,39605,0
2248,39614,0
2256,39625,0
2260,39602,0
2258,39632,0
2256,39596,0
2256,39614,0
2248,39639,0
2240,39605,0
2228,39622,0
2224,39621,0
2210,39618,0
2204,39624,0
2196,39614,0
2200,39615,0
2192,39603,0
2184,39613,0
2176,39640,0
2184,39608,0
2188,39594,0
2192,39627,0
2196,39620,0
2208,39590,0
2208,39627,0
2208,39601,0
2212,39601,0
2220,39643,0
2228,39607,0
2225,39609,0
2234,39632,0
2236,39610,0
2236,39610,0
2240,39618,0
2242,39612,0
2228,39582,0
2234,39621,0
2232,39638,0
2224,39604,0
2226,39604,0
2228,39630,0
2232,39623,0
2228,39606,0
2220,39636,0
2224,39602,0
2312,39611,0
2212,39650,0
2204,39611,0
2208,39613,0
2192,39631,0
2200,39620,0
2184,39620,0
2178,39626,0
2176,39617,0
2184,39610,0
2192,39646,0
2188,39623,0
2200,39609,0
2212,39616,0
2224,39625,0
2236,39612,0
2262,39606,0
2264,39633,0
2264,39606,0
2264,39599,0
2276,39636,0
2264,39592,0
2273,39608,0
2256,39598,0
2240,39631,0
2232,39624,0
2180,39629,0
2212,39606,0
2212,39606,0
2200,39643,0
2196,39608,0
2204,39588,0
2192,39628,0
2192,39612,0
2200,39604,0
2200,39633,0
2200,39611,0
2208,39587,0
2208,39638,0
2210,39618,0
2208,39584,0
2196,39633,0
2201,39599,0
2196,39621,0
2204,39634,0
2200,39608,0
2202,39601,0
2208,39619,0
2216,39621,0
2216,39605,0
2228,39635,0
2232,39599,0
2250,39614,0
2248,39620,0
2260,39635,0
2260,39629,0
2272,39597,0
2272,39618,0
2264,39644,0
2260,39624,0
2258,39616,0
2256,39630,0
2256,39644,0
2240,39619,0
2232,39623,0
2224,39633,0
2216,39620,0
2216,39618,0
2204,39645,0
2204,39620,0
2196,39599,0
2192,39650,0
2200,39626,0
2208,39602,0
2200,39654,0
2208,39617,0
2228,39624,0
2224,39654,0
2228,39626,0
2240,39612,0
2248,39646,0
2257,39642,0
2260,39623,0
2258,39648,0
2260,39643,0
2256,39656,0
2257,39632,0
2321,39639,0
2248,39650,0
2256,39627,0
2248,39640,0
2242,39656,0
2236,39628,0
2240,39634,0
2236,39651,0
2224,39642,0
2240,39641,0
2228,39658,0
2228,39645,0
2228,39630,0
2220,39658,0
2220,39663,0
2202,39643,0
2200,39620,0
2200,39668,0
2200,39645,0
2196,39628,0
2201,39666,0
2192,39629,0
2200,39624,0
2212,39673,0
2228,39635,0
2240,39620,0
2256,39646,0
2250,39656,0
2264,39644,0
2272,39648,0
2284,39662,0
2290,39659,0
2280,39657,0
2272,39668,0
2272,39652,0
2272,39650,0
2256,39670,0
2248,39674,0
2240,39656,0
2228,39651,0
2226,39664,0
2234,39659,0
2208,39636,0
2208,39667,0
2208,39641,0
2208,39628,0
2212,39684,0
2200,39651,0
2208,39634,0
2208,39676,0
2220,39645,0
2208,39655,0
2220,39675,0
2224,39654,0
2217,39643,0
2224,39677,0
2225,39658,0
2240,39665,0
2240,39690,0
2232,39650,0
2248,39676,0
2244,39674,0
2260,39659,0
2264,39678,0
2256,39651,0
2258,39674,0
2260,39688,0
2260,39669,0
2260,39665,0
2256,39686,0
2256,39682,0
2256,39670,0
2252,39685,0
2244,39681,0
2240,39679,0
2242,39666,0
2224,39700,0
2232,39658,0
2212,39648,0
2210,39725,0
2208,39669,0
2202,39651,0
2200,39696,0
2208,39676,0
2210,39672,0
2212,39703,0
2228,39674,0
2224,39654,0
2240,39707,0
2256,39688,0
2265,39667,0
2272,39688,0
2280,39682,0
2272,39712,0
2268,39704,0
2272,39677,0
2260,39684,0
2260,39679,0
2256,39685,0
2248,39721,0
2240,39672,0
2240,39673,0
2240,39713,0
2234,39698,0
2240,39689,0
2232,39714,0
2232,39686,0
2228,39688,0
2233,39721,0
2224,39700,0
2224,39692,0
2224,39702,0
2232,39720,0
2224,39697,0
2216,39714,0
2216,39700,0
2216,39690,0
2208,39726,0
2210,39724,0
2208,39707,0
2224,39712,0
2232,39728,0
2240,39708,0
2249,39694,0
2258,39707,0
2264,39700,0
2272,39717,0
2276,39721,0
2276,39706,0
2272,39700,0
2272,39732,0
2272,39720,0
2265,39693,0
2268,39737,0
2258,39705,0
2264,39707,0
2248,39738,0
2242,39708,0
2232,39714,0
2228,39727,0
2232,39714,0
2226,39729,0
2240,39737,0
2233,39714,0
2228,39711,0
2224,39743,0
2240,39736,0
2232,39723,0
2248,39715,0
2256,39745,0
2260,39731,0
2272,39706,0
2264,39739,0
2277,39712,0
2288,39714,0
2278,39755,0
2292,39715,0
2280,39717,0
2272,39748,0
2273,39737,0
2272,39750,0
2260,39725,0
2256,39718,0
2248,39739,0
2244,39732,0
2244,39727,0
2244,39754,0
2240,39724,0
2232,39727,0
2240,39766,0
2232,39731,0
2234,39734,0
2228,39749,0
2224,39747,0
2300,39739,0
2216,39762,0
2224,39753,0
2216,39733,0
2210,39761,0
2216,39768,0
2224,39739,0
2224,39731,0
2232,39761,0
2252,39752,0
2257,39733,0
2268,39758,0
2280,39733,0
2296,39731,0
2312,39753,0
2312,39744,0
2314,39772,0
2316,39734,0
2322,39747,0
2312,39734,0
2308,39763,0
2296,39744,0
2288,39735,0
2280,39771,0
2272,39745,0
2268,39754,0
2298,39775,0
2258,39756,0
2256,39759,0
2240,39757,0
2244,39777,0
2248,39748,0
2260,39739,0
2250,39797,0
2248,39747,0
2249,39752,0
2256,39770,0
2248,39769,0
2244,39752,0
2242,39781,0
2248,39751,0
2248,39733,0
2248,39790,0
2256,39751,0
2256,39744,0
2260,39785,0
2268,39776,0
2264,39769,0
2272,39782,0
2257,39748,0
2272,39750,0
2264,39779,0
2272,39796,0
2284,39759,0
2276,39753,0
2272,39784,0
2268,39773,0
2264,39760,0
2264,39798,0
2256,39763,0
2248,39741,0
2244,39802,0
2236,39778,0
2240,39762,0
2232,39787,0
2224,39766,0
2224,39783,0
2232,39790,0
2228,39759,0
2240,39768,0
2240,39806,0
2249,39776,0
2264,39774,0
2276,39798,0
2292,39769,0
2296,39792,0
2296,39792,0
2300,39785,0
2292,39780,0
2290,39796,0
2284,39809,0
2288,39771,0
2280,39776,0
2264,39796,0
2264,39777,0
2260,39782,0
2320,39792,0
2244,39784,0
2244,39757,0
2252,39815,0
2248,39783,0
2250,39768,0
2252,39799,0
2250,39777,0
2252,39789,0
2258,39814,0
2244,39786,0
2240,39780,0
2240,39808,0
2228,39797,0
2228,39795,0
2232,39814,0
2232,39777,0
2240,39793,0
2240,39822,0
2244,39787,0
2256,39789,0
2276,39807,0
2276,39812,0
2288,39801,0
2292,39777,0
2298,39793,0
2304,39788,0
2304,39814,0
2304,39798,0
2300,39813,0
2289,39789,0
2288,39793,0
2264,39831,0
2272,39796,0
2256,39797,0
2244,39809,0
2240,39820,0
2232,39814,0
2226,39796,0
2220,39820,0
2216,39790,0
2220,39787,0
2216,39827,0
2224,39800,0
2232,39777,0
2228,39813,0
2232,39813,0
2248,39794,0
2248,39823,0
2256,39794,0
2260,39793,0
2264,39840,0
2265,39808,0
2264,39805,0
2252,39817,0
2256,39832,0
2250,39835,0
2234,39803,0
2232,39820,0
2224,39820,0
2186,39841,0
2224,39813,0
2216,39807,0
2224,39829,0
2208,39812,0
2224,39824,0
2232,39840,0
2240,39813,0
2244,39809,0
2258,39842,0
2272,39837,0
2292,39807,0
2296,39817,0
2316,39838,0
2344,39822,0
2372,39811,0
2400,39832,0
2432,39813,0
2476,39801,0
2516,39847,0
2580,39818,0
2616,39798,0
2664,39841,0
2720,39820,0
2768,39827,0
2832,39841,0
2872,39816,0
2992,39802,0
2952,39832,0
2980,39830,0
2994,39819,0
3000,39813,0
2978,39811,0
2944,39831,0
2896,39854,0
2848,39827,0
2768,39811,0
2698,39843,0
2616,39832,0
2552,39813,0
2468,39850,0
2400,39814,0
2336,39809,0
2264,39856,0
2200,39825,0
2144,39821,0
2084,39848,0
2048,39835,0
2002,39821,0
1972,39854,0
1960,39831,0
1940,39820,0
1936,39855,0
1936,39832,0
1944,39835,0
1942,39855,0
1954,39824,0
1962,39848,0
1948,39854,0
1976,39836,0
1970,39841,0
1980,39824,0
1992,39841,0
2016,39846,0
2026,39836,0
2034,39835,0
2040,39870,0
2044,39837,0
2060,39840,0
2058,39860,0
2064,39824,0
2065,39843,0
2080,39860,0
2080,39852,0
2082,39834,0
2088,39843,0
2082,39871,0
2088,39839,0
2090,39833,0
2096,39871,0
2098,39848,0
2112,39821,0
2116,39870,0
2130,39846,0
2136,39814,0
2160,39877,0
2176,39844,0
2196,39835,0
2220,39871,0
2220,39842,0
2224,39835,0
2244,39846,0
2240,39828,0
2248,39867,0
2240,39831,0
2234,39864,0
2232,39871,0
2225,39847,0
2220,39844,0
2218,39871,0
2216,39873,0
2216,39848,0
2216,39834,0
2224,39867,0
2220,39858,0
2216,39842,0
2220,39872,0
2220,39843,0
2232,39837,0
2232,39877,0
2224,39840,0
2232,39848,0
2226,39867,0
2220,39852,0
2214,39865,0
2216,39865,0
2224,39848,0
2234,39849,0
2232,39890,0
2240,39861,0
2264,39856,0
2266,39856,0
2281,39869,0
2284,39876,0
2300,39877,0
2304,39852,0
2316,39865,0
2314,39860,0
2324,39863,0
2316,39871,0
2308,39845,0
2304,39856,0
2306,39881,0
2288,39863,0
2282,39855,0
2272,39886,0
2264,39841,0
2256,39873,0
2252,39895,0
2244,39869,0
2244,39858,0
2240,39849,0
2244,39903,0
2248,39859,0
2248,39854,0
2246,39879,0
2256,39860,0
2268,39856,0
2272,39883,0
2272,39865,0
2276,39844,0
2274,39896,0
2288,39869,0
2288,39855,0
2300,39887,0
2288,39868,0
2292,39910,0
2290,39865,0
2292,39878,0
2290,39892,0
2284,39865,0
2284,39872,0
2290,39900,0
2280,39865,0
2284,39851,0
2288,39901,0
2288,39870,0
2280,39878,0
2280,39888,0
2280,39872,0
2280,39889,0
2264,39901,0
2264,39883,0
2256,39872,0
2252,39888,0
2240,39904,0
2240,39875,0
2232,39895,0
2233,39883,0
2232,39872,0
2244,39901,0
2250,39905,0
2260,39880,0
2274,39880,0
2292,39903,0
2298,39879,0
2324,39894,0
2320,39866,0
2324,39881,0
2320,39910,0
2316,39881,0
2306,39875,0
2292,39874,0
2292,39899,0
2282,39881,0
2276,39883,0
2276,39905,0
2260,39879,0
2264,39883,0
2256,39910,0
2264,39897,0
2256,39886,0
2248,39893,0
2264,39907,0
2260,39896,0
2260,39897,0
2272,39916,0
2268,39884,0
2266,39874,0
2272,39914,0
2272,39886,0
2280,39860,0
2288,39905,0
2284,39892,0
2280,39872,0
2293,39913,0
2296,39875,0
2292,39877,0
2304,39894,0
2292,39896,0
2304,39890,0
2312,39909,0
2304,39902,0
2306,39914,0
2304,39881,0
2308,39886,0
2356,39914,0
2308,39892,0
2304,39892,0
2304,39912,0
2300,39888,0
2280,39888,0
2272,39928,0
2260,39897,0
2249,39890,0
2240,39902,0
2240,39908,0
2230,39904,0
2228,39899,0
2234,39908,0
2225,39885,0
2240,39893,0
2244,39912,0
2248,39882,0
2260,39862,0
2272,39905,0
2292,39902,0
2312,39870,0
2316,39906,0
2316,39882,0
2316,39877,0
2320,39901,0
2316,39891,0
2320,39873,0
2308,39866,0
2298,39898,0
2304,39880,0
2296,39876,0
2296,39894,0
2300,39864,0
2296,39876,0
2292,39897,0
2292,39884,0
2292,39855,0
2296,39861,0
2296,39907,0
2298,39857,0
2298,39851,0
2280,39880,0
2280,39867,0
2280,39852,0
2272,39874,0
2276,39841,0
2264,39834,0
2272,39877,0
2274,39857,0
2282,39846,0
2288,39871,0
2296,39838,0
2300,39849,0
2312,39865,0
2312,39829,0
2322,39842,0
2324,39823,0
2332,39849,0
2428,39846,0
2320,39826,0
2320,39822,0
2320,39852,0
2312,39830,0
2302,39825,0
2288,39853,0
2282,39818,0
2274,39839,0
2272,39854,0
2266,39819,0
2264,39813,0
2264,39835,0
2268,39827,0
2260,39817,0
2264,39838,0
2280,39813,0
2280,39821,0
2288,39817,0
2288,39835,0
2288,39806,0
2296,39782,0
2308,39825,0
2312,39798,0
2312,39804,0
2322,39810,0
2324,39782,0
2324,39801,0
2322,39814,0
2324,39784,0
2322,39792,0
2324,39792,0
2320,39815,0
2312,39790,0
2308,39807,0
2312,39780,0
2304,39775,0
2304,39816,0
2304,39779,0
2304,39766,0
2296,39800,0
2290,39780,0
2290,39763,0
2284,39797,0
2276,39773,0
2288,39756,0
2268,39802,0
2272,39775,0
2260,39771,0
2256,39785,0
2256,39772,0
2240,39777,0
2240,39803,0
2240,39765,0
2244,39771,0
2244,39798,0
2256,39766,0
2272,39769,0
2288,39787,0
2304,39769,0
2306,39769,0
2320,39790,0
2316,39784,0
2320,39766,0
2316,39779,0
2312,39770,0
2306,39775,0
2288,39779,0
2274,39756,0
2272,39771,0
2258,39779,0
2250,39766,0
2240,39768,0
2232,39772,0
2240,39789,0
2226,39766,0
2224,39745,0
2224,39793,0
2232,39760,0
2228,39746,0
2232,39782,0
2244,39752,0
2242,39733,0
2240,39790,0
2244,39764,0
2240,39738,0
2244,39770,0
2248,39747,0
2256,39744,0
2248,39789,0
2272,39762,0
2264,39739,0
2260,39767,0
2276,39774,0
2288,39773,0
2288,39760,0
2296,39764,0
2292,39769,0
2296,39781,0
2308,39750,0
2296,39758,0
2300,39775,0
2300,39764,0
2290,39749,0
2300,39770,0
2282,39754,0
2280,39731,0
2273,39785,0
2256,39754,0
2256,39738,0
2248,39766,0
2240,39746,0
2240,39745,0
2240,39768,0
2240,39740,0
2244,39745,0
2250,39769,0
2258,39750,0
2256,39741,0
2264,39761,0
2284,39737,0
2284,39751,0
2306,39770,0
2312,39749,0
2322,39739,0
2314,39751,0
2316,39770,0
2312,39761,0
2309,39749,0
2296,39748,0
2288,39751,0
2285,39748,0
2276,39746,0
2272,39763,0
2272,39731,0
2268,39746,0
2266,39786,0
2272,39746,0
2272,39737,0
2272,39747,0
2280,39763,0
2280,39748,0
2272,39751,0
2268,39758,0
2272,39731,0
2256,39743,0
2256,39775,0
2258,39741,0
2256,39731,0
2244,39754,0
2248,39753,0
2256,39722,0
2266,39762,0
2272,39734,0
2282,39728,0
2293,39764,0
2300,39730,0
2300,39745,0
2304,39732,0
2308,39768,0
2304,39764,0
2292,39740,0
2292,39734,0
2282,39748,0
2276,39758,0
2272,39736,0
2264,39720,0
2264,39750,0
2252,39730,0
2252,39731,0
2244,39760,0
2240,39725,0
2244,39717,0
2240,39755,0
2244,39727,0
2242,39727,0
2298,39758,0
2240,39730,0
2240,39731,0
2242,39764,0
2244,39730,0
2257,39728,0
2257,39747,0
2272,39739,0
2280,39735,0
2282,39755,0
2288,39723,0
2296,39741,0
2300,39750,0
2296,39725,0
2296,39745,0
2288,39744,0
2290,39717,0
2288,39756,0
2296,39734,0
2308,39724,0
2292,39755,0
2296,39749,0
2296,39718,0
2288,39765,0
2305,39730,0
2256,39710,0
2280,39765,0
2280,39734,0
2264,39715,0
2265,39753,0
2257,39745,0
2250,39722,0
2252,39756,0
2248,39736,0
2248,39717,0
2232,39770,0
2241,39738,0
2248,39735,0
2260,39754,0
2264,39731,0
2268,39759,0
2292,39754,0
2316,39744,0
2320,39751,0
2324,39775,0
2328,39766,0
2324,39765,0
2331,39718,0
2312,39743,0
2312,39733,0
2306,39769,0
2290,39740,0
2292,39727,0
2276,39759,0
2276,39755,0
2268,39730,0
2264,39767,0
2252,39732,0
2256,39739,0
2256,39780,0
2260,39753,0
2260,39750,0
2266,39779,0
2276,39738,0
2296,39755,0
2276,39769,0
2268,39741,0
2272,39743,0
2272,39774,0
2264,39761,0
2264,39744,0
2260,39772,0
2264,39741,0
2272,39753,0
2268,39769,0
2272,39745,0
2276,39775,0
2272,39767,0
2280,39751,0
2288,39757,0
2288,39746,0
2288,39744,0
2304,39739,0
2300,39784,0
2300,39744,0
2288,39742,0
2368,39769,0
2288,39760,0
2280,39748,0
2280,39770,0
2276,39748,0
2264,39739,0
2264,39774,0
2260,39739,0
2256,39752,0
2256,39777,0
2258,39753,0
2260,39751,0
2257,39777,0
2264,39758,0
2272,39740,0
2280,39778,0
2288,39759,0
2296,39750,0
2302,39761,0
2312,39755,0
2312,39764,0
2312,39753,0
2312,39758,0
2308,39770,0
2312,39760,0
2288,39761,0
2336,39746,0
2284,39773,0
2265,39744,0
2264,39755,0
2256,39777,0
2256,39766,0
2264,39756,0
2264,39750,0
2264,39783,0
2266,39756,0
2264,39737,0
2276,39782,0
2265,39748,0
2268,39760,0
2272,39777,0
2264,39756,0
2260,39746,0
2256,39766,0
2249,39761,0
2248,39750,0
2252,39773,0
2256,39746,0
2256,39750,0
2265,39780,0
2272,39743,0
2288,39744,0
2292,39774,0
2296,39762,0
2308,39749,0
2304,39774,0
2316,39773,0
2312,39750,0
2314,39770,0
2300,39742,0
2304,39771,0
2300,39740,0
2296,39748,0
2284,39784,0
2276,39749,0
2272,39763,0
2260,39777,0
2252,39760,0
2244,39760,0
2240,39788,0
2244,39753,0
2244,39747,0
2252,39793,0
2250,39768,0
2256,39757,0
2272,39769,0
2272,39772,0
2280,39769,0
2288,39762,0
2280,39782,0
2288,39762,0
2288,39754,0
2292,39790,0
2296,39767,0
2296,39747,0
2296,39777,0
2292,39777,0
2282,39761,0
2280,39781,0
2280,39770,0
2276,39764,0
2276,39762,0
2272,39759,0
2272,39775,0
2272,39757,0
2276,39759,0
2272,39799,0
2268,39761,0
2272,39764,0
2268,39784,0
2264,39766,0
2268,39774,0
2260,39794,0
2260,39758,0
2250,39759,0
2250,39790,0
2248,39775,0
2240,39770,0
2240,39774,0
2240,39772,0
2240,39787,0
2248,39758,0
2252,39793,0
2264,39764,0
2272,39746,0
2292,39801,0
2304,39767,0
2320,39760,0
2324,39746,0
2332,39782,0
2332,39789,0
2328,39788,0
2324,39781,0
2320,39786,0
2312,39788,0
2304,39772,0
2288,39798,0
2280,39795,0
2272,39776,0
2272,39793,0
2268,39797,0
2264,39774,0
2260,39775,0
2256,39805,0
2268,39781,0
2260,39775,0
2264,39796,0
2272,39767,0
2260,39768,0
2272,39814,0
2264,39769,0
2264,39763,0
2260,39798,0
2264,39779,0
2260,39767,0
2264,39813,0
2264,39775,0
2272,39785,0
2272,39818,0
2264,39782,0
2276,39782,0
2296,39764,0
2290,39793,0
2308,39780,0
2288,39788,0
2296,39766,0
2296,39802,0
2288,39800,0
2292,39771,0
2288,39812,0
2276,39790,0
2280,39765,0
2276,39821,0
2272,39788,0
2272,39783,0
2272,39807,0
2256,39786,0
2256,39803,0
2252,39825,0
2260,39786,0
2256,39798,0
2260,39835,0
2257,39801,0
2264,39793,0
2276,39805,0
2280,39797,0
2288,39801,0
2296,39806,0
2312,39817,0
2313,39784,0
2312,39774,0
2312,39831,0
2308,39799,0
2308,39797,0
2304,39796,0
2296,39824,0
2288,39802,0
2288,39824,0
2285,39793,0
2276,39788,0
2272,39823,0
2276,39800,0
2280,39803,0
2284,39817,0
2274,39786,0
2288,39809,0
2288,39833,0
2288,39805,0
2296,39802,0
2284,39825,0
2248,39805,0
2272,39810,0
2280,39820,0
2273,39800,0
2256,39815,0
2256,39833,0
2260,39810,0
2264,39802,0
2256,39816,0
2272,39838,0
2268,39810,0
2282,39807,0
2288,39828,0
2302,39802,0
2308,39822,0
2320,39806,0
2324,39828,0
2336,39811,0
2336,39799,0
2330,39828,0
2328,39797,0
2320,39794,0
2312,39821,0
2296,39822,0
2290,39810,0
2276,39831,0
2272,39809,0
2260,39806,0
2252,39846,0
2248,39817,0
2244,39810,0
2240,39830,0
2234,39806,0
2232,39832,0
2240,39842,0
2248,39826,0
2240,39805,0
2248,39831,0
2256,39845,0
2260,39806,0
2260,39806,0
2268,39837,0
2288,39826,0
2300,39803,0
2296,39841,0
2308,39821,0
2320,39814,0
2312,39838,0
2324,39822,0
2316,39821,0
2320,39838,0
2316,39830,0
2324,39834,0
2324,39835,0
2314,39815,0
2320,39824,0
2304,39848,0
2308,39818,0
2296,39823,0
2292,39839,0
2352,39823,0
2276,39832,0
2260,39848,0
2260,39844,0
2248,39828,0
2252,39816,0
2240,39854,0
2244,39829,0
2248,39808,0
2252,39844,0
2276,39825,0
2264,39825,0
2288,39839,0
2296,39823,0
2301,39806,0
2316,39861,0
2318,39832,0
2336,39821,0
2336,39796,0
2336,39826,0
2328,39848,0
2320,39861,0
2320,39841,0
2321,39867,0
2304,39827,0
2296,39851,0
2328,39858,0
2280,39840,0
2282,39829,0
2272,39861,0
2272,39851,0
2260,39832,0
2268,39845,0
2256,39856,0
2260,39844,0
2268,39843,0
2272,39861,0
2272,39832,0
2258,39821,0
2272,39879,0
2258,39841,0
2260,39822,0
2272,39858,0
2266,39837,0
2288,39839,0
2276,39867,0
2292,39841,0
2300,39829,0
2316,39876,0
2320,39848,0
2340,39842,0
2340,39851,0
2352,39845,0
2352,39858,0
2360,39887,0
2360,39849,0
2356,39829,0
2352,39872,0
2340,39858,0
2336,39831,0
2324,39872,0
2320,39853,0
2301,39844,0
2296,39890,0
2282,39856,0
2296,39831,0
2272,39870,0
2268,39864,0
2256,39840,0
2276,39884,0
2260,39852,0
2264,39840,0
2272,39901,0
2272,39860,0
2276,39851,0
2290,39878,0
2308,39854,0
2306,39860,0
2312,39884,0
2316,39855,0
2308,39869,0
2316,39871,0
2320,39864,0
2312,39860,0
2307,39873,0
2292,39860,0
2296,39888,0
2306,39858,0
2284,39856,0
2288,39874,0
2280,39848,0
2284,39865,0
2282,39880,0
2288,39857,0
2284,39852,0
2288,39885,0
2290,39874,0
2280,39862,0
2276,39893,0
2264,39860,0
2264,39868,0
2256,39885,0
2264,39865,0
2242,39873,0
2232,39868,0
2232,39904,0
2240,39873,0
2244,39858,0
2242,39887,0
2252,39865,0
2256,39857,0
2264,39889,0
2284,39859,0
2328,39873,0
2296,39870,0
2304,39881,0
2324,39880,0
2312,39877,0
2324,39862,0
2320,39901,0
2320,39877,0
2322,39872,0
2308,39886,0
2304,39867,0
2296,39884,0
2300,39895,0
2282,39893,0
2272,39871,0
2268,39865,0
2268,39919,0
2264,39882,0
2264,39863,0
2260,39892,0
2260,39876,0
2264,39876,0
2264,39901,0
2264,39869,0
2272,39856,0
2268,39914,0
2272,39885,0
2272,39861,0
2276,39894,0
2280,39874,0
2292,39881,0
2294,39911,0
2296,39871,0
2292,39904,0
2296,39878,0
2304,39893,0
2296,39890,0
2300,39883,0
2312,39899,0
2314,39902,0
2304,39889,0
2304,39881,0
2300,39901,0
2292,39878,0
2288,39887,0
2288,39922,0
2280,39874,0
2276,39865,0
2264,39908,0
2256,39886,0
2248,39872,0
2244,39906,0
2240,39875,0
2228,39880,0
2226,39912,0
2228,39888,0
2240,39885,0
2248,39906,0
2256,39888,0
2276,39896,0
2284,39907,0
2288,39892,0
2296,39889,0
2298,39913,0
2304,39902,0
2314,39882,0
2300,39900,0
2296,39883,0
2288,39901,0
2272,39904,0
2264,39895,0
2248,39881,0
2248,39901,0
2232,39909,0
2224,39893,0
2224,39913,0
2213,39899,0
2216,39899,0
2216,39918,0
2216,39913,0
2224,39891,0
2226,39877,0
2232,39924,0
2242,39891,0
2248,39885,0
2261,39926,0
2274,39891,0
2288,39889,0
2304,39920,0
2324,39894,0
2360,39877,0
2400,39915,0
2444,39892,0
2496,39889,0
2552,39916,0
2588,39883,0
2652,39926,0
2689,39904,0
2752,39912,0
2796,39888,0
2840,39901,0
2888,39932,0
2944,39899,0
2960,39905,0
2996,39925,0
3008,39910,0
3016,39914,0
3008,39924,0
2984,39912,0
2952,39906,0
2896,39915,0
2824,39932,0
2760,39911,0
2688,39906,0
2616,39932,0
2548,39908,0
2488,39912,0
2420,39936,0
2356,39904,0
2280,39891,0
2232,39946,0
2176,39906,0
2132,39896,0
2092,39928,0
2040,39910,0
2024,39909,0
2004,39933,0
1962,39913,0
1968,39900,0
1952,39922,0
1936,39943,0
1936,39930,0
1928,39915,0
1936,39899,0
1924,39952,0
1944,39915,0
1944,39893,0
1952,39928,0
1960,39909,0
1972,39926,0
1980,39936,0
1996,39915,0
2001,39921,0
2004,39939,0
2004,39928,0
2024,39925,0
2016,39936,0
2032,39923,0
2036,39932,0
2048,39905,0
2048,39946,0
2060,39923,0
2072,39901,0
2084,39963,0
2104,39925,0
2128,39904,0
2138,39945,0
2164,39917,0
2174,39929,0
2208,39960,0
2212,39950,0
2218,39915,0
2234,39935,0
2240,39963,0
2240,39937,0
2242,39948,0
2232,39924,0
2228,39941,0
2236,39959,0
2224,39931,0
2220,39929,0
2208,39944,0
2208,39943,0
2226,39935,0
2212,39950,0
2216,39957,0
2216,39925,0
2228,39933,0
2232,39974,0
2232,39931,0
2240,39911,0
2248,39970,0
2252,39942,0
2260,39935,0
2272,39965,0
2276,39934,0
2280,39935,0
2284,39960,0
2288,39931,0
2292,39933,0
2288,39957,0
2296,39960,0
2298,39935,0
2288,39945,0
2292,39934,0
2276,39962,0
2276,39947,0
2274,39948,0
2280,39966,0
2288,39948,0
2284,39954,0
2272,39973,0
2272,39955,0
2280,39929,0
2272,39970,0
2252,39955,0
2248,39937,0
2240,39975,0
2241,39945,0
2228,39927,0
2228,39977,0
2240,39947,0
2240,39940,0
2234,39965,0
2240,39956,0
2240,39958,0
2248,39968,0
2258,39953,0
2272,39942,0
2288,39982,0
2293,39962,0
2296,39953,0
2312,39973,0
2308,39950,0
2304,39967,0
2312,39977,0
2312,39984,0
2308,39975,0
2292,39961,0
2296,39959,0
2280,39978,0
2280,39954,0
2272,39942,0
2272,39991,0
2344,39969,0
2264,39946,0
2272,39977,0
2272,39949,0
2264,39954,0
2266,39990,0
2260,39966,0
2260,39961,0
2264,39978,0
2256,39973,0
2256,39967,0
2248,39989,0
2240,39953,0
2240,39978,0
2248,40004,0
2248,39978,0
2256,39971,0
2260,39982,0
2269,40004,0
2288,39973,0
2294,39983,0
2304,39955,0
2320,39978,0
2312,39989,0
2322,39993,0
2328,39990,0
2324,39994,0
2320,39980,0
2316,39990,0
2308,40003,0
2304,39975,0
2296,39971,0
2292,39989,0
2288,40002,0
2276,39980,0
2268,39965,0
2260,39998,0
2256,39979,0
2256,39962,0
2244,39997,0
2248,39976,0
2244,39958,0
2258,40014,0
2250,39988,0
2272,39977,0
2261,40003,0
2276,39981,0
2292,39997,0
2294,40010,0
2298,39988,0
2304,39999,0
2312,40024,0
2312,40003,0
2304,40015,0
2300,40006,0
2300,39982,0
2308,40017,0
2292,39997,0
2288,39993,0
2288,39975,0
2284,40022,0
2284,40008,0
2284,39974,0
2288,40020,0
2292,39994,0
2292,40003,0
2280,40036,0
2280,39994,0
2280,39991,0
2272,40010,0
2272,40005,0
2266,40008,0
2264,40027,0
2260,39992,0
2244,39995,0
2242,40032,0
2240,39995,0
2240,40004,0
2256,40016,0
2264,40001,0
2272,40014,0
2272,40017,0
2288,40010,0
2296,39993,0
2312,40022,0
2316,40005,0
2320,40020,0
2416,40007,0
2336,39997,0
2336,40003,0
2336,40025,0
2322,39991,0
2320,39996,0
2312,40008,0
2300,40006,0
2288,39980,0
2290,40006,0
2284,39984,0
2272,39974,0
2272,40020,0
2264,39993,0
2280,39975,0
2272,39997,0
2272,39987,0
2272,39990,0
2276,40010,0
2280,39980,0
2280,39981,0
2284,40011,0
2289,39994,0
2290,39969,0
2290,39996,0
2304,39976,0
2296,39991,0
2304,40012,0
2312,39977,0
2305,39972,0
2308,39968,0
2304,39994,0
2296,39975,0
2294,39956,0
2296,39974,0
2296,39972,0
2296,39951,0
2288,39983,0
2292,39958,0
2296,39955,0
2296,39994,0
2292,39954,0
2288,39935,0
2292,39971,0
2280,39956,0
2284,39944,0
2272,39978,0
2266,39946,0
2264,39938,0
2260,39973,0
2260,39951,0
2264,39948,0
2256,39960,0
2264,39932,0
2276,39959,0
2272,39963,0
2304,39941,0
2304,39928,0
2312,39948,0
2324,39937,0
2334,39933,0
2344,39943,0
2340,39918,0
2340,39938,0
2330,39943,0
2333,39930,0
2316,39920,0
2308,39927,0
2296,39932,0
2288,39921,0
2284,39934,0
2288,39920,0
2264,39910,0
2272,39954,0
2268,39909,0
2276,39921,0
2276,39927,0
2272,39907,0
2276,39921,0
2284,39932,0
2276,39899,0
2272,39897,0
2276,39921,0
2264,39912,0
2260,39905,0
2264,39923,0
2256,39903,0
2260,39900,0
2264,39926,0
2264,39895,0
2272,39899,0
2288,39916,0
2284,39909,0
2284,39898,0
2312,39905,0
2305,39895,0
2308,39896,0
2308,39916,0
2312,39890,0
2308,39911,0
2320,39870,0
2296,39881,0
2298,39921,0
2292,39895,0
2288,39863,0
2276,39898,0
2266,39896,0
2256,39876,0
2260,39894,0
2248,39865,0
2240,39864,0
2234,39909,0
2232,39878,0
2276,39877,0
2232,39893,0
2228,39881,0
2240,39875,0
2240,39904,0
2242,39873,0
2242,39874,0
2252,39908,0
2272,39876,0
2264,39872,0
2276,39890,0
2268,39861,0
2272,39869,0
2276,39882,0
2276,39886,0
2260,39857,0
2256,39871,0
2264,39909,0
2264,39867,0
2258,39874,0
2260,39901,0
2256,39889,0
2256,39880,0
2256,39897,0
2264,39872,0
2256,39867,0
2264,39907,0
2266,39870,0
2258,39879,0
2268,39890,0
2252,39860,0
2256,39882,0
2248,39903,0
2240,39870,0
2234,39876,0
2240,39897,0
2240,39906,0
2241,39863,0
2256,39860,0
2256,39891,0
2274,39870,0
2292,39858,0
2300,39898,0
2306,39865,0
2312,39869,0
2312,39885,0
2328,39891,0
2319,39879,0
2312,39863,0
2304,39869,0
2296,39899,0
2290,39861,0
2280,39849,0
2272,39891,0
2256,39860,0
2264,39866,0
2248,39884,0
2248,39858,0
2242,39854,0
2240,39899,0
2240,39862,0
2248,39869,0
2240,39887,0
2244,39857,0
2234,39883,0
2240,39882,0
2240,39869,0
2232,39852,0
2232,39873,0
2232,39892,0
2242,39870,0
2248,39849,0
2240,39878,0
2240,39865,0
2248,39859,0
2244,39884,0
2256,39861,0
2266,39869,0
2264,39866,0
2264,39870,0
2268,39881,0
2264,39843,0
2272,39888,0
2276,39865,0
2276,39845,0
2280,39875,0
2276,39852,0
2282,39856,0
2276,39887,0
2264,39853,0
2268,39852,0
2264,39878,0
2260,39869,0
2248,39863,0
2250,39879,0
2256,39851,0
2240,39854,0
2240,39887,0
2240,39885,0
2240,39852,0
2232,39845,0
2242,39880,0
2248,39861,0
2265,39833,0
2268,39869,0
2290,39840,0
2303,39836,0
2302,39875,0
2298,39855,0
2296,39868,0
2296,39837,0
2300,39846,0
2284,39847,0
2277,39846,0
2272,39874,0
2268,39837,0
2256,39852,0
2256,39873,0
2256,39838,0
2252,39848,0
2252,39844,0
2252,39868,0
2264,39834,0
2256,39821,0
2272,39862,0
2268,39842,0
2258,39825,0
2256,39867,0
2260,39837,0
2240,39822,0
2240,39868,0
2240,39836,0
2228,39838,0
2228,39855,0
2228,39834,0
2232,39831,0
2236,39854,0
2244,39847,0
2256,39835,0
2256,39863,0
2264,39840,0
2272,39863,0
2276,39823,0
2279,39844,0
2276,39844,0
2288,39840,0
2274,39817,0
2341,39857,0
2268,39824,0
2264,39830,0
2256,39864,0
2248,39835,0
2248,39816,0
2236,39855,0
2228,39843,0
2228,39828,0
2224,39861,0
2220,39831,0
2224,39846,0
2232,39862,0
2248,39838,0
2232,39829,0
2244,39846,0
2248,39831,0
2256,39838,0
2260,39860,0
2272,39842,0
2284,39833,0
2280,39865,0
2280,39836,0
2296,39834,0
2292,39856,0
2284,39831,0
2288,39847,0
2280,39854,0
2272,39860,0
2268,39830,0
2260,39841,0
2260,39836,0
2260,39852,0
2256,39835,0
2252,39835,0
2256,39869,0
2256,39838,0
2256,39839,0
2256,39848,0
2244,39839,0
2248,39841,0
2230,39858,0
2228,39844,0
2220,39836,0
2216,39818,0
2216,39872,0
2216,39835,0
2208,39817,0
2208,39857,0
2212,39839,0
2228,39822,0
2240,39862,0
2244,39820,0
2260,39811,0
2280,39878,0
2290,39829,0
2308,39806,0
2304,39843,0
2328,39830,0
2314,39856,0
2320,39868,0
2320,39854,0
2312,39845,0
2304,39838,0
2292,39819,0
2292,39853,0
2274,39836,0
2276,39809,0
2272,39863,0
2256,39838,0
2248,39825,0
2244,39854,0
2242,39820,0
2240,39839,0
2236,39860,0
2236,39830,0
2232,39832,0
2240,39849,0
2240,39842,0
2240,39827,0
2240,39845,0
2234,39844,0
2240,39841,0
2248,39851,0
2256,39861,0
2256,39823,0
2260,39815,0
2268,39864,0
2272,39839,0
2264,39865,0
2276,39845,0
2282,39831,0
2288,39868,0
2282,39828,0
2296,39840,0
2292,39862,0
2296,39841,0
2300,39845,0
2298,39867,0
2288,39839,0
2280,39820,0
2272,39856,0
2268,39867,0
2266,39843,0
2250,39821,0
2248,39858,0
2242,39831,0
2226,39823,0
2224,39862,0
2228,39826,0
2224,39823,0
2224,39866,0
2228,39840,0
2232,39831,0
2240,39849,0
2256,39828,0
2272,39841,0
2284,39854,0
2284,39840,0
2289,39821,0
2300,39864,0
2292,39846,0
2296,39804,0
2292,39830,0
2292,39833,0
2288,39823,0
2280,39863,0
2270,39828,0
2264,39818,0
2256,39847,0
2256,39830,0
2252,39827,0
2252,39855,0
2244,39828,0
2244,39849,0
2240,39864,0
2240,39831,0
2236,39825,0
2240,39853,0
2232,39846,0
2232,39836,0
2232,39848,0
2224,39850,0
2224,39827,0
2216,39833,0
2224,39859,0
2224,39829,0
2224,39809,0
2240,39859,0
2240,39837,0
2252,39818,0
2260,39857,0
2272,39843,0
2276,39844,0
2280,39842,0
2274,39842,0
2280,39829,0
2280,39814,0
2276,39863,0
2276,39845,0
2272,39814,0
2252,39858,0
2248,39838,0
2248,39827,0
2240,39861,0
2228,39822,0
2224,39831,0
2224,39860,0
2220,39841,0
2216,39840,0
2218,39860,0
2224,39834,0
2224,39842,0
2232,39865,0
2240,39834,0
2234,39841,0
2240,39857,0
2256,39851,0
2266,39836,0
2260,39863,0
2274,39838,0
2276,39836,0
2280,39865,0
2284,39861,0
2288,39843,0
2280,39823,0
2272,39860,0
2276,39846,0
2268,39860,0
2260,39839,0
2272,39821,0
2260,39873,0
2260,39850,0
2260,39847,0
2260,39862,0
2250,39843,0
2248,39849,0
2248,39877,0
2240,39842,0
2232,39832,0
2232,39864,0
2224,39855,0
2224,39848,0
2213,39870,0
2220,39851,0
2208,39851,0
2200,39867,0
2202,39864,0
2216,39853,0
2212,39820,0
2228,39880,0
2240,39853,0
2245,39838,0
2264,39867,0
2280,39841,0
2284,39846,0
2298,39847,0
2304,39849,0
2304,39846,0
2312,39847,0
2288,39863,0
2304,39873,0
2282,39855,0
2274,39854,0
2260,39888,0
2256,39864,0
2248,39869,0
2236,39883,0
2240,39855,0
2224,39869,0
2224,39883,0
2225,39855,0
2224,39851,0
2224,39866,0
2226,39888,0
2232,39860,0
2240,39854,0
2240,39871,0
2232,39854,0
2234,39844,0
2232,39882,0
2244,39851,0
2240,39833,0
2248,39885,0
2248,39859,0
2258,39845,0
2256,39880,0
2260,39842,0
2266,39871,0
2280,39863,0
2288,39855,0
2288,39854,0
2280,39859,0
2282,39846,0
2292,39873,0
2280,39856,0
2284,39841,0
2276,39891,0
2284,39856,0
2266,39845,0
2336,39878,0
2260,39851,0
2250,39853,0
2248,39878,0
2242,39854,0
2228,39859,0
2228,39879,0
2216,39864,0
2228,39866,0
2218,39883,0
2224,39846,0
2240,39869,0
2233,39892,0
2248,39861,0
2256,39858,0
2266,39877,0
2272,39878,0
2280,39865,0
2284,39861,0
2292,39879,0
2281,39875,0
2282,39872,0
2288,39867,0
2287,39876,0
2256,39863,0
2264,39860,0
2252,39870,0
2249,39891,0
2244,39863,0
2236,39865,0
2232,39894,0
2232,39874,0
2236,39871,0
2224,39876,0
2224,39870,0
2225,39878,0
2236,39885,0
2234,39894,0
2240,39867,0
2233,39858,0
2228,39901,0
2216,39878,0
2212,39856,0
2208,39898,0
2212,39884,0
2218,39878,0
2220,39891,0
2224,39877,0
2228,39872,0
2236,39914,0
2250,39880,0
2249,39877,0
2280,39883,0
2258,39871,0
2266,39892,0
2264,39877,0
2260,39863,0
2260,39905,0
2256,39878,0
2256,39893,0
2244,39903,0
2232,39871,0
2236,39877,0
2228,39903,0
2216,39910,0
2212,39885,0
2208,39896,0
2200,39904,0
2192,39881,0
2196,39876,0
2200,39907,0
2208,39874,0
2208,39871,0
2201,39924,0
2212,39900,0
2218,39878,0
2224,39910,0
2228,39887,0
2240,39878,0
2240,39914,0
2248,39889,0
2256,39872,0
2264,39924,0
2248,39895,0
2256,39895,0
2250,39900,0
2256,39901,0
2248,39902,0
2244,39927,0
2248,39918,0
2244,39890,0
2248,39901,0
2240,39920,0
2232,39896,0
2236,39909,0
2240,39924,0
2240,39922,0
2228,39909,0
2224,39911,0
2220,39921,0
2212,39901,0
2208,39897,0
2196,39925,0
2184,39901,0
2180,39878,0
2176,39929,0
2164,39912,0
2160,39888,0
2164,39933,0
2168,39890,0
2176,39875,0
2180,39940,0
2192,39898,0
2208,39888,0
2218,39921,0
2230,39909,0
2248,39926,0
2256,39898,0
2272,39915,0
2264,39890,0
2280,39915,0
2272,39912,0
2274,39927,0
2260,39908,0
2256,39902,0
2256,39925,0
2250,39906,0
2256,39913,0
2252,39926,0
2248,39922,0
2248,39927,0
2248,39914,0
2256,39943,0
2240,39904,0
2244,39898,0
2244,39950,0
2240,39907,0
2228,39906,0
2218,39937,0
2228,39931,0
2216,39912,0
2216,39944,0
2216,39917,0
2208,39903,0
2224,39954,0
2232,39914,0
2228,39902,0
2448,39937,0
2232,39931,0
2234,39953,0
2240,39928,0
2240,39933,0
2242,39940,0
2240,39934,0
2240,39929,0
2242,39946,0
2244,39924,0
2236,39932,0
2224,39960,0
2224,39931,0
2224,39930,0
2226,39938,0
2216,39949,0
2208,39937,0
2200,39930,0
2200,39956,0
2186,39931,0
2188,39918,0
2186,39957,0
2188,39930,0
2200,39921,0
2200,39946,0
2200,39949,0
2208,39937,0
2220,39948,0
2240,39927,0
2242,39931,0
2244,39966,0
2256,39931,0
2256,39982,0
2260,39947,0
2256,39943,0
2240,39934,0
2236,39950,0
2228,39935,0
2224,39917,0
2232,39957,0
2220,39935,0
2224,39912,0
2220,39965,0
2228,39934,0
2228,39933,0
2244,39967,0
2236,39952,0
2232,39936,0
2240,39959,0
2240,39952,0
2234,39936,0
2224,39960,0
2216,39937,0
2208,39938,0
2200,39967,0
2196,39940,0
2200,39934,0
2208,39962,0
2202,39955,0
2212,39955,0
2216,39974,0
2240,39948,0
2244,39947,0
2252,39980,0
2260,39972,0
2268,39969,0
2276,39932,0
2268,39957,0
2264,39984,0
2266,39967,0
2258,39940,0
2264,39929,0
2256,39983,0
2244,39957,0
2240,39935,0
2236,39967,0
2216,39952,0
2212,39952,0
2216,39983,0
2208,39947,0
2216,39945,0
2212,39972,0
2208,39963,0
2224,39956,0
2240,39974,0
2224,39951,0
2232,39950,0
2232,39984,0
2244,39949,0
2242,39947,0
2256,39974,0
2280,39966,0
2248,39955,0
2248,39983,0
2248,39960,0
2244,39954,0
2241,39972,0
2240,39965,0
2224,39972,0
2224,39958,0
2224,39965,0
2212,39955,0
2216,39986,0
2208,39947,0
2200,39942,0
2196,39985,0
2196,39959,0
2192,39953,0
2194,39983,0
2192,39963,0
2176,39964,0
2172,39989,0
2168,39963,0
2152,39964,0
2136,39984,0
2132,39982,0
2128,39964,0
2136,39990,0
2150,39966,0
2156,39985,0
2176,39995,0
2202,39971,0
2220,39968,0
2248,39974,0
2276,40005,0
2320,39985,0
2356,39967,0
2400,39999,0
2440,39966,0
2484,39985,0
2528,40001,0
2572,39985,0
2602,39983,0
2640,39971,0
2688,39977,0
2720,40006,0
2744,39979,0
2776,39979,0
2812,40010,0
2800,39988,0
2860,39974,0
2868,39995,0
2880,39989,0
2872,39988,0
2836,39995,0
2800,40008,0
2752,39986,0
2692,39969,0
2648,40020,0
2568,39990,0
2512,39967,0
2432,40014,0
2376,39982,0
2308,39987,0
2244,40006,0
2184,39981,0
2128,39970,0
2077,40013,0
2047,39982,0
2006,39967,0
1984,39992,0
1980,39977,0
1960,39994,0
1952,39994,0
1948,39995,0
1936,40011,0
1932,39988,0
1928,40009,0
1928,40014,0
1924,39997,0
1922,39991,0
1916,40013,0
1912,40027,0
1916,39995,0
1905,40000,0
1892,40007,0
1888,39998,0
1888,39988,0
1890,40021,0
1892,39985,0
1896,39979,0
1904,40023,0
1912,39991,0
1932,39980,0
1940,40012,0
1952,39996,0
1968,39993,0
1984,40017,0
2008,39989,0
2032,39989,0
2037,40025,0
2053,40007,0
2064,40012,0
2072,40001,0
2080,40009,0
2108,40011,0
2088,40033,0
2092,39981,0
2100,40026,0
2112,39996,0
2152,39999,0
2120,40032,0
2132,40014,0
2144,39990,0
2144,40040,0
2148,40017,0
2160,40006,0
2153,40025,0
2152,40000,0
2152,40007,0
2144,40037,0
2146,40004,0
2138,40009,0
2136,40020,0
2129,40020,0
2138,40014,0
2128,40030,0
2128,40011,0
2136,40008,0
2144,40028,0
2156,40035,0
2176,40016,0
2188,40007,0
2189,40044,0
2200,40014,0
2216,40022,0
2180,40001,0
2228,40011,0
2236,40029,0
2232,40018,0
2228,40006,0
2225,40030,0
2216,40004,0
2224,40025,0
2216,40041,0
2208,40026,0
2212,40025,0
2194,40045,0
2192,40040,0
2192,40032,0
2192,40051,0
2202,40014,0
2196,40020,0
2192,40045,0
2208,40027,0
2200,40021,0
2208,40029,0
2212,40054,0
2216,40028,0
2232,40032,0
2228,40039,0
2184,40022,0
2240,40028,0
2236,40060,0
2256,40031,0
2228,40020,0
2224,40046,0
2224,40047,0
2214,40051,0
2208,40044,0
2200,40086,0
2200,40039,0
2210,40040,0
2208,40055,0
2196,40045,0
2196,40038,0
2200,40057,0
2194,40058,0
2184,40042,0
2180,40032,0
2184,40061,0
2184,40038,0
2160,40021,0
2162,40057,0
2164,40029,0
2168,40033,0
2164,40058,0
2160,40031,0
2164,40024,0
2176,40062,0
2180,40039,0
2188,40041,0
2202,40068,0
2216,40032,0
2226,40036,0
2240,40084,0
2256,40041,0
2252,40043,0
2256,40069,0
2260,40044,0
2260,40057,0
2259,40049,0
2236,40044,0
2232,40025,0
2224,40071,0
2208,40046,0
2212,40042,0
2200,40062,0
2196,40044,0
2200,40050,0
2196,40086,0
2194,40041,0
2200,40050,0
2196,40064,0
2200,40074,0
2204,40052,0
2202,40050,0
2208,40074,0
2212,40048,0
2208,40047,0
2210,40075,0
2218,40055,0
2216,40041,0
2208,40072,0
2208,40063,0
2208,40044,0
2224,40067,0
2224,40052,0
2232,40069,0
2240,40080,0
2244,40053,0
2242,40049,0
2252,40047,0
2256,40095,0
2264,40071,0
2256,40083,0
2256,40077,0
2258,40064,0
2248,40072,0
2248,40078,0
2244,40062,0
2228,40039,0
2224,40091,0
2216,40062,0
2202,40044,0
2194,40067,0
2196,40053,0
2184,40079,0
2180,40083,0
2180,40068,0
2180,40061,0
2184,40085,0
2188,40079,0
2192,40059,0
2208,40066,0
2209,40078,0
2224,40077,0
2232,40065,0
2242,40088,0
2256,40065,0
2264,40033,0
2268,40021,0
2256,40091,0
2256,40052,0
2236,40075,0
2228,40054,0
2224,40091,0
2212,40065,0
2212,40040,0
2210,40076,0
2212,40041,0
2216,40050,0
2300,40070,0
2224,40055,0
2228,40039,0
2232,40075,0
2224,40054,0
2224,40048,0
2220,40071,0
2208,40035,0
2212,40056,0
2197,40067,0
2200,40037,0
2192,40044,0
2196,40054,0
2196,40073,0
2200,40035,0
2210,40032,0
2208,40057,0
2216,40041,0
2229,40028,0
2236,40055,0
2246,40034,0
2248,40021,0
2256,40043,0
2260,40036,0
2263,40036,0
2256,40036,0
2268,40028,0
2264,40054,0
2256,40031,0
2244,40022,0
2244,40025,0
2240,40030,0
2228,40032,0
2228,40033,0
2224,40027,0
2216,40004,0
2216,40007,0
2212,40055,0
2208,40004,0
2208,39996,0
2208,40025,0
2208,40016,0
2216,39992,0
2216,40034,0
2216,39998,0
2220,39973,0
2224,40032,0
2232,39993,0
2240,39986,0
2234,40013,0
2248,39986,0
2252,39993,0
2252,40014,0
2252,39983,0
2256,39999,0
2248,40004,0
2256,39997,0
2256,39987,0
2264,40008,0
2244,39974,0
2248,39975,0
2252,40010,0
2256,39974,0
2256,39963,0
2260,39995,0
2260,39989,0
2260,39973,0
2250,39991,0
2248,39964,0
2240,39964,0
2224,39997,0
2212,39964,0
2208,39976,0
2200,39988,0
2192,39971,0
2182,39973,0
2192,39970,0
2188,39980,0
2194,39956,0
2193,39949,0
2216,39991,0
2220,39964,0
2225,39933,0
2236,39977,0
2245,39961,0
2242,39964,0
2244,39955,0
2240,39960,0
2248,39948,0
2224,39955,0
2218,39939,0
2216,39966,0
2208,39941,0
2200,39940,0
2200,39983,0
2196,39946,0
2192,39942,0
2196,39966,0
2248,39956,0
2200,39956,0
2192,39974,0
2192,39947,0
2188,39948,0
2184,39979,0
2184,39956,0
2184,39944,0
2178,39941,0
2176,39966,0
2162,39949,0
2160,39930,0
2160,39972,0
2164,39938,0
2168,39926,0
2170,39973,0
2178,39937,0
2192,39927,0
2200,39960,0
2208,39950,0
2224,39942,0
2236,39938,0
2234,39957,0
2240,39965,0
2244,39959,0
2243,39942,0
2292,39945,0
2244,39959,0
2240,39955,0
2240,39942,0
2220,39951,0
2216,39940,0
2208,39914,0
2196,39974,0
2192,39939,0
2180,39928,0
2176,39958,0
2176,39925,0
2170,39943,0
2176,39963,0
2170,39924,0
2176,39931,0
2184,39962,0
2180,39958,0
2186,39939,0
2208,39954,0
2208,39944,0
2216,39950,0
2220,39938,0
2216,39958,0
2228,39939,0
2228,39945,0
2224,39941,0
2224,39929,0
2224,39927,0
2216,39938,0
2208,39962,0
2200,39957,0
2208,39932,0
2200,39911,0
2208,39947,0
2196,39933,0
2204,39920,0
2210,39954,0
2200,39919,0
2200,39909,0
2200,39963,0
2200,39932,0
2196,39924,0
2196,39951,0
2188,39924,0
2184,39936,0
2180,39958,0
2176,39919,0
2176,39923,0
2176,39950,0
2160,39946,0
2168,39922,0
2192,39922,0
2181,39938,0
2192,39934,0
2216,39915,0
2226,39944,0
2232,39936,0
2242,39936,0
2258,39924,0
2261,39912,0
2352,39922,0
2256,39915,0
2256,39941,0
2252,39930,0
2240,39922,0
2232,39922,0
2224,39944,0
2216,39910,0
2208,39904,0
2200,39940,0
2192,39916,0
2192,39888,0
2184,39948,0
2192,39920,0
2178,39914,0
2176,39929,0
2180,39911,0
2180,39916,0
2188,39934,0
2184,39919,0
2186,39904,0
2192,39934,0
2208,39925,0
2216,39917,0
2224,39919,0
2216,39910,0
2224,39914,0
2222,39922,0
2232,39904,0
2224,39935,0
2228,39922,0
2232,39908,0
2232,39915,0
2232,39923,0
2233,39897,0
2236,39883,0
2232,39950,0
2240,39909,0
2232,39891,0
2224,39913,0
2232,39902,0
2216,39900,0
2204,39933,0
2196,39891,0
2196,39901,0
2184,39935,0
2168,39902,0
2164,39901,0
2164,39918,0
2144,39900,0
2144,39920,0
2140,39925,0
2146,39914,0
2160,39893,0
2160,39901,0
2176,39943,0
2186,39906,0
2217,39889,0
2220,39917,0
2226,39888,0
2228,39915,0
2244,39903,0
2236,39897,0
2240,39893,0
2232,39929,0
2232,39902,0
2224,39917,0
2224,39929,0
2216,39896,0
2212,39913,0
2216,39935,0
2208,39903,0
2200,39906,0
2208,39928,0
2200,39922,0
2202,39902,0
2200,39922,0
2208,39910,0
2208,39904,0
2204,39907,0
2212,39929,0
2200,39903,0
2192,39892,0
2192,39937,0
2200,39901,0
2196,39883,0
2192,39923,0
2208,39890,0
2200,39904,0
2208,39930,0
2214,39892,0
2232,39902,0
2240,39914,0
2244,39914,0
2248,39910,0
2252,39912,0
2256,39910,0
2252,39909,0
2248,39914,0
2248,39928,0
2240,39902,0
2228,39882,0
2226,39936,0
2216,39917,0
2212,39884,0
2208,39923,0
2196,39899,0
2196,39904,0
2192,39934,0
2188,39900,0
2188,39894,0
2184,39929,0
2185,39918,0
2188,39908,0
2192,39934,0
2196,39901,0
2200,39911,0
2208,39927,0
2210,39911,0
2220,39904,0
2224,39916,0
2228,39935,0
2226,39912,0
2240,39902,0
2232,39897,0
2224,39918,0
2234,39931,0
2216,39904,0
2226,39886,0
2224,39926,0
2220,39903,0
2218,39897,0
2212,39934,0
2208,39910,0
2216,39891,0
2216,39940,0
2216,39911,0
2216,39892,0
2218,39924,0
2216,39914,0
2212,39904,0
2216,39936,0
2200,39904,0
2200,39898,0
2188,39919,0
2184,39910,0
2176,39899,0
2168,39933,0
2164,39894,0
2176,39917,0
2176,39936,0
2192,39899,0
2204,39910,0
2216,39912,0
2226,39931,0
2248,39897,0
2240,39929,0
2244,39927,0
2258,39918,0
2264,39902,0
2280,39931,0
2281,39931,0
2288,39904,0
2288,39941,0
2304,39900,0
2304,39892,0
2320,39948,0
2320,39918,0
2312,39905,0
2309,39931,0
2308,39912,0
2304,39913,0
2304,39938,0
2304,39906,0
2296,39899,0
2280,39941,0
2280,39918,0
2288,39908,0
2292,39934,0
2296,39912,0
2304,39927,0
2296,39929,0
2304,39924,0
2304,39914,0
2304,39933,0
2316,39940,0
2316,39922,0
1712,39911,0
2304,39922,0
2288,39922,0
2282,39922,0
2282,39942,0
2248,39927,0
2240,39927,0
2232,39927,0
2228,39927,0
2210,39927,0
2208,39927,0
2202,39904,0
2196,39921,0
2200,39921,0
2208,39921,0
2196,39921,0
2200,39921,0
2196,39921,0
2196,39921,0
2192,39934,0
2186,39934,0
2184,39934,0
2192,39934,0
2181,39934,0
2178,39934,0
2176,39934,0
2176,39932,0
2176,39932,0
2188,39932,0
2188,39932,0
2196,39932,0
2204,39932,0
2212,39932,0
2224,39924,0
2244,39927,0
2240,39917,0
2248,39929,0
2256,39964,0
2256,39914,0
2248,39902,0
2248,39938,0
2252,39925,0
2308,39917,0
2232,39945,0
2224,39919,0
2216,39908,0
2210,39960,0
2208,39925,0
2194,39912,0
2184,39935,0
2180,39928,0
2180,39927,0
2176,39943,0
2168,39906,0
2176,39913,0
2176,39955,0
2192,39912,0
2200,39922,0
2208,39943,0
2217,39918,0
2232,39930,0
2240,39932,0
2236,39931,0
2240,39924,0
2280,39927,0
2228,39937,0
2228,39939,0
2208,39923,0
2208,39919,0
2208,39957,0
2208,39945,0
2212,39922,0
2208,39929,0
2208,39938,0
2208,39935,0
2216,39945,0
2208,39938,0
2200,39925,0
2200,39924,0
2196,39961,0
2192,39927,0
2192,39907,0
2192,39952,0
2188,39924,0
2200,39905,0
2200,39936,0
2196,39911,0
2216,39901,0
2216,39948,0
2232,39928,0
2242,39915,0
2252,39939,0
2268,39920,0
2272,39957,0
2280,39930,0
2280,39938,0
2276,39932,0
2272,39912,0
2264,39918,0
2256,39946,0
2244,39917,0
2232,39902,0
2220,39961,0
2208,39920,0
2200,39929,0
2192,39940,0
2176,39926,0
2180,39934,0
2180,39937,0
2180,39944,0
2188,39917,0
2180,39914,0
2194,39968,0
2204,39919,0
2200,39908,0
2192,39940,0
2201,39930,0
2202,39910,0
2208,39946,0
2208,39935,0
2213,39906,0
2212,39962,0
2224,39929,0
2228,39923,0
2236,39938,0
2280,39918,0
2240,39958,0
2256,39902,0
2244,39927,0
2256,39927,0
2252,39930,0
2262,39951,0
2256,39942,0
2252,39928,0
2248,39916,0
2252,39948,0
2236,39930,0
2232,39911,0
2232,39956,0
2228,39912,0
2224,39919,0
2204,39951,0
2196,39925,0
2192,39914,0
2184,39949,0
2184,39929,0
2184,39919,0
2180,39950,0
2186,39925,0
2188,39936,0
2198,39958,0
2208,39929,0
2220,39929,0
2224,39943,0
2236,39940,0
2240,39945,0
2242,39942,0
2248,39924,0
2240,39923,0
2234,39970,0
2232,39951,0
2224,39939,0
2218,39908,0
2216,39949,0
2212,39936,0
2210,39919,0
2216,39951,0
2202,39930,0
2208,39931,0
2208,39958,0
2216,39927,0
2208,39930,0
2200,39948,0
2208,39937,0
2208,39946,0
2204,39956,0
2194,39930,0
2188,39935,0
2180,39967,0
2180,39944,0
2192,39937,0
2180,39950,0
2188,39950,0
2192,39948,0
2208,39952,0
2217,39958,0
2228,39933,0
2240,39929,0
2248,39964,0
2256,39924,0
2268,39934,0
2272,39960,0
2280,39977,0
2282,39958,0
2280,39935,0
2280,39943,0
2272,39957,0
2272,39944,0
2257,39952,0
2248,39964,0
2228,39926,0
2220,39936,0
2212,39970,0
2200,39940,0
2196,39943,0
2184,39956,0
2196,39959,0
2192,39941,0
2192,39956,0
2201,39951,0
2194,39932,0
2216,39946,0
2216,39966,0
2228,39933,0
2232,39912,0
2244,39967,0
2260,39946,0
2262,39925,0
2264,39966,0
2257,39932,0
2256,39964,0
2256,39947,0
2256,39949,0
2256,39951,0
2242,39960,0
2240,39950,0
2240,39969,0
2224,39939,0
2228,39930,0
2224,39962,0
2224,39957,0
2220,39947,0
2228,39966,0
2224,39951,0
2212,39945,0
2208,39970,0
2200,39967,0
2204,39945,0
2184,39925,0
2184,39975,0
2176,39949,0
2176,39918,0
2161,39954,0
2168,39939,0
2180,39951,0
2176,39976,0
2180,39943,0
2192,39940,0
2204,39965,0
2216,39952,0
2228,39945,0
2236,39970,0
2248,39942,0
2256,39958,0
2272,39938,0
2272,39967,0
2272,39957,0
2264,39940,0
2264,39981,0
2256,39951,0
2256,39950,0
2234,39965,0
2240,39942,0
2224,39961,0
2224,39977,0
2224,39950,0
2216,39945,0
2208,39970,0
2208,39961,0
2200,39950,0
2208,39980,0
2208,39957,0
2208,39965,0
2208,39979,0
2208,39978,0
2209,39950,0
2212,39949,0
2208,39989,0
2208,39968,0
2208,39943,0
2216,39980,0
2224,39948,0
2226,39949,0
2220,39978,0
2224,39971,0
2240,39975,0
2240,39962,0
2248,39960,0
2244,39960,0
2256,39976,0
2260,39944,0
2268,39959,0
2256,39993,0
2260,39960,0
2248,39962,0
2256,39976,0
2248,39964,0
2248,39958,0
2240,39984,0
2224,39967,0
2216,39958,0
2216,39980,0
2212,39987,0
2200,39957,0
2192,39949,0
2200,39984,0
2192,39970,0
2200,39952,0
2196,39982,0
2200,39949,0
2216,39967,0
2224,39978,0
2240,39956,0
2242,39962,0
2256,39988,0
2250,39969,0
2256,39966,0
2248,39951,0
2244,39981,0
2240,39969,0
2216,39960,0
2208,39986,0
2208,39964,0
2188,39939,0
2188,39996,0
2170,39968,0
2172,39942,0
2172,39988,0
2168,39939,0
2160,39965,0
2184,39986,0
2176,39959,0
2180,39958,0
2180,39977,0
2184,39980,0
2194,39970,0
2208,39983,0
2210,39951,0
2224,39961,0
2244,39997,0
2264,39986,0
2292,39966,0
2328,39964,0
2361,39996,0
2408,39976,0
2456,39956,0
2514,39993,0
2564,39960,0
2612,39978,0
2656,39985,0
2712,39961,0
2760,39969,0
2808,39980,0
2856,39973,0
2892,39951,0
2920,40000,0
2944,39958,0
2940,39948,0
2946,40001,0
2920,39962,0
2904,39980,0
2840,39990,0
2784,39980,0
2732,39981,0
2672,40001,0
2584,39981,0
2516,39969,0
2456,40010,0
2392,39986,0
2336,39973,0
2280,39979,0
2216,39995,0
2154,39983,0
2112,39970,0
2072,40005,0
2040,39972,0
2010,39970,0
1992,40007,0
1976,39975,0
1945,39965,0
1938,39987,0
1922,39996,0
1912,39969,0
1914,39977,0
1898,39979,0
1906,40000,0
1892,39999,0
1898,39982,0
1910,39992,0
1908,39998,0
1912,39976,0
1920,39970,0
1928,40004,0
1948,39978,0
1944,39961,0
1944,40010,0
1952,39980,0
1968,39975,0
1968,40011,0
1968,39989,0
1968,40000,0
1980,40014,0
1984,39988,0
1992,39987,0
2000,40027,0
2016,40000,0
2028,39993,0
2048,40011,0
2068,40003,0
2096,39991,0
2120,40000,0
2132,40017,0
2144,39992,0
2152,39989,0
2156,40024,0
2184,40015,0
2168,40013,0
2160,39990,0
2162,39991,0
2176,40029,0
2160,40001,0
2160,39997,0
2172,40013,0
2162,40021,0
2172,40007,0
2168,39986,0
2176,40015,0
2180,39991,0
2184,39994,0
2192,40018,0
2192,39986,0
2200,39979,0
2196,40023,0
2192,40003,0
2200,39993,0
2212,40025,0
2208,39994,0
2208,39992,0
2208,40028,0
2216,39996,0
2228,39994,0
2232,40009,0
2241,40024,0
2256,40005,0
2256,40005,0
2260,40002,0
2264,39976,0
2264,40027,0
2264,40029,0
2264,40008,0
2264,40001,0
2256,40012,0
2248,40035,0
2256,40006,0
2236,40013,0
2232,40026,0
2220,39999,0
2216,40001,0
2212,40021,0
2204,40007,0
2194,39976,0
2194,40039,0
2192,40005,0
2188,39996,0
2185,40015,0
2192,40000,0
2200,40005,0
2210,40028,0
2220,40012,0
2232,40000,0
2240,40026,0
2260,40021,0
2272,40006,0
2278,40023,0
2284,40003,0
2300,40033,0
2292,40043,0
2288,40037,0
2280,39996,0
2272,40022,0
2272,40025,0
2276,40018,0
2252,40041,0
2256,40019,0
2248,40015,0
2244,40039,0
2248,40031,0
2240,40012,0
2240,40003,0
2244,40044,0
2248,40023,0
2250,40010,0
2244,40035,0
2240,40014,0
2236,40017,0
2228,40050,0
2224,40022,0
2218,40020,0
2213,40032,0
2208,40026,0
2204,40026,0
2208,40045,0
2216,40026,0
2224,40023,0
2244,40049,0
2252,40044,0
2264,40014,0
2274,40033,0
2288,40030,0
2292,40048,0
2313,40038,0
2304,40033,0
2305,40046,0
2316,40039,0
2304,40035,0
2296,40051,0
2284,40031,0
2284,40020,0
2266,40054,0
2256,40042,0
2252,40032,0
2242,40015,0
2236,40051,0
2236,40037,0
2232,40012,0
2232,40050,0
2240,40020,0
2248,40017,0
2240,40058,0
2248,40036,0
2252,40034,0
2248,40041,0
2264,40037,0
2264,40039,0
2272,40055,0
2272,40037,0
2280,40032,0
2280,40053,0
2276,40042,0
2274,40024,0
2276,40032,0
2274,40041,0
2280,40070,0
2264,40064,0
2272,40033,0
2260,40064,0
2260,40052,0
2256,40050,0
2248,40061,0
2260,40038,0
2252,40042,0
2258,40086,0
2260,40038,0
2252,40050,0
2248,40059,0
2240,40052,0
2240,40054,0
2232,40059,0
2300,40071,0
2228,40038,0
2232,40036,0
2228,40080,0
2232,40042,0
2240,40026,0
2248,40061,0
2248,40049,0
2264,40036,0
2272,40062,0
2282,40042,0
2288,40040,0
2296,40068,0
2364,40056,0
2304,40056,0
2308,40034,0
2314,40039,0
2292,40056,0
2296,40035,0
2288,40025,0
2280,40060,0
2268,40040,0
2264,40025,0
2256,40057,0
2248,40030,0
2256,40022,0
2244,40062,0
2256,40032,0
2256,40023,0
2252,40044,0
2248,40017,0
2264,40033,0
2264,40047,0
2266,40019,0
2264,40031,0
2260,40050,0
2260,40036,0
2260,40021,0
2264,40019,0
2272,40023,0
2280,40027,0
2272,40007,0
2288,40027,0
2296,40006,0
2288,39989,0
2300,40018,0
2320,40001,0
2308,40017,0
2323,40007,0
2320,39988,0
2320,40026,0
2324,39994,0
2316,39972,0
2316,40012,0
2308,40000,0
2308,39982,0
2300,40007,0
2288,39983,0
2280,39969,0
2272,40018,0
2260,39980,0
2260,39977,0
2248,39990,0
2252,39969,0
2232,39986,0
2240,39993,0
2252,39992,0
2248,39968,0
2248,39978,0
2256,40006,0
2274,39967,0
2276,39964,0
2288,39982,0
2300,39981,0
2312,39954,0
2320,39993,0
2320,39961,0
2320,39965,0
2320,39965,0
2320,39974,0
2320,39958,0
2312,39961,0
2312,39950,0
2304,39940,0
2292,39965,0
2292,39956,0
2280,39928,0
2288,39964,0
2288,39936,0
2280,39935,0
2280,39964,0
2284,39924,0
2276,39947,0
2276,39956,0
2276,39939,0
2266,39926,0
2264,39941,0
2264,39955,0
2260,39936,0
2252,39930,0
2244,39943,0
2240,39930,0
2240,39919,0
2240,39949,0
2248,39924,0
2256,39906,0
2264,39936,0
2272,39929,0
2276,39916,0
2280,39926,0
2292,39919,0
2304,39905,0
2300,39924,0
2352,39915,0
2304,39918,0
2304,39933,0
2272,39936,0
2292,39912,0
2280,39937,0
2284,39904,0
2264,39919,0
2248,39942,0
2228,39912,0
2224,39912,0
2216,39914,0
2212,39918,0
2210,39909,0
2210,39920,0
2216,39923,0
2208,39905,0
2220,39899,0
2212,39932,0
2216,39897,0
2216,39877,0
2233,39917,0
2224,39912,0
2232,39891,0
2240,39927,0
2248,39887,0
2244,39905,0
2236,39920,0
2256,39904,0
2244,39903,0
2256,39904,0
2251,39899,0
2248,39924,0
2252,39895,0
2248,39877,0
2260,39913,0
2248,39909,0
2264,39886,0
2268,39924,0
2260,39888,0
2260,39900,0
2266,39930,0
2258,39904,0
2252,39899,0
2250,39914,0
2248,39902,0
2232,39898,0
2228,39895,0
2220,39912,0
2224,39890,0
2212,39892,0
2212,39924,0
2226,39889,0
2232,39878,0
2232,39913,0
2240,39892,0
2256,39887,0
2268,39918,0
2274,39879,0
2280,39900,0
2292,39906,0
2296,39894,0
2304,39888,0
2296,39898,0
2288,39883,0
2288,39916,0
2280,39885,0
2272,39879,0
2268,39906,0
2264,39893,0
2272,39889,0
2256,39907,0
2256,39876,0
2260,39891,0
2248,39915,0
2252,39890,0
2256,39875,0
2248,39886,0
2242,39915,0
2256,39891,0
2248,39861,0
2240,39902,0
2244,39880,0
2250,39867,0
2248,39902,0
2252,39879,0
2240,39864,0
2248,39901,0
2248,39887,0
2256,39873,0
2256,39900,0
2276,39853,0
2280,39881,0
2280,39872,0
2288,39869,0
2290,39870,0
2288,39886,0
2292,39876,0
2300,39859,0
2288,39890,0
2284,39858,0
2288,39861,0
2264,39912,0
2264,39859,0
2256,39866,0
2248,39891,0
2240,39866,0
2232,39883,0
2224,39892,0
2216,39863,0
2212,39855,0
2208,39876,0
2208,39890,0
2208,39856,0
2216,39847,0
2218,39877,0
2234,39854,0
2240,39846,0
2248,39873,0
2264,39851,0
2274,39852,0
2276,39885,0
2280,39857,0
2284,39853,0
2280,39850,0
2272,39881,0
2272,39873,0
2264,39874,0
2266,39848,0
2260,39820,0
2252,39885,0
2248,39857,0
2248,39837,0
2256,39875,0
2248,39848,0
2248,39861,0
2248,39886,0
2256,39843,0
2256,39847,0
2256,39871,0
2256,39865,0
2248,39853,0
2244,39855,0
2240,39861,0
2228,39852,0
2224,39841,0
2212,39868,0
2204,39849,0
2201,39817,0
2208,39873,0
2208,39850,0
2220,39833,0
2236,39870,0
2248,39848,0
2260,39857,0
2272,39850,0
2288,39865,0
2280,39841,0
2292,39871,0
2296,39878,0
2296,39852,0
2285,39869,0
2284,39849,0
2288,39860,0
2284,39854,0
2272,39868,0
2272,39845,0
2256,39826,0
2248,39888,0
2248,39852,0
2252,39833,0
2248,39870,0
2240,39840,0
2192,39840,0
2244,39863,0
2248,39834,0
2240,39829,0
2248,39875,0
2250,39854,0
2248,39853,0
2256,39865,0
2260,39840,0
2272,39857,0
2276,39860,0
2276,39858,0
2273,39838,0
2266,39833,0
2276,39860,0
2272,39859,0
2268,39837,0
2268,39849,0
2264,39847,0
2268,39864,0
2264,39850,0
2268,39840,0
2264,39847,0
2256,39850,0
2256,39833,0
2260,39857,0
2244,39832,0
2240,39803,0
2232,39878,0
2228,39842,0
2224,39823,0
2216,39850,0
2212,39831,0
2208,39834,0
2216,39856,0
2216,39824,0
2210,39813,0
2212,39853,0
2220,39839,0
2228,39840,0
2244,39851,0
2258,39821,0
2276,39839,0
2290,39854,0
2290,39835,0
2304,39826,0
2304,39833,0
2304,39839,0
2304,39866,0
2303,39839,0
2288,39823,0
2276,39853,0
2272,39841,0
2256,39806,0
2248,39858,0
2248,39824,0
2256,39816,0
2240,39861,0
2240,39825,0
2244,39826,0
2244,39837,0
2248,39828,0
2248,39842,0
2260,39843,0
2252,39822,0
2252,39823,0
2252,39857,0
2248,39832,0
2256,39829,0
2240,39842,0
2244,39835,0
2242,39831,0
2244,39816,0
2256,39846,0
2265,39818,0
2268,39804,0
2280,39855,0
2276,39817,0
2288,39826,0
2290,39830,0
2312,39822,0
2308,39853,0
2308,39843,0
2304,39799,0
2304,39851,0
2296,39827,0
2288,39813,0
2336,39846,0
2290,39819,0
2268,39826,0
2256,39850,0
2248,39828,0
2232,39815,0
2224,39844,0
2218,39828,0
2210,39827,0
2218,39828,0
2217,39846,0
2224,39807,0
2224,39810,0
2224,39848,0
2240,39813,0
2240,39805,0
2256,39842,0
2257,39827,0
2272,39807,0
2280,39841,0
2285,39800,0
2290,39815,0
2288,39850,0
2288,39830,0
2288,39826,0
2280,39812,0
2272,39835,0
2264,39879,0
2260,39831,0
2258,39811,0
2256,39810,0
2250,39852,0
2256,39814,0
2244,39816,0
2252,39851,0
2256,39828,0
2260,39813,0
2256,39845,0
2256,39813,0
2260,39791,0
2244,39859,0
2240,39822,0
2232,39803,0
2240,39836,0
2224,39814,0
2224,39808,0
2212,39841,0
2208,39814,0
2220,39803,0
2232,39843,0
2234,39827,0
2248,39811,0
2258,39842,0
2284,39817,0
2284,39819,0
2296,39835,0
2304,39841,0
2304,39814,0
2311,39826,0
2300,39846,0
2304,39820,0
2292,39798,0
2280,39842,0
2268,39803,0
2256,39808,0
2252,39839,0
2240,39804,0
2240,39787,0
2224,39839,0
2224,39825,0
2216,39818,0
2212,39838,0
2210,39809,0
2212,39828,0
2216,39848,0
2216,39826,0
2224,39824,0
2224,39826,0
2224,39844,0
2232,39827,0
2240,39819,0
2244,39844,0
2256,39815,0
2252,39809,0
2250,39842,0
2264,39809,0
2260,39816,0
2304,39834,0
2268,39849,0
2272,39819,0
2280,39833,0
2276,39811,0
2276,39843,0
2280,39851,0
2276,39820,0
2272,39807,0
2280,39855,0
2268,39836,0
2272,39813,0
2257,39838,0
2248,39821,0
2240,39806,0
2236,39873,0
2234,39828,0
2220,39832,0
2212,39844,0
2200,39827,0
2208,39851,0
2196,39852,0
2200,39821,0
2216,39822,0
2212,39851,0
2218,39848,0
2232,39832,0
2242,39833,0
2264,39841,0
2276,39839,0
2292,39814,0
2292,39833,0
2296,39823,0
2292,39843,0
2288,39845,0
2290,39825,0
2272,39851,0
2272,39836,0
2268,39822,0
2248,39863,0
2248,39823,0
2256,39816,0
2240,39848,0
2240,39834,0
2248,39829,0
2248,39845,0
2256,39814,0
2256,39827,0
2258,39854,0
2256,39831,0
2264,39831,0
2258,39860,0
2256,39841,0
2248,39845,0
2248,39842,0
2245,39849,0
2240,39827,0
2240,39822,0
2240,39862,0
2248,39830,0
2252,39815,0
2256,39858,0
2261,39844,0
2264,39833,0
2272,39853,0
2280,39840,0
2296,39842,0
2288,39857,0
2300,39848,0
2296,39825,0
2288,39858,0
2289,39840,0
2280,39834,0
2284,39865,0
2280,39843,0
2272,39809,0
2258,39873,0
2248,39844,0
2256,39819,0
2248,39866,0
2236,39835,0
2240,39843,0
2240,39871,0
2244,39841,0
2248,39834,0
2248,39867,0
2256,39854,0
2260,39843,0
2272,39864,0
2272,39845,0
2273,39841,0
2284,39871,0
2284,39848,0
2288,39844,0
2280,39862,0
2272,39846,0
2264,39847,0
2260,39855,0
2256,39863,0
2248,39839,0
2244,39869,0
2240,39842,0
2236,39841,0
2234,39863,0
2240,39851,0
2240,39849,0
2228,39871,0
2240,39847,0
2240,39840,0
2244,39885,0
2236,39858,0
2240,39855,0
2240,39870,0
2224,39844,0
2240,39867,0
2240,39880,0
2228,39861,0
2226,39857,0
2228,39844,0
2236,39907,0
2232,39863,0
2240,39830,0
2248,39875,0
2256,39857,0
2256,39846,0
2268,39882,0
2284,39852,0
2288,39840,0
2292,39871,0
2308,39888,0
2304,39863,0
2304,39848,0
2304,39858,0
2296,39859,0
2288,39888,0
2288,39855,0
2264,39838,0
2256,39878,0
2256,39873,0
2250,39849,0
2240,39882,0
2240,39855,0
2236,39876,0
2240,39905,0
2232,39861,0
2240,39876,0
2228,39884,0
2240,39891,0
2240,39871,0
2244,39859,0
2240,39898,0
2256,39867,0
2248,39859,0
2252,39896,0
2248,39865,0
2256,39858,0
2256,39897,0
2264,39877,0
2256,39865,0
2256,39891,0
2260,39866,0
2264,39883,0
2264,39886,0
2256,39865,0
2272,39899,0
2258,39862,0
2260,39885,0
2264,39903,0
2272,39883,0
2272,39866,0
2264,39864,0
2260,39910,0
2260,39870,0
2308,39861,0
2260,39891,0
2258,39870,0
2264,39868,0
2264,39903,0
2240,39867,0
2256,39861,0
2240,39904,0
2250,39881,0
2248,39875,0
2252,39909,0
2266,39873,0
2264,39904,0
2274,39902,0
2288,39905,0
2292,39873,0
2306,39873,0
2304,39920,0
2312,39905,0
2308,39874,0
2304,39884,0
2296,39914,0
2288,39865,0
2276,39880,0
2272,39907,0
2264,39878,0
2248,39911,0
2244,39910,0
2240,39891,0
2224,39881,0
2224,39898,0
2216,39917,0
2228,39892,0
2232,39871,0
2224,39915,0
2240,39892,0
2232,39885,0
2228,39923,0
2232,39897,0
2228,39873,0
2224,39926,0
2216,39903,0
2216,39898,0
2216,39912,0
2216,39892,0
2228,39898,0
2224,39923,0
2240,39903,0
2248,39901,0
2252,39911,0
2268,39894,0
2276,39913,0
2280,39899,0
2288,39912,0
2288,39931,0
2290,39916,0
2292,39908,0
2284,39914,0
2288,39925,0
2272,39922,0
2264,39908,0
2344,39930,0
2232,39900,0
2240,39894,0
2216,39945,0
2224,39920,0
2212,39911,0
2212,39939,0
2204,39910,0
2208,39924,0
2216,39946,0
2212,39918,0
2217,39917,0
2220,39936,0
2224,39950,0
2232,39921,0
2240,39919,0
2248,39943,0
2252,39924,0
2256,39909,0
2276,39945,0
2272,39925,0
2272,39933,0
2280,39965,0
2272,39945,0
2272,39932,0
2264,39913,0
2264,39936,0
2256,39952,0
2260,39928,0
2258,39924,0
2256,39955,0
2256,39924,0
2250,39938,0
2252,39939,0
2256,39949,0
2256,39911,0
2252,39924,0
2248,39956,0
2240,39929,0
2240,39916,0
2232,39958,0
2224,39946,0
2224,39924,0
2216,39953,0
2208,39934,0
2216,39934,0
2220,39964,0
2216,39936,0
2234,39931,0
2236,39954,0
2248,39934,0
2264,39946,0
2276,39958,0
2288,39933,0
2296,39947,0
2296,39964,0
2302,39956,0
2292,39956,0
2290,39938,0
2280,39947,0
2272,39972,0
2272,39942,0
2260,39944,0
2256,39964,0
2244,39955,0
2232,39952,0
2236,39968,0
2216,39953,0
2212,39948,0
2208,39966,0
2202,39975,0
2200,39951,0
2200,39933,0
2196,39972,0
2192,39957,0
2192,39932,0
2184,39977,0
2184,39947,0
2188,39944,0
2188,39985,0
2212,39955,0
2224,39944,0
2232,39967,0
2248,39963,0
2280,39978,0
2306,39962,0
2336,39974,0
2369,39944,0
2404,39967,0
2448,39994,0
2480,39959,0
2540,39955,0
2580,39985,0
2628,39978,0
2664,39958,0
2704,39973,0
2740,39961,0
2784,39974,0
2812,40001,0
2856,39972,0
2880,39959,0
2904,39974,0
2920,39992,0
2936,39973,0
2928,39955,0
2900,39998,0
2880,39963,0
2832,39961,0
2784,40000,0
2736,39969,0
2672,39956,0
2624,39983,0
2564,39983,0
2498,39960,0
2448,39996,0
2380,39965,0
2308,39986,0
2244,39999,0
2188,39988,0
2130,39976,0
2080,39979,0
2024,39981,0
1984,39987,0
1968,40004,0
1930,39985,0
1920,39986,0
1896,40004,0
1900,39993,0
1880,39979,0
1872,39976,0
1872,40005,0
1874,39994,0
1880,39958,0
1884,40003,0
1890,39968,0
1888,39965,0
1896,40008,0
1904,39986,0
1898,39965,0
1906,40000,0
1913,39990,0
1936,39990,0
1932,40008,0
1944,39989,0
1968,39984,0
1984,40018,0
2002,39988,0
2008,39993,0
2036,39986,0
2056,40009,0
2076,40020,0
2101,39991,0
2104,40005,0
2112,39979,0
2128,40019,0
2132,40003,0
2146,39993,0
2140,40020,0
2148,39980,0
2140,39999,0
2140,40023,0
2144,39998,0
2148,39990,0
2144,40013,0
2148,40021,0
2152,39991,0
2148,40008,0
2160,40017,0
2164,40010,0
2160,40003,0
2176,40030,0
2192,40007,0
2192,39983,0
2210,40039,0
2224,40008,0
2228,40002,0
2234,40030,0
2240,40007,0
2240,40021,0
2244,40029,0
2252,40006,0
2240,40029,0
2244,40015,0
2240,40023,0
2240,40005,0
2200,40040,0
2228,40005,0
2236,40019,0
2236,40050,0
2234,40015,0
2248,40011,0
2240,40024,0
2248,40022,0
2236,40021,0
2240,40037,0
2232,40017,0
2232,40025,0
2224,40061,0
2218,40023,0
2264,40031,0
2210,40035,0
2200,40050,0
2200,40030,0
2200,40010,0
2208,40060,0
2208,40024,0
2212,40033,0
2224,40063,0
2228,40032,0
2256,40026,0
2260,40055,0
2268,40047,0
2280,40048,0
2296,40010,0
2284,40033,0
2292,40039,0
2284,40057,0
2282,40043,0
2282,40055,0
2268,40037,0
2272,40044,0
2248,40063,0
2248,40061,0
2232,40046,0
2232,40038,0
2228,40079,0
2226,40050,0
2232,40034,0
2232,40065,0
2232,40044,0
2224,40040,0
2228,40071,0
2232,40050,0
2232,40035,0
2232,40070,0
2228,40056,0
2240,40051,0
2232,40086,0
2232,40045,0
2232,40065,0
2244,40090,0
2232,40067,0
2248,40057,0
2266,40070,0
2260,40062,0
2272,40052,0
2272,40081,0
2295,40055,0
2288,40062,0
2288,40085,0
2286,40062,0
2288,40067,0
2296,40086,0
2284,40065,0
2290,40059,0
2288,40095,0
2280,40064,0
2272,40051,0
2268,40100,0
2260,40075,0
2248,40065,0
2244,40079,0
2232,40057,0
2240,40084,0
2228,40099,0
2234,40072,0
2224,40063,0
2240,40091,0
2232,40092,0
2256,40071,0
2256,40065,0
2260,40092,0
2280,40078,0
2296,40066,0
2294,40096,0
2296,40064,0
2296,40078,0
2296,40077,0
2296,40089,0
2304,40080,0
2288,40095,0
2280,40083,0
2264,40094,0
2252,40086,0
2244,40099,0
2236,40080,0
2282,40068,0
2236,40113,0
2234,40074,0
2236,40070,0
2236,40088,0
2244,40085,0
2240,40088,0
2244,40117,0
2240,40075,0
2236,40077,0
2256,40119,0
2240,40086,0
2244,40090,0
2240,40104,0
2244,40097,0
2248,40094,0
2244,40078,0
2248,40108,0
2258,40083,0
2262,40079,0
2266,40114,0
2282,40091,0
2300,40077,0
2296,40063,0
2292,40103,0
2314,40109,0
2312,40086,0
2312,40079,0
2308,40096,0
2308,40097,0
2304,40090,0
2296,40120,0
2288,40089,0
2276,40091,0
2264,40092,0
2252,40115,0
2248,40082,0
2236,40060,0
2228,40107,0
2224,40085,0
2216,40068,0
2216,40101,0
2224,40068,0
2212,40089,0
2224,40103,0
2224,40069,0
2232,40075,0
2240,40095,0
2244,40098,0
2256,40072,0
2268,40089,0
2272,40086,0
2274,40064,0
2280,40075,0
2280,40079,0
2280,40087,0
2280,40060,0
2289,40077,0
2272,40062,0
2280,40098,0
2275,40058,0
2280,40050,0
2282,40086,0
2284,40055,0
2284,40051,0
2292,40075,0
2288,40058,0
2284,40058,0
2280,40080,0
2280,40055,0
2268,40049,0
2260,40067,0
2248,40074,0
2244,40047,0
2224,40032,0
2218,40062,0
2213,40052,0
2220,40027,0
2212,40062,0
2216,40023,0
2228,40013,0
2242,40059,0
2252,40023,0
2272,40027,0
2284,40028,0
2312,39965,0
2316,40046,0
2320,40016,0
2320,40019,0
2320,40017,0
2312,40015,0
2312,40005,0
2304,40030,0
2296,40001,0
2288,39981,0
2292,40038,0
2276,40002,0
2272,39993,0
2272,40014,0
2266,39989,0
2272,40007,0
2272,40016,0
2272,39990,0
2276,39999,0
2288,39994,0
2280,40019,0
2280,39982,0
2276,39977,0
2272,40001,0
2281,39987,0
2272,39956,0
2280,39998,0
2272,39957,0
2276,39963,0
2280,40010,0
2284,39975,0
2280,39964,0
2290,39943,0
2300,39964,0
2292,39997,0
2294,39993,0
2296,39964,0
2300,39951,0
2296,39945,0
2302,39984,0
2300,39950,0
2298,39946,0
2301,39971,0
2296,39962,0
2288,39949,0
2292,39974,0
2276,39942,0
2264,39953,0
2252,39979,0
2242,39962,0
2232,39945,0
2220,39927,0
2212,39971,0
2208,39943,0
2204,39926,0
2200,39965,0
2208,39938,0
2216,39941,0
2220,39971,0
2228,39937,0
2240,39932,0
2244,39957,0
2248,39955,0
2256,39937,0
2256,39943,0
2264,39944,0
2252,39945,0
2261,39945,0
2248,39959,0
2248,39931,0
2240,39950,0
2236,39929,0
2241,39925,0
2236,39945,0
2236,39920,0
2244,39924,0
2240,39967,0
2248,39929,0
2244,39932,0
2250,39934,0
2248,39928,0
2248,39938,0
2252,39916,0
2244,39949,0
2240,39928,0
2230,39901,0
2218,39957,0
2220,39924,0
2216,39914,0
2212,39931,0
2208,39933,0
2216,39930,0
2216,39937,0
2230,39917,0
2236,39911,0
2248,39948,0
2260,39902,0
2276,39922,0
2280,39919,0
2300,39931,0
2292,39933,0
2300,39944,0
2316,39922,0
2306,39898,0
2290,39914,0
2288,39949,0
2280,39912,0
2272,39894,0
2260,39928,0
2248,39916,0
2240,39910,0
2236,39923,0
2228,39909,0
2216,39908,0
2208,39938,0
2212,39901,0
2216,39906,0
2216,39911,0
2224,39920,0
2228,39923,0
2234,39896,0
2248,39930,0
2248,39898,0
2252,39892,0
2250,39929,0
2261,39902,0
2264,39900,0
2260,39921,0
2256,39916,0
2256,39899,0
2248,39899,0
2246,39897,0
2240,39934,0
2232,39900,0
2232,39896,0
2228,39924,0
2236,39889,0
2232,39902,0
2224,39921,0
2228,39906,0
2224,39891,0
2228,39890,0
2232,39937,0
2232,39895,0
2232,39871,0
2228,39918,0
2224,39893,0
2216,39909,0
2216,39917,0
2208,39889,0
2208,39889,0
2208,39916,0
2208,39900,0
2210,39897,0
2216,39913,0
2224,39896,0
2240,39896,0
2244,39880,0
2264,39915,0
2259,39889,0
2272,39890,0
2274,39921,0
2284,39902,0
2292,39889,0
2496,39882,0
2280,39896,0
2264,39899,0
2260,39884,0
2252,39864,0
2244,39902,0
2240,39882,0
2232,39864,0
2226,39894,0
2232,39881,0
2228,39861,0
2232,39896,0
2234,39867,0
2224,39863,0
2228,39899,0
2236,39866,0
2240,39883,0
2232,39901,0
2240,39863,0
2232,39867,0
2240,39893,0
2240,39891,0
2250,39866,0
2248,39879,0
2248,39884,0
2244,39868,0
2264,39858,0
2260,39891,0
2256,39865,0
2272,39863,0
2272,39849,0
2280,39872,0
2280,39872,0
2284,39856,0
2288,39841,0
2288,39893,0
2284,39862,0
2288,39860,0
2282,39872,0
2280,39866,0
2264,39864,0
2260,39875,0
2244,39857,0
2240,39855,0
2240,39893,0
2216,39867,0
2208,39870,0
2212,39879,0
2208,39862,0
2200,39878,0
2202,39875,0
2208,39873,0
2212,39853,0
2224,39839,0
2240,39891,0
2240,39866,0
2252,39857,0
2266,39875,0
2264,39863,0
2264,39862,0
2272,39864,0
2266,39860,0
2264,39854,0
2272,39861,0
2260,39863,0
2256,39855,0
2256,39846,0
2244,39885,0
2244,39865,0
2240,39857,0
2242,39879,0
2240,39854,0
2296,39851,0
2240,39883,0
2240,39856,0
2242,39861,0
2248,39877,0
2244,39857,0
2248,39865,0
2244,39884,0
2240,39862,0
2232,39862,0
2232,39895,0
2226,39862,0
2224,39860,0
2234,39876,0
2240,39864,0
2240,39865,0
2240,39856,0
2260,39880,0
2276,39851,0
2272,39852,0
2288,39870,0
2292,39859,0
2300,39881,0
2327,39847,0
2312,39856,0
2316,39889,0
2312,39850,0
2308,39855,0
2300,39863,0
2288,39862,0
2292,39862,0
2276,39875,0
2256,39855,0
2240,39858,0
2240,39885,0
2224,39881,0
2220,39861,0
2218,39838,0
2212,39879,0
2212,39873,0
2220,39839,0
2224,39884,0
2240,39855,0
2240,39871,0
2244,39887,0
2242,39856,0
2250,39865,0
2266,39867,0
2264,39874,0
2265,39869,0
2274,39886,0
2258,39853,0
2264,39844,0
2260,39880,0
2264,39871,0
2258,39854,0
2252,39845,0
2256,39869,0
2264,39884,0
2260,39855,0
2256,39862,0
2272,39867,0
2268,39878,0
2264,39862,0
2272,39840,0
2280,39879,0
2272,39856,0
2268,39846,0
2256,39881,0
2252,39850,0
2244,39834,0
2242,39874,0
2232,39861,0
2224,39844,0
2220,39870,0
2224,39844,0
2217,39861,0
2220,39874,0
2228,39846,0
2244,39850,0
2244,39859,0
2252,39873,0
2260,39856,0
2272,39847,0
2282,39847,0
2272,39845,0
2368,39861,0
2272,39857,0
2264,39835,0
2248,39836,0
2248,39872,0
2240,39852,0
2240,39833,0
2240,39869,0
2234,39846,0
2232,39848,0
2248,39853,0
2232,39862,0
2244,39844,0
2234,39830,0
2240,39876,0
2242,39846,0
2248,39829,0
2256,39863,0
2248,39851,0
2249,39852,0
2248,39861,0
2256,39841,0
2248,39841,0
2256,39872,0
2260,39847,0
2244,39844,0
2264,39865,0
2252,39852,0
2258,39854,0
2272,39847,0
2274,39872,0
2280,39863,0
2276,39842,0
2272,39864,0
2272,39848,0
2276,39871,0
2266,39847,0
2264,39847,0
2264,39880,0
2252,39851,0
2244,39849,0
2240,39843,0
2240,39874,0
2224,39862,0
2224,39834,0
2216,39877,0
2212,39847,0
2204,39838,0
2204,39875,0
2208,39839,0
2208,39842,0
2208,39880,0
2208,39856,0
2216,39859,0
2228,39864,0
2240,39845,0
2256,39860,0
2264,39882,0
2272,39860,0
2280,39854,0
2282,39847,0
2282,39858,0
2280,39871,0
2272,39876,0
2272,39851,0
2264,39867,0
2256,39886,0
2250,39858,0
2240,39853,0
2244,39864,0
2232,39863,0
2234,39861,0
2232,39869,0
2228,39875,0
2226,39853,0
2236,39839,0
2226,39889,0
2224,39851,0
2224,39846,0
2228,39878,0
2218,39863,0
2216,39862,0
2216,39879,0
2224,39858,0
2212,39857,0
2208,39897,0
2212,39866,0
2212,39870,0
2220,39879,0
2224,39860,0
2234,39875,0
2244,39893,0
2256,39869,0
2264,39861,0
2272,39877,0
2276,39877,0
2280,39864,0
2288,39853,0
2280,39870,0
2284,39877,0
2280,39891,0
2272,39862,0
2264,39846,0
2264,39881,0
2248,39874,0
2244,39852,0
2232,39890,0
2224,39861,0
2212,39863,0
2208,39896,0
2208,39860,0
2208,39871,0
2200,39887,0
2208,39875,0
2208,39877,0
2218,39883,0
2218,39865,0
2228,39862,0
2225,39902,0
2224,39882,0
2224,39869,0
2224,39887,0
2244,39892,0
2244,39874,0
2250,39862,0
2256,39864,0
2264,39875,0
2264,39880,0
2266,39892,0
2264,39866,0
2280,39887,0
2272,39861,0
2280,39881,0
2276,39900,0
2276,39871,0
2272,39876,0
2268,39891,0
2264,39902,0
2264,39876,0
2256,39895,0
2260,39893,0
2256,39881,0
2240,39889,0
2232,39909,0
2228,39874,0
2216,39845,0
2208,39903,0
2210,39877,0
2208,39850,0
2200,39901,0
2216,39867,0
2216,39875,0
2232,39891,0
2240,39874,0
2244,39871,0
2256,39906,0
2260,39890,0
2272,39874,0
2273,39878,0
2280,39897,0
2276,39886,0
2280,39886,0
2264,39877,0
2260,39862,0
2252,39899,0
2234,39888,0
2240,39885,0
2224,39899,0
2232,39866,0
2228,39876,0
2232,39917,0
2232,39905,0
2240,39885,0
2240,39870,0
2244,39907,0
2244,39904,0
2240,39876,0
2248,39912,0
2240,39880,0
2232,39891,0
2240,39924,0
2224,39887,0
2240,39896,0
2228,39914,0
2226,39902,0
2240,39902,0
2242,39922,0
2248,39916,0
2250,39899,0
2260,39909,0
2272,39905,0
2268,39911,0
2276,39880,0
2280,39900,0
2288,39937,0
2288,39895,0
2288,39888,0
2288,39910,0
2276,39911,0
2280,39894,0
2244,39922,0
2272,39900,0
2264,39898,0
2248,39928,0
2234,39900,0
2240,39889,0
2218,39915,0
2212,39890,0
2200,39916,0
2216,39926,0
2194,39906,0
2200,39897,0
2216,39929,0
2212,39912,0
2220,39909,0
2224,39897,0
2240,39923,0
2241,39908,0
2252,39889,0
2256,39939,0
2256,39893,0
2256,39915,0
2256,39924,0
2252,39909,0
2289,39918,0
2240,39903,0
2228,39892,0
2232,39943,0
2232,39902,0
2240,39895,0
2248,39924,0
2240,39916,0
2250,39911,0
2256,39937,0
2256,39895,0
2258,39891,0
2248,39939,0
2244,39913,0
2248,39909,0
2240,39928,0
2228,39912,0
2228,39915,0
2228,39934,0
2212,39898,0
2208,39898,0
2200,39947,0
2208,39914,0
2208,39918,0
2208,39936,0
2220,39913,0
2224,39920,0
2244,39933,0
2248,39929,0
2264,39918,0
2272,39916,0
2280,39943,0
2288,39911,0
2288,39907,0
2277,39909,0
2276,39945,0
2264,39922,0
2324,39917,0
2248,39943,0
2240,39912,0
2226,39928,0
2224,39945,0
2212,39928,0
2224,39915,0
2220,39925,0
2228,39950,0
2224,39921,0
2224,39906,0
2226,39933,0
2232,39920,0
2232,39915,0
2234,39951,0
2240,39914,0
2248,39907,0
2252,39946,0
2240,39919,0
2252,39901,0
2248,39934,0
2250,39906,0
2244,39923,0
2244,39945,0
2236,39929,0
2240,39924,0
2234,39922,0
2232,39944,0
2233,39922,0
2244,39910,0
2240,39949,0
2250,39925,0
2252,39932,0
2248,39952,0
2252,39923,0
2260,39915,0
2256,39965,0
2248,39928,0
2248,39921,0
2242,39948,0
2240,39917,0
2232,39931,0
2224,39945,0
2224,39939,0
2212,39926,0
2212,39914,0
2212,39953,0
2208,39927,0
2216,39907,0
2224,39946,0
2240,39933,0
2250,39934,0
2264,39950,0
2266,39911,0
2274,39928,0
2280,39945,0
2288,39932,0
2281,39950,0
2280,39927,0
2264,39943,0
2272,39943,0
2258,39958,0
2256,39934,0
2248,39931,0
2242,39952,0
2240,39953,0
2240,39927,0
2224,39958,0
2224,39947,0
2228,39948,0
2228,39943,0
2232,39952,0
2232,39942,0
2232,39915,0
2232,39960,0
2232,39942,0
2228,39929,0
2224,39949,0
2224,39934,0
2228,39956,0
2228,39964,0
2218,39929,0
2220,39942,0
2220,39962,0
2224,39947,0
2244,39949,0
2240,39968,0
2240,39927,0
2256,39959,0
2256,39964,0
2262,39949,0
2258,39935,0
2256,39962,0
2256,39948,0
2248,39944,0
2248,39961,0
2240,39930,0
2232,39947,0
2217,39978,0
2208,39947,0
2196,39948,0
2184,39959,0
2178,39967,0
2176,39959,0
2160,39936,0
2160,39967,0
2168,39938,0
2170,39936,0
2178,39974,0
2196,39943,0
2217,39945,0
2240,39970,0
2264,39948,0
2280,39946,0
2304,39980,0
2330,39944,0
2360,39951,0
2404,39988,0
2424,39947,0
2464,39954,0
2496,39943,0
2536,39986,0
2576,39949,0
2624,39957,0
2664,39958,0
2688,39948,0
2728,39989,0
2772,39977,0
2808,39956,0
2832,39944,0
2856,39988,0
2880,39962,0
2900,39935,0
2896,39975,0
2880,39948,0
2852,39961,0
2812,39989,0
2756,39956,0
2696,39962,0
2636,39972,0
2568,39965,0
2504,39969,0
2452,39987,0
2376,39973,0
2304,39961,0
2260,39973,0
2202,39991,0
2152,39965,0
2121,39947,0
2088,39987,0
2064,39963,0
2045,39973,0
2032,39948,0
2024,39973,0
2020,39975,0
2012,39986,0
2004,39953,0
2008,39941,0
1986,39982,0
1984,39976,0
2000,39966,0
1976,39976,0
1976,39959,0
1968,39968,0
1972,39996,0
1968,39958,0
1962,39958,0
1970,39975,0
1972,39979,0
1984,39974,0
1988,39969,0
2000,39993,0
2002,39949,0
2018,39968,0
2018,39991,0
2016,39962,0
2028,39940,0
2056,39985,0
2040,39968,0
2064,39958,0
2076,39997,0
2086,39955,0
2098,39957,0
2120,39997,0
2128,39972,0
2132,39951,0
2139,39974,0
2144,39986,0
2148,39980,0
2164,39979,0
2170,39968,0
2176,39961,0
2184,40002,0
2188,39986,0
2200,39970,0
2192,39958,0
2192,39993,0
2188,39973,0
2192,39954,0
2192,39992,0
2180,39963,0
2192,39955,0
2164,40007,0
2176,39961,0
2180,39970,0
2176,39994,0
2176,39978,0
2192,39976,0
2196,39995,0
2201,39976,0
2212,39964,0
2220,39995,0
2236,39992,0
2240,39972,0
2248,39961,0
2240,39975,0
2240,39992,0
2236,39970,0
2244,39974,0
2232,39983,0
2228,40005,0
2224,39983,0
2212,39968,0
2212,39982,0
2212,39992,0
2208,39992,0
2200,39958,0
2201,40001,0
2200,39973,0
2200,39961,0
2208,40007,0
2212,39968,0
2216,39969,0
2212,39982,0
2220,39957,0
2208,39983,0
2208,40000,0
2200,39972,0
2202,39968,0
2200,40009,0
2204,39981,0
2212,39972,0
2217,39994,0
2218,39987,0
2224,39983,0
2232,39982,0
2242,40007,0
2242,39970,0
2252,39981,0
2256,39997,0
2268,39992,0
2264,39996,0
2264,39969,0
2272,39956,0
2276,40011,0
2264,39965,0
2252,39960,0
2248,39999,0
2233,39985,0
2228,39989,0
2228,40007,0
2210,39978,0
2212,39977,0
2216,40012,0
2200,39990,0
2196,39983,0
2201,40002,0
2200,39993,0
2200,39996,0
2228,39993,0
2216,40006,0
2228,39978,0
2240,39965,0
2248,40018,0
2272,39982,0
2276,39960,0
2277,39997,0
2284,40008,0
2282,39984,0
2284,39986,0
2276,39992,0
2272,39980,0
2267,40035,0
2256,39990,0
2244,39964,0
2248,40015,0
2233,39976,0
2232,39991,0
2228,40016,0
2232,39990,0
2232,39991,0
2232,40018,0
2232,39993,0
2228,40000,0
2224,40002,0
2218,40004,0
2216,40007,0
2216,39978,0
2212,40014,0
2212,39981,0
2224,39978,0
2208,40031,0
2216,39995,0
2232,39984,0
2224,40006,0
2240,39998,0
2252,40002,0
2248,40017,0
2272,39995,0
2277,39982,0
2304,39989,0
2300,40020,0
2298,39978,0
2304,39999,0
2296,39999,0
2288,40041,0
2288,39998,0
2288,39982,0
2272,40017,0
2276,39996,0
2260,40007,0
2250,40024,0
2248,39996,0
2244,39986,0
2240,40027,0
2240,40000,0
2240,39997,0
2240,40016,0
2248,39999,0
2240,40003,0
2248,40022,0
2244,40016,0
2248,39992,0
2248,40000,0
2248,40031,0
2257,39995,0
2252,39989,0
2268,40010,0
2272,39994,0
2272,40003,0
2280,40026,0
2280,39988,0
2280,39961,0
2280,40016,0
2288,39999,0
2296,40007,0
2356,40004,0
2288,39978,0
2304,39987,0
2298,40021,0
2296,39986,0
2304,39974,0
2306,40016,0
2300,39995,0
2296,39990,0
2280,40012,0
2280,39981,0
2276,39982,0
2272,40018,0
2256,39976,0
2256,39983,0
2248,39991,0
2248,40000,0
2248,39985,0
2248,39976,0
2248,40008,0
2256,39966,0
2260,39982,0
2274,39991,0
2280,39963,0
2292,39960,0
2304,39995,0
2308,39974,0
2312,39970,0
2312,39961,0
2312,39977,0
2312,39991,0
2304,39966,0
2292,39974,0
2284,39956,0
2280,39964,0
2272,39965,0
2276,39961,0
2268,39971,0
2264,39936,0
2264,39951,0
2256,39982,0
2256,39949,0
2264,39937,0
2266,39943,0
2260,39967,0
2260,39945,0
2266,39918,0
2256,39949,0
2256,39923,0
2264,39939,0
2264,39943,0
2256,39917,0
2252,39927,0
2250,39946,0
2256,39934,0
2260,39925,0
2276,39928,0
2280,39924,0
2288,39920,0
2288,39935,0
2296,39906,0
2300,39943,0
2312,39904,0
2314,39931,0
2312,39921,0
2304,39930,0
2306,39909,0
2296,39889,0
2298,39930,0
2292,39909,0
2280,39891,0
2274,39911,0
2256,39886,0
2248,39911,0
2234,39918,0
2232,39897,0
2232,39884,0
2224,39910,0
2228,39888,0
2224,39886,0
2228,39909,0
2232,39885,0
2240,39895,0
2260,39910,0
2256,39902,0
2272,39890,0
2276,39862,0
2288,39906,0
2290,39877,0
2304,39855,0
2298,39895,0
2292,39869,0
2288,39877,0
2280,39890,0
2268,39870,0
2260,39848,0
2248,39879,0
2240,39882,0
2248,39844,0
2232,39894,0
2224,39864,0
2228,39874,0
2212,39895,0
2218,39854,0
2212,39861,0
2208,39879,0
2216,39873,0
2208,39873,0
2204,39876,0
2202,39879,0
2192,39869,0
2193,39860,0
2192,39891,0
2176,39862,0
2176,39842,0
2184,39894,0
2185,39867,0
2184,39849,0
2196,39883,0
2212,39857,0
2216,39862,0
2236,39886,0
2244,39847,0
2256,39865,0
2265,39856,0
2280,39884,0
2280,39873,0
2283,39860,0
2280,39842,0
2276,39874,0
2272,39858,0
2274,39850,0
2256,39873,0
2248,39850,0
2236,39856,0
2232,39879,0
2232,39851,0
2224,39852,0
2216,39878,0
2216,39861,0
2216,39857,0
2220,39880,0
2220,39858,0
2224,39857,0
2224,39881,0
2232,39868,0
2226,39851,0
2240,39853,0
2240,39868,0
2240,39857,0
2248,39840,0
2240,39876,0
2240,39847,0
2244,39850,0
2250,39879,0
2245,39857,0
2248,39843,0
2256,39855,0
2266,39880,0
2256,39855,0
2264,39863,0
2264,39853,0
2277,39881,0
2272,39866,0
2276,39853,0
2272,39863,0
2280,39873,0
2280,39864,0
2272,39847,0
2268,39876,0
2256,39854,0
2248,39833,0
2240,39883,0
2232,39849,0
2300,39843,0
2212,39867,0
2208,39851,0
2200,39855,0
2208,39878,0
2208,39844,0
2208,39850,0
2220,39875,0
2218,39853,0
2232,39847,0
2250,39857,0
2260,39869,0
2266,39850,0
2268,39835,0
2276,39871,0
2268,39833,0
2272,39845,0
2266,39881,0
2264,39878,0
2260,39863,0
2264,39846,0
2252,39842,0
2244,39879,0
2240,39844,0
2244,39832,0
2241,39860,0
2296,39846,0
2250,39847,0
2248,39875,0
2248,39834,0
2252,39840,0
2256,39864,0
2256,39844,0
2240,39840,0
2244,39844,0
2240,39856,0
2234,39846,0
2224,39820,0
2226,39853,0
2224,39828,0
2224,39827,0
2232,39873,0
2224,39838,0
2232,39825,0
2240,39849,0
2252,39839,0
2268,39853,0
2264,39846,0
2273,39836,0
2282,39841,0
2280,39848,0
2288,39826,0
2296,39849,0
2292,39823,0
2280,39817,0
2276,39857,0
2272,39831,0
2256,39826,0
2248,39847,0
2248,39828,0
2244,39846,0
2226,39860,0
2224,39823,0
2224,39823,0
2226,39869,0
2224,39832,0
2224,39834,0
2224,39840,0
2220,39837,0
2240,39831,0
2264,39817,0
2244,39848,0
2252,39825,0
2268,39821,0
2256,39865,0
2276,39830,0
2276,39815,0
2272,39837,0
2276,39851,0
2274,39850,0
2276,39821,0
2264,39842,0
2260,39838,0
2256,39838,0
2264,39817,0
2240,39846,0
2248,39820,0
2324,39825,0
2256,39864,0
2256,39843,0
2248,39841,0
2248,39851,0
2236,39840,0
2244,39846,0
2232,39857,0
2225,39828,0
2229,39828,0
2224,39863,0
2216,39861,0
2208,39833,0
2208,39825,0
2208,39856,0
2208,39847,0
2208,39820,0
2212,39853,0
2216,39828,0
2228,39827,0
2248,39856,0
2266,39832,0
2280,39829,0
2290,39840,0
2292,39844,0
2244,39839,0
2274,39836,0
2276,39828,0
2272,39849,0
2272,39848,0
2252,39838,0
2232,39861,0
2236,39834,0
2234,39833,0
2224,39865,0
2224,39848,0
2224,39835,0
2212,39838,0
2216,39862,0
2212,39848,0
2208,39823,0
2226,39861,0
2224,39829,0
2212,39834,0
2220,39869,0
2220,39837,0
2208,39821,0
2212,39851,0
2220,39851,0
2224,39845,0
2228,39861,0
2232,39833,0
2240,39844,0
2248,39863,0
2250,39829,0
2272,39846,0
2272,39842,0
2272,39844,0
2272,39835,0
2297,39859,0
2281,39841,0
2280,39834,0
2288,39878,0
2280,39843,0
2288,39841,0
2284,39852,0
2268,39860,0
2264,39850,0
2252,39837,0
2244,39853,0
2236,39831,0
2226,39824,0
2224,39880,0
2216,39835,0
2208,39825,0
2200,39860,0
2204,39839,0
2208,39852,0
2212,39857,0
2224,39834,0
2224,39827,0
2232,39862,0
2240,39846,0
2258,39837,0
2256,39844,0
2268,39852,0
2304,39841,0
2280,39826,0
2276,39849,0
2272,39824,0
2268,39859,0
2260,39841,0
2256,39845,0
2248,39857,0
2240,39825,0
2248,39831,0
2242,39864,0
2232,39840,0
2248,39819,0
2241,39858,0
2240,39840,0
2248,39835,0
2240,39863,0
2244,39835,0
2244,39826,0
2240,39860,0
2240,39828,0
2224,39824,0
2226,39852,0
2220,39834,0
2216,39840,0
2216,39856,0
2216,39823,0
2224,39837,0
2224,39868,0
2228,39837,0
2232,39842,0
2252,39845,0
2258,39853,0
2256,39850,0
2264,39848,0
2268,39852,0
2272,39821,0
2282,39861,0
2272,39842,0
2272,39826,0
2272,39858,0
2264,39825,0
2264,39833,0
2264,39870,0
2248,39833,0
2240,39805,0
2232,39846,0
2232,39845,0
2228,39836,0
2224,39856,0
2220,39832,0
2224,39843,0
2224,39868,0
2216,39841,0
2220,39838,0
2230,39847,0
2232,39860,0
2250,39842,0
2240,39835,0
2250,39851,0
2252,39839,0
2244,39828,0
2256,39863,0
2252,39836,0
2250,39845,0
2248,39845,0
2248,39851,0
2252,39873,0
2244,39852,0
2248,39834,0
2244,39840,0
2244,39873,0
2240,39844,0
2252,39840,0
2240,39862,0
2236,39853,0
2228,39847,0
2240,39869,0
2232,39857,0
2220,39836,0
2216,39864,0
2216,39872,0
2216,39848,0
2212,39818,0
2216,39855,0
2197,39854,0
2200,39829,0
2200,39868,0
2200,39842,0
2216,39839,0
2220,39881,0
2224,39836,0
2248,39844,0
2256,39858,0
2272,39859,0
2272,39851,0
2280,39847,0
2296,39841,0
2292,39858,0
2288,39867,0
2280,39846,0
2272,39850,0
2272,39834,0
2256,39870,0
2248,39855,0
2240,39839,0
2232,39870,0
2228,39845,0
2224,39867,0
2224,39886,0
2224,39848,0
2228,39853,0
2232,39872,0
2224,39868,0
2224,39856,0
2228,39866,0
2228,39860,0
2224,39850,0
2228,39842,0
2224,39875,0
2218,39851,0
2218,39838,0
2228,39886,0
2232,39866,0
2240,39838,0
2250,39873,0
2252,39853,0
2264,39865,0
2268,39879,0
2272,39859,0
2280,39885,0
2292,39868,0
2288,39880,0
2296,39862,0
2308,39880,0
2300,39851,0
2296,39845,0
2300,39891,0
2296,39858,0
2288,39829,0
2296,39867,0
2272,39860,0
2260,39842,0
2256,39879,0
2232,39846,0
2228,39834,0
2210,39881,0
2200,39851,0
2202,39859,0
2200,39875,0
2192,39851,0
2202,39869,0
2200,39877,0
2218,39859,0
2224,39854,0
2228,39858,0
2240,39883,0
2252,39848,0
2264,39842,0
2264,39877,0
2288,39883,0
2288,39854,0
2288,39853,0
2290,39828,0
2288,39865,0
2284,39851,0
2272,39851,0
2264,39881,0
2258,39845,0
2266,39856,0
2264,39896,0
2256,39861,0
2257,39859,0
2256,39881,0
2256,39877,0
2250,39868,0
2248,39859,0
2240,39881,0
2236,39855,0
2228,39853,0
2224,39886,0
2212,39866,0
2208,39844,0
2200,39881,0
2194,39863,0
2200,39868,0
2216,39889,0
2216,39851,0
2224,39869,0
2240,39897,0
2252,39876,0
2256,39862,0
2272,39859,0
2280,39870,0
2308,39857,0
2312,39881,0
2306,39860,0
2308,39882,0
2312,39872,0
2304,39864,0
2344,39894,0
2288,39857,0
2280,39871,0
2272,39901,0
2272,39879,0
2244,39867,0
2242,39871,0
2244,39897,0
2234,39891,0
2224,39860,0
2104,39887,0
2224,39868,0
2224,39862,0
2228,39888,0
2232,39863,0
2232,39865,0
2240,39888,0
2240,39878,0
2244,39866,0
2248,39895,0
2252,39859,0
2264,39871,0
2264,39908,0
2265,39915,0
2264,39871,0
2258,39894,0
2256,39887,0
2256,39870,0
2256,39895,0
2264,39889,0
2260,39862,0
2264,39879,0
2250,39901,0
2256,39873,0
2268,39859,0
2256,39888,0
2256,39889,0
2256,39857,0
2256,39895,0
2244,39853,0
2242,39880,0
2242,39915,0
2248,39872,0
2242,39876,0
2234,39888,0
2240,39895,0
2244,39882,0
2248,39888,0
2260,39893,0
2272,39868,0
2274,39892,0
2276,39906,0
2304,39878,0
2308,39854,0
2306,39908,0
2312,39915,0
2312,39903,0
2312,39877,0
2316,39899,0
2308,39898,0
2312,39907,0
2308,39881,0
2289,39868,0
2284,39895,0
2272,39886,0
2256,39886,0
2256,39903,0
2244,39885,0
2244,39880,0
2240,39912,0
2234,39905,0
2232,39889,0
2240,39878,0
2244,39913,0
2240,39896,0
2260,39876,0
2252,39905,0
2240,39879,0
2250,39877,0
2232,39918,0
2240,39886,0
2240,39871,0
2240,39900,0
2252,39879,0
2249,39888,0
2252,39913,0
2265,39879,0
2272,39896,0
2272,39903,0
2280,39903,0
2292,39890,0
2284,39900,0
2288,39882,0
2300,39914,0
2288,39886,0
2281,39880,0
2284,39911,0
2280,39897,0
2272,39892,0
2268,39919,0
2258,39882,0
2256,39899,0
2244,39926,0
2232,39899,0
2228,39896,0
2224,39922,0
2224,39897,0
2220,39915,0
2220,39918,0
2228,39911,0
2224,39893,0
2232,39923,0
2240,39932,0
2250,39904,0
2260,39888,0
2272,39925,0
2280,39911,0
2288,39890,0
2284,39917,0
2276,39885,0
2280,39917,0
2276,39931,0
2280,39927,0
2268,39903,0
2252,39907,0
2256,39936,0
2240,39913,0
2232,39905,0
2236,39918,0
2232,39927,0
2240,39916,0
2228,39899,0
2225,39939,0
2224,39905,0
2228,39900,0
2236,39946,0
2224,39917,0
2224,39913,0
2216,39933,0
2220,39912,0
2216,39927,0
2210,39939,0
2210,39925,0
2200,39911,0
2202,39923,0
2201,39939,0
2208,39918,0
2212,39901,0
2224,39946,0
2232,39924,0
2240,39907,0
2256,39925,0
2264,39913,0
2272,39923,0
2273,39954,0
2276,39915,0
2274,39910,0
2272,39913,0
2268,39949,0
2256,39927,0
2248,39922,0
2242,39954,0
2240,39907,0
2240,39927,0
2234,39942,0
2232,39949,0
2228,39920,0
2232,39905,0
2228,39959,0
2226,39929,0
2224,39920,0
2224,39941,0
2228,39916,0
2232,39940,0
2228,39931,0
2228,39926,0
2232,39920,0
2226,39953,0
2224,39938,0
2224,39929,0
2220,39952,0
2228,39938,0
2212,39938,0
2212,39951,0
2208,39943,0
2208,39926,0
2203,39936,0
2208,39915,0
2204,39921,0
2216,39952,0
2212,39925,0
2232,39929,0
2248,39961,0
2260,39940,0
2264,39923,0
2288,39944,0
2300,39952,0
2324,39944,0
2352,39923,0
2384,39955,0
2432,39924,0
2464,39938,0
2508,39953,0
2548,39937,0
2586,39924,0
2632,39958,0
2688,39944,0
2728,39936,0
2776,39956,0
2832,39933,0
2882,39939,0
2924,39964,0
2968,39948,0
3000,39937,0
3000,39939,0
3016,39968,0
2996,39948,0
2964,39946,0
2896,39939,0
2832,39942,0
2756,39976,0
2688,39945,0
2608,39930,0
2544,39956,0
2456,39938,0
2380,39949,0
2308,39966,0
2234,39930,0
2156,39931,0
2100,39976,0
2040,39955,0
2004,39950,0
1964,39949,0
1936,39963,0
1924,39958,0
1888,39939,0
1873,39974,0
1856,39938,0
1858,39933,0
1848,39988,0
1848,39943,0
1842,39946,0
1840,39957,0
1856,39962,0
1864,39966,0
1876,39964,0
1872,39974,0
1893,39960,0
1904,39958,0
1908,39965,0
1922,39968,0
1936,39985,0
1940,39933,0
1948,39952,0
1954,39975,0
1968,39944,0
1969,39951,0
1984,39957,0
1980,39953,0
1996,39958,0
2058,39972,0
2010,39941,0
2016,39959,0
2016,39971,0
2036,39980,0
2028,39953,0
2038,39927,0
2056,39993,0
2056,39953,0
2072,39935,0
2080,39978,0
2090,39937,0
2128,39973,0
2136,39990,0
2144,39943,0
2160,39962,0
2176,39978,0
2176,39966,0
2192,39964,0
2200,39957,0
2204,39963,0
2208,39976,0
2213,39993,0
2202,39957,0
2208,39962,0
2208,39983,0
2212,39986,0
2212,39965,0
2216,39963,0
2216,39980,0
2216,39960,0
2218,39964,0
2224,39992,0
2220,39967,0
2216,39948,0
2228,39992,0
2209,39977,0
2204,39966,0
2212,39989,0
2210,39970,0
2208,39978,0
2196,39990,0
2192,39987,0
2192,39978,0
2200,39962,0
2208,40011,0
2208,39974,0
2218,39961,0
2241,39998,0
2240,39974,0
2260,39995,0
2272,39975,0
2288,39963,0
2284,39990,0
2288,40005,0
2284,39998,0
2288,39985,0
2276,39976,0
2264,40000,0
2264,39998,0
2328,39982,0
2244,39984,0
2240,40006,0
2232,39977,0
2228,39982,0
2220,40003,0
2216,39988,0
2212,39979,0
2220,40005,0
2218,39989,0
2218,39984,0
2225,40007,0
2240,39986,0
2240,40003,0
2232,40009,0
2232,40009,0
2248,39981,0
2240,39953,0
2240,40015,0
2248,39983,0
2256,39970,0
2256,40017,0
2256,40019,0
2272,40015,0
2258,39997,0
2264,40001,0
2316,39992,0
2264,40019,0
2273,39996,0
2274,39990,0
2272,40002,0
2284,40005,0
2288,40001,0
2280,39988,0
2284,40011,0
2284,39980,0
2272,39974,0
2260,40028,0
2250,40001,0
2240,39997,0
2240,40016,0
2224,40001,0
2226,40003,0
2220,40017,0
2218,40003,0
2216,39998,0
2224,40009,0
2228,40025,0
2244,39989,0
2244,39977,0
2264,40029,0
2272,40012,0
2288,39996,0
2288,40019,0
2284,40019,0
2280,39996,0
2280,40016,0
2268,40031,0
2258,40000,0
2256,40025,0
2256,40008,0
2248,40014,0
2240,40019,0
2240,40026,0
2233,40009,0
2234,39998,0
2232,40041,0
2236,40002,0
2240,40002,0
2240,40029,0
2248,40016,0
2244,40005,0
2244,40028,0
2244,40019,0
2252,40003,0
2242,40022,0
2244,40034,0
2248,40011,0
2240,39985,0
2248,40040,0
2244,40020,0
2240,40013,0
2244,40029,0
2250,40012,0
2264,40019,0
2256,40027,0
2265,39989,0
2276,40021,0
2280,40034,0
2296,40020,0
2292,40040,0
2292,40044,0
2306,40023,0
2292,40018,0
2296,40029,0
2284,40043,0
2276,40007,0
2272,39994,0
2276,40036,0
2252,40023,0
2248,39994,0
2244,40026,0
2242,39998,0
2232,40005,0
2228,40042,0
2216,40013,0
2224,40005,0
2218,40033,0
2224,40024,0
2224,40011,0
2240,40006,0
2248,40031,0
2256,40017,0
2264,40007,0
2268,40025,0
2276,40004,0
2282,39994,0
2290,40034,0
2292,40024,0
2280,40001,0
2288,39994,0
2274,40001,0
2280,39993,0
2272,40011,0
2272,40000,0
2264,39977,0
2266,40008,0
2264,40005,0
2272,39967,0
2260,40012,0
2264,39974,0
2268,39981,0
2266,40014,0
2272,39979,0
2264,39986,0
2260,39998,0
2256,39977,0
2248,39978,0
2240,40003,0
2232,39973,0
2225,39969,0
2224,39977,0
2220,40004,0
2224,39970,0
2228,39951,0
2240,39981,0
2248,39972,0
2260,39956,0
2268,39991,0
2288,39956,0
2292,39948,0
2306,39958,0
2312,39962,0
2322,39929,0
2320,39948,0
2322,39969,0
2312,39954,0
2312,39957,0
2297,39959,0
2296,39944,0
2288,39948,0
2280,39965,0
2272,39932,0
2272,39920,0
2260,39950,0
2264,39937,0
2264,39919,0
2264,39948,0
2264,39918,0
2268,39934,0
2260,39947,0
2272,39922,0
2272,39916,0
2272,39933,0
2274,39932,0
2276,39919,0
2282,39916,0
2280,39932,0
2280,39908,0
2296,39895,0
2292,39933,0
2284,39904,0
2296,39906,0
2296,39903,0
2300,39933,0
2308,39898,0
2312,39908,0
2304,39883,0
2310,39915,0
2314,39917,0
2316,39887,0
2320,39866,0
2320,39910,0
2316,39907,0
2316,39894,0
2314,39905,0
2308,39880,0
2296,39892,0
2276,39911,0
2264,39887,0
2210,39886,0
2240,39884,0
2228,39908,0
2220,39880,0
2213,39874,0
2216,39901,0
2218,39867,0
2232,39863,0
2226,39895,0
2240,39870,0
2248,39860,0
2260,39883,0
2268,39862,0
2266,39865,0
2284,39861,0
2272,39857,0
2272,39886,0
2276,39893,0
2264,39865,0
2264,39882,0
2256,39858,0
2248,39878,0
2240,39883,0
2234,39885,0
2228,39854,0
2232,39842,0
2228,39899,0
2228,39855,0
2224,39848,0
2224,39872,0
2234,39848,0
2224,39870,0
2224,39886,0
2224,39847,0
2232,39842,0
2228,39873,0
2225,39855,0
2216,39857,0
2216,39849,0
2224,39872,0
2228,39857,0
2224,39835,0
2234,39875,0
2240,39842,0
2240,39835,0
2248,39885,0
2252,39845,0
2256,39841,0
2264,39830,0
2293,39851,0
2272,39843,0
2288,39877,0
2280,39847,0
2284,39822,0
2272,39876,0
2264,39843,0
2256,39844,0
2256,39863,0
2248,39834,0
2248,39864,0
2234,39859,0
2234,39854,0
2224,39839,0
2216,39845,0
2216,39872,0
2220,39832,0
2225,39819,0
2220,39851,0
2226,39837,0
2224,39821,0
2240,39856,0
2248,39831,0
2244,39828,0
2249,39870,0
2258,39840,0
2272,39845,0
2264,39853,0
2266,39828,0
2264,39855,0
2272,39852,0
2264,39815,0
2256,39822,0
2248,39859,0
2244,39839,0
2248,39833,0
2245,39850,0
2241,39823,0
2290,39830,0
2241,39853,0
2252,39844,0
2242,39826,0
2244,39805,0
2234,39858,0
2232,39823,0
2234,39808,0
2228,39831,0
2228,39820,0
2216,39830,0
2226,39841,0
2220,39823,0
2210,39816,0
2204,39845,0
2216,39834,0
2210,39815,0
2212,39813,0
2224,39832,0
2240,39825,0
2248,39794,0
2260,39842,0
2284,39801,0
2288,39832,0
2296,39812,0
2292,39819,0
2296,39810,0
2292,39796,0
2280,39818,0
2274,39817,0
2264,39803,0
2260,39833,0
2240,39793,0
2224,39813,0
2224,39836,0
2216,39815,0
2208,39808,0
2210,39812,0
2212,39842,0
2212,39806,0
2218,39783,0
2220,39818,0
2220,39800,0
2226,39813,0
2228,39828,0
2240,39799,0
2248,39800,0
2248,39822,0
2252,39810,0
2256,39801,0
2248,39798,0
2256,39817,0
2264,39808,0
2256,39798,0
2264,39801,0
2268,39785,0
2268,39794,0
2285,39809,0
2280,39804,0
