ECG,IR,PCG
2304,39813,0
2296,39791,0
2308,39824,0
2296,39807,0
2296,39800,0
2292,39831,0
2288,39806,0
2280,39783,0
2272,39840,0
2258,39814,0
2242,39807,0
2240,39833,0
2232,39796,0
2226,39823,0
2225,39831,0
2226,39812,0
2229,39824,0
2240,39832,0
2248,39821,0
2258,39830,0
2268,39838,0
2288,39800,0
2304,39838,0
2304,39855,0
2321,39847,0
2320,39800,0
2308,39808,0
2312,39855,0
2304,39814,0
2288,39809,0
2292,39829,0
2272,39807,0
2264,39818,0
2264,39853,0
2244,39815,0
2240,39803,0
2240,39830,0
2240,39828,0
2240,39810,0
2256,39848,0
2256,39807,0
2264,39808,0
2265,39852,0
2276,39825,0
2276,39806,0
2280,39842,0
2284,39827,0
2276,39834,0
2274,39852,0
2274,39814,0
2264,39823,0
2264,39843,0
2260,39832,0
2260,39836,0
2264,39836,0
2256,39821,0
2256,39844,0
2274,39829,0
2272,39856,0
2276,39825,0
2292,39827,0
2292,39857,0
2292,39830,0
2284,39833,0
2272,39847,0
2277,39839,0
2256,39839,0
2240,39851,0
2240,39831,0
2218,39834,0
2208,39845,0
2192,39831,0
2192,39847,0
2168,39846,0
2168,39841,0
2168,39864,0
2176,39848,0
2184,39841,0
2200,39837,0
2224,39859,0
2260,39846,0
2276,39859,0
2300,39851,0
2330,39830,0
2360,39877,0
2424,39857,0
2464,39856,0
2500,39866,0
2528,39827,0
2560,39852,0
2596,39858,0
2624,39836,0
2664,39834,0
2712,39868,0
2736,39848,0
2784,39839,0
2816,39858,0
2864,39830,0
2904,39857,0
2920,39872,0
2952,39839,0
2962,39840,0
2964,39854,0
2944,39847,0
2912,39841,0
2872,39861,0
2808,39844,0
2752,39842,0
2688,39863,0
2616,39843,0
2548,39833,0
2480,39857,0
2416,39844,0
2360,39850,0
2304,39865,0
2248,39834,0
2214,39841,0
2184,39866,0
2160,39853,0
2152,39847,0
2136,39866,0
2120,39869,0
2120,39848,0
2096,39852,0
2080,39863,0
2064,39839,0
2050,39845,0
2032,39875,0
2020,39834,0
1988,39838,0
1976,39866,0
1962,39854,0
1952,39849,0
1944,39869,0
1936,39847,0
1960,39829,0
1944,39886,0
1937,39852,0
1946,39862,0
1964,39872,0
1964,39853,0
1984,39846,0
1988,39889,0
1993,39846,0
2010,39847,0
2024,39885,0
2036,39865,0
2040,39854,0
2052,39872,0
2052,39866,0
2056,39865,0
2064,39852,0
2080,39842,0
2096,39855,0
2096,39885,0
2116,39867,0
2130,39855,0
2144,39889,0
2152,39856,0
2160,39847,0
2180,39894,0
2140,39862,0
2192,39840,0
2200,39887,0
2194,39865,0
2202,39855,0
2192,39879,0
2180,39865,0
2168,39855,0
2168,39893,0
2152,39861,0
2152,39876,0
2148,39882,0
2160,39865,0
2168,39890,0
2169,39880,0
2180,39867,0
2196,39877,0
2228,39883,0
2236,39881,0
2244,39884,0
2258,39863,0
2280,39858,0
2280,39894,0
2282,39898,0
2288,39867,0
2288,39879,0
2276,39898,0
2268,39887,0
2264,39885,0
2256,39906,0
2248,39879,0
2244,39877,0
2240,39914,0
2240,39875,0
2240,39872,0
2236,39895,0
2232,39899,0
2244,39862,0
2248,39916,0
2248,39885,0
2258,39862,0
2260,39932,0
2264,39895,0
2272,39884,0
2272,39904,0
2272,39899,0
2264,39888,0
2264,39915,0
2260,39897,0
2264,39906,0
2256,39915,0
2260,39904,0
2266,39897,0
2280,39903,0
2292,39909,0
2304,39919,0
2304,39920,0
2320,39903,0
2320,39910,0
2320,39925,0
2328,39912,0
2410,39902,0
2320,39921,0
2320,39902,0
2320,39913,0
2316,39935,0
2304,39906,0
2284,39899,0
2276,39935,0
2272,39917,0
2264,39903,0
2258,39929,0
2258,39914,0
2256,39891,0
2272,39954,0
2280,39924,0
2276,39936,0
2304,39934,0
2312,39926,0
2320,39932,0
2320,39947,0
2328,39921,0
2330,39931,0
2336,39950,0
2338,39949,0
2336,39942,0
2328,39929,0
2292,39926,0
2324,39935,0
2328,39934,0
2320,39904,0
2324,39955,0
2308,39916,0
2312,39917,0
2312,39956,0
2312,39931,0
2320,39919,0
2328,39961,0
2324,39952,0
2328,39930,0
2328,39956,0
2332,39935,0
2328,39944,0
2320,39970,0
2320,39943,0
2308,39953,0
2292,39950,0
2288,39945,0
2280,39974,0
2280,39953,0
2272,39949,0
2280,39969,0
2276,39969,0
2288,39955,0
2296,39974,0
2308,39941,0
2320,39961,0
2336,39965,0
2352,39978,0
2360,39957,0
2368,39958,0
2376,39969,0
2376,39989,0
2360,39963,0
2368,39948,0
2368,39980,0
2348,39976,0
2328,39962,0
2314,39991,0
2304,39965,0
2296,39956,0
2288,40012,0
2288,39965,0
2288,39985,0
2272,39991,0
2288,39987,0
2280,40000,0
2292,39987,0
2304,39991,0
2304,39998,0
2314,40005,0
2314,40001,0
2320,40007,0
2320,39976,0
2320,39992,0
2332,40027,0
2329,39983,0
2320,39988,0
2352,39979,0
2320,40013,0
2324,39996,0
2328,39981,0
2328,39992,0
2336,39977,0
2348,40023,0
2352,39991,0
2360,39979,0
2368,40011,0
2378,39983,0
2384,39990,0
2384,40018,0
2376,39993,0
2372,39978,0
2380,40026,0
2352,40008,0
2352,39991,0
2352,40022,0
2322,39997,0
2320,39994,0
2304,40032,0
2304,40000,0
2304,39996,0
2292,40016,0
2304,40008,0
2306,40020,0
2320,40002,0
2324,39998,0
2336,40012,0
2352,40027,0
2356,40000,0
2368,40034,0
2376,39994,0
2370,39990,0
2384,40021,0
2384,40001,0
2384,40018,0
2368,39989,0
2352,40008,0
2344,40026,0
2348,40005,0
2336,39991,0
2328,40008,0
2320,40003,0
2316,39995,0
2320,40009,0
2324,39985,0
2320,39982,0
2328,40026,0
2328,39993,0
2336,39984,0
2336,40001,0
2340,39991,0
2336,39992,0
2328,40007,0
2336,39989,0
2328,39961,0
2313,40017,0
2312,39985,0
2308,39966,0
2316,40001,0
2320,39979,0
2320,39959,0
2328,39978,0
2336,39971,0
2344,39976,0
2354,40006,0
2368,39986,0
2384,39981,0
2392,40000,0
2388,39966,0
2392,39978,0
2380,39997,0
2372,39977,0
2368,39955,0
2356,39987,0
2340,39988,0
2316,39964,0
2296,39988,0
2288,39965,0
2280,39956,0
2272,39995,0
2268,39950,0
2256,39945,0
2272,39991,0
2272,39961,0
2272,39950,0
2276,39988,0
2304,39964,0
2304,39940,0
2304,39987,0
2312,39963,0
2320,39925,0
2320,39973,0
2320,39938,0
2320,39975,0
2320,39974,0
2312,39941,0
2298,39956,0
2296,39959,0
2288,39956,0
2272,39968,0
2280,39951,0
2276,39941,0
2272,39972,0
2272,39957,0
2274,39938,0
2280,39966,0
2284,39934,0
2280,39960,0
2280,39966,0
2280,39943,0
2277,39940,0
2272,39952,0
2260,39949,0
2260,39928,0
2240,39967,0
2232,39929,0
2232,39932,0
2232,39972,0
2232,39933,0
2240,39917,0
2232,39952,0
2250,39950,0
2256,39926,0
2266,39959,0
2292,39938,0
2292,39929,0
2304,39953,0
2320,39934,0
2328,39939,0
2336,39947,0
2336,39933,0
2336,39953,0
2336,39947,0
2324,39934,0
2308,39954,0
2296,39945,0
2288,39940,0
2276,39956,0
2280,39933,0
2272,39935,0
2265,39968,0
2272,39936,0
2260,39940,0
2264,39962,0
2280,39940,0
2276,39954,0
2294,39955,0
2290,39929,0
2304,39936,0
2304,39953,0
2308,39949,0
2304,39927,0
2308,39951,0
2308,39937,0
2296,39943,0
2288,39950,0
2284,39918,0
2276,39925,0
2272,39924,0
2272,39957,0
2266,39941,0
2272,39935,0
2280,39936,0
2264,39946,0
2272,39946,0
2288,39942,0
2282,39953,0
2288,39930,0
2288,39951,0
2280,39959,0
2280,39930,0
2276,39946,0
2272,39931,0
2268,39955,0
2248,39958,0
2234,39943,0
2232,39936,0
2226,39948,0
2216,39947,0
2226,39944,0
2224,39953,0
2232,39930,0
2232,39940,0
2245,39968,0
2260,39941,0
2282,39937,0
2292,39951,0
2302,39948,0
2306,39933,0
2312,39948,0
2308,39944,0
2308,39913,0
2304,39949,0
2296,39960,0
2288,39929,0
2280,39940,0
2314,39951,0
2256,39948,0
2256,39942,0
2248,39956,0
2256,39938,0
2248,39941,0
2256,39969,0
2248,39928,0
2264,39938,0
2264,39946,0
2272,39946,0
2272,39944,0
2273,39963,0
2280,39930,0
2280,39919,0
2276,39970,0
2280,39941,0
2272,39925,0
2272,39953,0
2274,39941,0
2272,39938,0
2284,39961,0
2274,39935,0
2276,39912,0
2288,39953,0
2296,39965,0
2306,39954,0
2320,39921,0
2328,39938,0
2336,39969,0
2344,39950,0
2340,39940,0
2340,39963,0
2344,39940,0
2328,39956,0
2316,39965,0
2312,39948,0
2304,39932,0
2280,39967,0
2260,39951,0
2250,39945,0
2248,39961,0
2228,39924,0
2226,39962,0
2228,39972,0
2228,39937,0
2232,39955,0
2244,39961,0
2252,39956,0
2264,39936,0
2288,39958,0
2288,39936,0
2300,39946,0
2304,39975,0
2312,39937,0
2324,39940,0
2328,39956,0
2324,39938,0
2314,39969,0
2308,39962,0
2308,39962,0
2380,39942,0
2314,39944,0
2316,39957,0
2324,39970,0
2320,39927,0
2320,39932,0
2328,39971,0
2328,39928,0
2336,39929,0
2336,39947,0
2336,39930,0
2360,39932,0
2324,39954,0
2316,39931,0
2312,39917,0
2304,39964,0
2288,39950,0
2280,39913,0
2272,39971,0
2265,39929,0
2256,39931,0
2257,39972,0
2276,39939,0
2272,39926,0
2280,39957,0
2288,39941,0
2300,39930,0
2312,39934,0
2336,39944,0
2336,39943,0
2352,39972,0
2352,39973,0
2360,39950,0
2354,39942,0
2356,39966,0
2344,39947,0
2336,39943,0
2320,39965,0
2312,39930,0
2300,39949,0
2288,39964,0
2280,39937,0
2272,39934,0
2260,39950,0
2264,39939,0
2272,39938,0
2272,39953,0
2272,39925,0
2277,39938,0
2284,39960,0
2284,39929,0
2292,39929,0
2296,39934,0
2304,39937,0
2293,39927,0
2292,39947,0
2288,39922,0
2288,39930,0
2292,39960,0
2296,39944,0
2280,39938,0
2304,39925,0
2296,39930,0
2296,39938,0
2312,39958,0
2316,39932,0
2322,39926,0
2328,39956,0
2336,39935,0
2346,39933,0
2336,39936,0
2338,39927,0
2336,39963,0
2328,39937,0
2328,39933,0
2304,39938,0
2296,39920,0
2280,39932,0
2264,39949,0
2256,39928,0
2248,39940,0
2248,39947,0
2240,39934,0
2240,39932,0
2248,39945,0
2256,39912,0
2272,39938,0
2280,39951,0
2284,39926,0
2297,39936,0
2308,39947,0
2320,39951,0
2336,39942,0
2328,39909,0
2328,39920,0
2322,39928,0
2336,39925,0
2312,39952,0
2308,39921,0
2312,39914,0
2308,39961,0
2304,39932,0
2288,39920,0
2290,39942,0
2288,39926,0
2292,39951,0
2288,39944,0
2296,39927,0
2304,39952,0
2296,39925,0
2316,39941,0
2296,39957,0
2304,39928,0
2292,39920,0
2280,39949,0
2276,39945,0
2272,39924,0
2264,39948,0
2260,39918,0
2256,39924,0
2260,39959,0
2264,39927,0
2280,39963,0
2288,39931,0
2304,39939,0
2312,39946,0
2328,39946,0
2336,39960,0
2336,39923,0
2340,39918,0
2344,39958,0
2352,39938,0
2344,39915,0
2345,39969,0
2328,39947,0
2320,39950,0
2304,39945,0
2292,39932,0
2280,39972,0
2272,39939,0
2272,39940,0
2264,39958,0
2268,39928,0
2272,39949,0
2272,39962,0
2284,39930,0
2288,39948,0
2304,39962,0
2308,39938,0
2316,39926,0
2312,39955,0
2324,39927,0
2324,39931,0
2320,39977,0
2312,39963,0
2312,39927,0
2304,39936,0
2296,39958,0
2304,39956,0
2296,39937,0
2292,39961,0
2312,39939,0
2320,39951,0
2320,39966,0
2328,39941,0
2336,39928,0
2344,39963,0
2352,39959,0
2344,39926,0
2344,39964,0
2340,39932,0
2340,39929,0
2329,39977,0
2404,39937,0
2312,39931,0
2304,39975,0
2284,39956,0
2281,39956,0
2272,39968,0
2264,39949,0
2272,39958,0
2272,39979,0
2276,39947,0
2288,39956,0
2294,39967,0
2300,39952,0
2324,39973,0
2320,39953,0
2329,39957,0
2328,39951,0
2344,39975,0
2337,39982,0
2328,39954,0
2320,39950,0
2312,39966,0
2300,39968,0
2292,39962,0
2288,39978,0
2282,39948,0
2240,39947,0
2276,39984,0
2272,39957,0
2264,39958,0
2272,39980,0
2276,39967,0
2288,39962,0
2296,39982,0
2304,39966,0
2308,39943,0
2312,39984,0
2313,39969,0
2320,39953,0
2320,39987,0
2324,39962,0
2320,39958,0
2324,39996,0
2328,39970,0
2320,39941,0
2312,39965,0
2316,39990,0
2320,39989,0
2316,39986,0
2328,39960,0
2336,39970,0
2340,40005,0
2354,39978,0
2352,39953,0
2348,40002,0
2356,39971,0
2352,39969,0
2344,40003,0
2336,39969,0
2328,39963,0
2320,40006,0
2304,39978,0
2297,39962,0
2280,40007,0
2264,39987,0
2264,39988,0
2256,40003,0
2244,39978,0
2256,39979,0
2252,40015,0
2257,39993,0
2272,39981,0
2292,40008,0
2288,39978,0
2308,40012,0
2324,40010,0
2330,39988,0
2336,39989,0
2336,39993,0
2352,40007,0
2345,39983,0
2344,40006,0
2348,39976,0
2328,40017,0
2314,39989,0
2312,39982,0
2304,40005,0
2304,39981,0
2292,39993,0
2292,40022,0
2288,39989,0
2290,39983,0
2296,40017,0
2288,40009,0
2292,39998,0
2288,40009,0
2288,39987,0
2288,40020,0
2280,40006,0
2280,40000,0
2276,40009,0
2264,40003,0
2265,40015,0
2256,40015,0
2256,40018,0
2240,39999,0
2252,40011,0
2272,40028,0
2270,40006,0
2284,40019,0
2288,40000,0
2308,40015,0
2320,40002,0
2370,40005,0
2338,40003,0
2344,39995,0
2346,40029,0
2344,40006,0
2344,40011,0
2340,40021,0
2328,39996,0
2312,40006,0
2316,40023,0
2296,40016,0
2284,40016,0
2268,40010,0
2264,40016,0
2260,40034,0
2260,40001,0
2256,40010,0
2264,40028,0
2264,40021,0
2272,40008,0
2280,40026,0
2280,40009,0
2296,40020,0
2308,40037,0
2304,40009,0
2309,40014,0
2312,40042,0
2316,40009,0
2320,40011,0
2312,40028,0
2316,40021,0
2308,40017,0
2304,40036,0
2314,40012,0
2324,40036,0
2320,40012,0
2328,40014,0
2328,40054,0
2336,40019,0
2332,40010,0
2336,40027,0
2328,40018,0
2330,40026,0
2328,40041,0
2312,40009,0
2312,40011,0
2290,40054,0
2280,40023,0
2256,40020,0
2248,40047,0
2226,40009,0
2208,40033,0
2208,40045,0
2188,40018,0
2188,40020,0
2192,40037,0
2192,40028,0
2208,40010,0
2232,40040,0
2236,40019,0
2260,40035,0
2360,40024,0
2292,40039,0
2312,40038,0
2330,40036,0
2352,40022,0
2368,40012,0
2388,40052,0
2406,40019,0
2436,40004,0
2480,40052,0
2512,40014,0
2548,40009,0
2594,40046,0
2640,40031,0
2688,40021,0
2736,40048,0
2784,40027,0
2842,40002,0
2888,40056,0
2952,40035,0
2992,40026,0
3040,40043,0
3072,40023,0
3088,40039,0
3104,40052,0
3092,40034,0
3072,40041,0
3020,40047,0
2964,40042,0
2912,40038,0
2844,40052,0
2784,40027,0
2720,40058,0
2656,40027,0
2596,40026,0
2528,40063,0
2464,40029,0
2420,40026,0
2352,40067,0
2306,40033,0
2260,40031,0
2216,40055,0
2180,40052,0
2152,40045,0
2112,40043,0
2084,40036,0
2060,40056,0
2020,40058,0
1988,40031,0
1972,40050,0
1952,40027,0
1936,40052,0
1930,40066,0
1924,40038,0
1928,40033,0
1930,40062,0
1952,40054,0
1952,40052,0
1964,40065,0
1977,40028,0
2000,40035,0
2016,40068,0
2033,40088,0
2040,40044,0
2064,40025,0
2056,40073,0
2058,40040,0
2056,40059,0
2064,40033,0
2056,40010,0
2064,40070,0
2068,40049,0
2072,40043,0
2088,40062,0
2096,40047,0
2104,40063,0
2120,40056,0
2128,40043,0
2136,40053,0
2144,40055,0
2146,40056,0
2160,40060,0
2164,40050,0
2160,40034,0
2160,40083,0
2168,40061,0
2168,40051,0
2156,40066,0
2164,40040,0
2168,40046,0
2168,40076,0
2180,40055,0
2184,40025,0
2184,40077,0
2204,40088,0
2218,40038,0
2228,40054,0
2248,40034,0
2268,40055,0
2280,40063,0
2282,40075,0
2280,40053,0
2288,40046,0
2288,40090,0
2280,40072,0
2274,40058,0
2272,40074,0
2260,40051,0
2252,40071,0
2240,40082,0
2240,40068,0
2236,40058,0
2288,40078,0
2232,40089,0
2232,40070,0
2240,40083,0
2240,40067,0
2256,40068,0
2260,40090,0
2256,40066,0
2264,40061,0
2268,40085,0
2272,40078,0
2290,40073,0
2288,40096,0
2280,40063,0
2288,40066,0
2288,40088,0
2284,40073,0
2274,40078,0
2280,40078,0
2288,40076,0
2304,40080,0
2314,40095,0
2312,40076,0
2340,40065,0
2336,40093,0
2344,40071,0
2360,40075,0
2352,40097,0
2368,40062,0
2352,40093,0
2344,40096,0
2340,40070,0
2336,40070,0
2308,40094,0
2304,40075,0
2284,40084,0
2276,40098,0
2264,40073,0
2252,40084,0
2256,40107,0
2256,40082,0
2264,40063,0
2264,40096,0
2268,40090,0
2284,40066,0
2292,40098,0
2316,40079,0
2324,40094,0
2324,40097,0
2328,40083,0
2336,40090,0
2336,40088,0
2336,40089,0
2312,40117,0
2304,40080,0
2292,40079,0
2276,40098,0
2272,40090,0
2264,40092,0
2256,40114,0
2252,40080,0
2296,40091,0
2256,40123,0
2248,40090,0
2256,40096,0
2256,40101,0
2272,40084,0
2258,40118,0
2284,40109,0
2280,40083,0
2272,40075,0
2277,40121,0
2284,40098,0
2276,40066,0
2276,40117,0
2272,40080,0
2266,40089,0
2273,40134,0
2274,40103,0
2288,40101,0
2284,40087,0
2300,40117,0
2304,40094,0
2312,40091,0
2322,40083,0
2336,40117,0
2340,40104,0
2316,40081,0
2344,40121,0
2352,40088,0
2338,40092,0
2344,40126,0
2324,40101,0
2312,40086,0
2296,40115,0
2284,40107,0
2274,40093,0
2252,40119,0
2240,40104,0
2240,40093,0
2240,40130,0
2244,40108,0
2232,40106,0
2242,40120,0
2265,40106,0
2264,40126,0
2268,40109,0
2296,40105,0
2304,40120,0
2304,40124,0
2308,40122,0
2308,40099,0
2312,40129,0
2320,40117,0
2320,40107,0
2306,40107,0
2306,40086,0
2312,40133,0
2300,40113,0
2300,40118,0
2304,40136,0
2297,40104,0
2304,40096,0
2304,40132,0
2309,40115,0
2314,40114,0
2316,40115,0
2320,40103,0
2316,40143,0
2312,40124,0
2306,40104,0
2304,40123,0
2292,40100,0
2288,40113,0
2284,40133,0
2282,40106,0
2272,40102,0
2261,40136,0
2268,40127,0
2276,40107,0
2288,40118,0
2290,40111,0
2308,40104,0
2324,40141,0
2336,40101,0
2336,40098,0
2344,40094,0
2352,40114,0
2448,40110,0
2360,40126,0
2370,40091,0
2360,40119,0
2352,40116,0
2348,40100,0
2340,40097,0
2324,40117,0
2308,40091,0
2298,40114,0
2288,40111,0
2288,40094,0
2284,40100,0
2280,40118,0
2288,40096,0
2289,40110,0
2292,40103,0
2304,40087,0
2304,40108,0
2305,40103,0
2320,40086,0
2320,40100,0
2312,40096,0
2317,40091,0
2322,40089,0
2312,40088,0
2356,40083,0
2320,40075,0
2312,40077,0
2316,40078,0
2312,40081,0
2320,40070,0
2328,40058,0
2336,40093,0
2344,40058,0
2352,40052,0
2368,40082,0
2368,40076,0
2376,40046,0
2376,40092,0
2376,40056,0
2372,40051,0
2360,40095,0
2356,40057,0
2344,40048,0
2328,40080,0
2328,40061,0
2304,40063,0
2288,40073,0
2277,40049,0
2272,40041,0
2266,40085,0
2272,40056,0
2272,40055,0
2264,40054,0
2280,40049,0
2288,40074,0
2300,40065,0
2312,40041,0
2313,40049,0
2320,40063,0
2324,40052,0
2320,40068,0
2320,40031,0
2316,40020,0
2304,40067,0
2288,40051,0
2276,40028,0
2264,40073,0
2250,40034,0
2248,40031,0
2236,40064,0
2232,40043,0
2228,40012,0
2224,40062,0
2236,40040,0
2224,40013,0
2232,40051,0
2232,40021,0
2234,40018,0
2228,40055,0
2232,40025,0
2232,40008,0
2240,40049,0
2240,40026,0
2232,40017,0
2244,40046,0
2232,40016,0
2240,40006,0
2248,40019,0
2250,40009,0
2252,40038,0
2256,40020,0
2272,40046,0
2280,40025,0
2288,40016,0
2304,40049,0
2304,40007,0
2308,40030,0
2308,40049,0
2308,40020,0
2304,40025,0
2298,40034,0
2288,40028,0
2280,40019,0
2260,40053,0
2252,40005,0
2248,40017,0
2232,40058,0
2226,40012,0
2228,40007,0
2218,40031,0
2228,40015,0
2233,40014,0
2240,40039,0
2260,40016,0
2272,40002,0
2276,40053,0
2293,40022,0
2300,40000,0
2292,40044,0
2308,40019,0
2312,40002,0
2308,40021,0
2304,40014,0
2292,40036,0
2296,40031,0
2288,40022,0
2276,40029,0
2276,40015,0
2281,40008,0
2268,40032,0
2276,40017,0
2272,40014,0
2284,40035,0
2284,40008,0
2284,40015,0
2284,40030,0
2312,40000,0
2280,40008,0
2272,40025,0
2272,40020,0
2266,39994,0
2256,40037,0
2240,40004,0
2228,40006,0
2224,40034,0
2220,40015,0
2220,39992,0
2224,40018,0
2232,40014,0
2233,39993,0
2248,40031,0
2260,40023,0
2272,39999,0
2282,40022,0
2296,40010,0
2304,40006,0
2312,40012,0
2312,40015,0
2312,40039,0
2312,40000,0
2304,40003,0
2292,40031,0
2284,40009,0
2272,40013,0
2258,40024,0
2248,39999,0
2242,39987,0
2240,40024,0
2232,40001,0
2226,40000,0
2224,40021,0
2224,39995,0
2230,40002,0
2240,40025,0
2240,40000,0
2248,39975,0
2250,40023,0
2256,40014,0
2256,40006,0
2260,40020,0
2264,40004,0
2268,40011,0
2269,40027,0
2272,39994,0
2264,39996,0
2264,39998,0
2264,40018,0
2280,40001,0
2288,40005,0
2289,40017,0
2296,39997,0
2304,40022,0
2328,40026,0
2324,39985,0
2328,39994,0
2336,40025,0
2336,39994,0
2330,39996,0
2328,40024,0
2316,39986,0
2316,40001,0
2304,40028,0
2284,39995,0
2272,39983,0
2264,40006,0
2248,40006,0
2248,39984,0
2234,40025,0
2240,39986,0
2244,39992,0
2248,40035,0
2242,39995,0
2256,39983,0
2264,40023,0
2260,40016,0
2280,40000,0
2280,40006,0
2288,39978,0
2288,40007,0
2288,40013,0
2288,39988,0
2280,40021,0
2276,39993,0
2272,39985,0
2260,40035,0
2244,39999,0
2248,39983,0
2248,40017,0
2240,40006,0
2236,40001,0
2244,40022,0
2250,40007,0
2258,39981,0
2257,40041,0
2272,40009,0
2272,40014,0
2272,40016,0
2272,40010,0
2272,40019,0
2272,40019,0
2264,40005,0
2266,40011,0
2260,40030,0
2252,40016,0
2248,40017,0
2248,40016,0
2249,40000,0
2244,40030,0
2244,40021,0
2264,40003,0
2272,40024,0
2272,40013,0
2282,40006,0
2296,40028,0
2304,40012,0
2312,39987,0
2312,40033,0
2312,40018,0
2362,39999,0
2304,40028,0
2296,40008,0
2296,39998,0
2280,40037,0
2260,40012,0
2264,39996,0
2248,40028,0
2240,40021,0
2240,40007,0
2240,40036,0
2240,40023,0
2240,40022,0
2248,40022,0
2248,40007,0
2256,40025,0
2280,40025,0
2280,40011,0
2284,40038,0
2288,40034,0
2289,40006,0
2298,40021,0
2304,40013,0
2292,40017,0
2288,39997,0
2290,40022,0
2324,39987,0
2272,40045,0
2272,40007,0
2266,39998,0
2260,40032,0
2257,40016,0
2272,40032,0
2260,40024,0
2272,40015,0
2274,40028,0
2280,40008,0
2280,40024,0
2272,40028,0
2276,40023,0
2272,40007,0
2272,40047,0
2260,40027,0
2252,40013,0
2252,40032,0
2240,40030,0
2232,40019,0
2232,40034,0
2232,40019,0
2240,40009,0
2240,40021,0
2244,40038,0
2256,40016,0
2264,40009,0
2276,40009,0
2280,40020,0
2284,40015,0
2296,40016,0
2300,40012,0
2300,40024,0
2304,40011,0
2284,40010,0
2282,40033,0
2280,39997,0
2260,40002,0
2256,40044,0
2240,40026,0
2236,40012,0
2240,40029,0
2224,40012,0
2224,40025,0
2224,40024,0
2232,40012,0
2240,40028,0
2240,40029,0
2242,40020,0
2256,40037,0
2256,40015,0
2264,40011,0
2272,40045,0
2280,40009,0
2272,40013,0
2272,40035,0
2272,40000,0
2272,40029,0
2272,40019,0
2264,40017,0
2368,40004,0
2276,40035,0
2272,40016,0
2288,40018,0
2296,40036,0
2292,40006,0
2314,40025,0
2316,40040,0
2320,40014,0
2324,40009,0
2336,40026,0
2336,40025,0
2330,40014,0
2328,40041,0
2320,40006,0
2308,40013,0
2296,40048,0
2280,40021,0
2272,40002,0
2256,40035,0
2240,40023,0
2240,40012,0
2233,40041,0
2240,40013,0
2256,39994,0
2256,40050,0
2264,40012,0
2280,39991,0
2284,40029,0
2304,40015,0
2313,40025,0
2320,40039,0
2336,40030,0
2324,40006,0
2320,39997,0
2312,40048,0
2296,40018,0
2288,39997,0
2284,40033,0
2272,40027,0
2276,40027,0
2266,40044,0
2272,40013,0
2260,40023,0
2260,40049,0
2264,40026,0
2280,40030,0
2272,40031,0
2280,40027,0
2280,40044,0
2290,40041,0
2280,40017,0
2280,40009,0
2273,40027,0
2280,40025,0
2264,40040,0
2266,40019,0
2260,40021,0
2261,40042,0
2256,40029,0
2264,40028,0
2256,40027,0
2264,40020,0
2272,40027,0
2272,40008,0
2296,40023,0
2300,39995,0
2304,40034,0
2312,40027,0
2328,39998,0
2322,40043,0
2328,40008,0
2320,40015,0
2328,40046,0
2312,40032,0
2304,40009,0
2288,40030,0
2288,40036,0
2268,40014,0
2256,40056,0
2248,40028,0
2248,40013,0
2244,40062,0
2244,40026,0
2248,40007,0
2250,40047,0
2272,40023,0
2272,40015,0
2292,40054,0
2296,40027,0
2298,39996,0
2304,40050,0
2302,40019,0
2320,40027,0
2314,40039,0
2312,40026,0
2320,40039,0
2304,40036,0
2298,39998,0
2290,40042,0
2288,40017,0
2280,40023,0
2272,40039,0
2276,40027,0
2280,40014,0
2292,40056,0
2284,40033,0
2288,40003,0
2280,40046,0
2288,40022,0
2280,40013,0
2272,40052,0
2320,40029,0
2264,40006,0
2260,40037,0
2244,40042,0
2240,40015,0
2224,40051,0
2224,40019,0
2220,40017,0
2224,40054,0
2228,40026,0
2237,40012,0
2256,40056,0
2250,40043,0
2272,40034,0
2288,40032,0
2300,40025,0
2312,40036,0
2324,40068,0
2344,40032,0
2344,40052,0
2344,40023,0
2344,40025,0
2336,40058,0
2328,40044,0
2312,40003,0
2304,40058,0
2288,40031,0
2280,40030,0
2280,40047,0
2264,40033,0
2264,40006,0
2260,40061,0
2268,40042,0
2264,40040,0
2273,40046,0
2284,40025,0
2282,40059,0
2280,40044,0
2288,40031,0
2304,40047,0
2292,40036,0
2290,40049,0
2296,40055,0
2296,40024,0
2289,40033,0
2292,40040,0
2288,40052,0
2288,40054,0
2288,40051,0
2292,40029,0
2296,40061,0
2304,40035,0
2308,40036,0
2320,40048,0
2340,40031,0
2336,40042,0
2344,40063,0
2344,40039,0
2344,40017,0
2336,40065,0
2336,40046,0
2412,40020,0
2316,40062,0
2304,40019,0
2292,40039,0
2284,40079,0
2272,40048,0
2256,40045,0
2252,40058,0
2244,40050,0
2258,40053,0
2256,40052,0
2264,40039,0
2280,40058,0
2292,40083,0
2300,40046,0
2308,40059,0
2320,40031,0
2336,40067,0
2340,40069,0
2336,40037,0
2336,40045,0
2328,40058,0
2324,40052,0
2304,40050,0
2298,40064,0
2290,40054,0
2336,40035,0
2276,40083,0
2272,40050,0
2272,40045,0
2260,40062,0
2266,40057,0
2264,40050,0
2272,40074,0
2268,40063,0
2264,40051,0
2272,40075,0
2266,40067,0
2280,40050,0
2272,40072,0
2256,40054,0
2260,40059,0
2248,40081,0
2256,40052,0
2248,40055,0
2244,40074,0
2248,40059,0
2260,40058,0
2256,40054,0
2258,40039,0
2274,40050,0
2280,40078,0
2292,40079,0
2312,40034,0
2322,40071,0
2324,40066,0
2330,40054,0
2336,40093,0
2328,40051,0
2328,40046,0
2312,40096,0
2304,40065,0
2288,40051,0
2280,40064,0
2260,40047,0
2258,40084,0
2248,40078,0
2228,40055,0
2228,40069,0
2232,40079,0
2226,40078,0
2240,40082,0
2232,40065,0
2252,40051,0
2256,40085,0
2260,40071,0
2272,40061,0
2280,40082,0
2277,40059,0
2288,40064,0
2288,40058,0
2282,40069,0
2288,40052,0
2281,40072,0
2276,40081,0
2268,40075,0
2264,40059,0
2314,40056,0
2272,40089,0
2272,40070,0
2272,40058,0
2288,40087,0
2280,40055,0
2272,40061,0
2280,40098,0
2288,40064,0
2274,40053,0
2272,40073,0
2264,40075,0
2244,40072,0
2240,40078,0
2224,40069,0
2208,40062,0
2194,40101,0
2196,40061,0
2192,40060,0
2187,40080,0
2202,40073,0
2228,40050,0
2240,40091,0
2264,40063,0
2296,40040,0
2332,40069,0
2336,40069,0
2424,40068,0
2468,40067,0
2522,40064,0
2568,40061,0
2624,40084,0
2672,40076,0
2704,40050,0
2744,40094,0
2788,40079,0
2828,40055,0
2856,40084,0
2896,40064,0
2928,40065,0
2968,40102,0
2986,40072,0
3010,40047,0
3028,40081,0
3040,40087,0
3032,40062,0
3016,40087,0
2968,40069,0
2928,40055,0
2880,40101,0
2824,40076,0
2752,40060,0
2696,40097,0
2612,40084,0
2544,40081,0
2468,40086,0
2392,40077,0
2324,40048,0
2272,40094,0
2208,40071,0
2160,40071,0
2120,40080,0
2112,40071,0
2068,40101,0
2036,40088,0
2024,40071,0
2009,40077,0
1986,40089,0
1964,40082,0
1952,40080,0
1920,40100,0
1904,40075,0
1882,40087,0
1868,40096,0
1844,40077,0
1824,40094,0
1804,40083,0
1761,40090,0
1748,40097,0
1721,40089,0
1716,40083,0
1690,40091,0
1680,40102,0
1680,40076,0
1672,40095,0
1676,40073,0
1676,40073,0
1672,40093,0
1652,40122,0
1640,40098,0
1632,40062,0
1616,40105,0
1594,40103,0
1576,40077,0
1532,40057,0
1508,40093,0
1484,40086,0
1456,40070,0
1432,40098,0
1410,40073,0
1392,40069,0
1376,40117,0
1353,40090,0
1344,40070,0
1332,40099,0
1308,40084,0
1301,40065,0
1280,40113,0
1260,40075,0
1244,40065,0
1236,40121,0
1201,40093,0
1177,40074,0
1170,40113,0
1136,40075,0
1112,40078,0
1112,40123,0
1088,40083,0
1070,40069,0
1045,40108,0
1032,40122,0
1020,40075,0
1016,40067,0
1000,40095,0
1000,40116,0
988,40084,0
976,40090,0
960,40106,0
944,40075,0
922,40093,0
896,40108,0
866,40085,0
837,40079,0
810,40115,0
768,40099,0
740,40069,0
710,40106,0
679,40084,0
622,40087,0
621,40127,0
600,40088,0
572,40099,0
548,40101,0
531,40102,0
512,40115,0
495,40106,0
485,40097,0
468,40107,0
464,40125,0
455,40096,0
430,40122,0
402,40107,0
372,40096,0
352,40105,0
317,40122,0
286,40115,0
259,40077,0
232,40099,0
208,40095,0
193,40121,0
164,40088,0
142,40094,0
124,40121,0
106,40107,0
86,40086,0
68,40119,0
40,40094,0
29,40106,0
7,40127,0
0,40096,0
0,40091,0
0,40130,0
0,40106,0
0,40088,0
0,40133,0
0,40094,0
0,40091,0
0,40135,0
0,40105,0
0,40076,0
0,40126,0
0,40111,0
0,40087,0
0,40131,0
0,40106,0
0,40110,0
0,40128,0
0,40112,0
0,40119,0
0,40104,0
0,40136,0
0,40135,0
0,40116,0
0,40136,0
0,40120,0
0,40116,0
0,40136,0
0,40122,0
0,40110,0
0,40112,0
0,40150,0
0,40112,0
0,40108,0
0,40136,0
0,40117,0
0,40120,0
0,40142,0
0,40119,0
0,40099,0
0,40135,0
0,40127,0
0,40121,0
0,40136,0
0,40123,0
0,40140,0
0,40144,0
0,40098,0
0,40121,0
0,40112,0
0,40149,0
0,40124,0
0,40121,0
0,40104,0
0,40150,0
0,40122,0
0,40102,0
0,40138,0
0,40122,0
0,40114,0
0,40153,0
0,40119,0
0,40116,0
0,40138,0
0,40130,0
0,40117,0
0,40148,0
0,40120,0
0,40116,0
0,40172,0
0,40129,0
0,40113,0
0,40149,0
0,40136,0
0,40135,0
0,40147,0
0,40117,0
0,40111,0
0,40169,0
0,40125,0
0,40133,0
0,40122,0
0,40122,0
0,40141,0
0,40127,0
0,40121,0
0,40143,0
0,40128,0
0,40130,0
0,40141,0
0,40124,0
113,40101,0
0,40150,0
0,40127,0
0,40118,0
0,40135,0
0,40117,0
0,40121,0
0,40141,0
0,40111,0
0,40108,0
0,40142,0
0,40125,0
0,40106,0
0,40136,0
0,40105,0
0,40101,0
0,40143,0
0,40115,0
0,40088,0
0,40123,0
0,40134,0
0,40117,0
0,40103,0
0,40115,0
0,40110,0
0,40106,0
0,40089,0
0,40119,0
0,40087,0
0,40088,0
0,40128,0
0,40091,0
0,40079,0
0,40119,0
0,40101,0
0,40089,0
0,40124,0
0,40081,0
0,40063,0
0,40111,0
0,40088,0
0,40086,0
0,40088,0
0,40083,0
0,40111,0
0,40101,0
0,40085,0
0,40067,0
0,40088,0
0,40080,0
0,40070,0
0,40097,0
0,40065,0
0,40068,0
0,40067,0
0,40073,0
0,40087,0
0,40057,0
0,40067,0
0,40081,0
0,40056,0
0,40042,0
0,40077,0
0,40065,0
0,40036,0
0,40069,0
0,40035,0
0,40036,0
0,40062,0
0,40042,0
0,40032,0
0,40060,0
0,40047,0
0,40057,0
0,40063,0
0,40022,0
0,40048,0
0,40060,0
0,40031,0
0,40049,0
0,40035,0
0,40020,0
0,40048,0
0,40044,0
0,40031,0
0,40001,0
0,40023,0
28,40031,0
0,40013,0
0,40042,0
0,40018,0
0,40018,0
0,40045,0
0,40010,0
0,40008,0
0,40036,0
0,40034,0
0,39995,0
0,40032,0
0,40007,0
0,40004,0
0,40041,0
0,40014,0
0,39989,0
0,40033,0
0,40017,0
0,40001,0
0,40039,0
0,40009,0
0,40001,0
0,40037,0
0,40011,0
0,40004,0
0,40025,0
0,40005,0
0,39994,0
0,40013,0
0,40013,0
0,39979,0
0,40005,0
0,40020,0
0,39996,0
0,39984,0
0,40012,0
0,40005,0
0,39978,0
0,40017,0
0,39982,0
0,39975,0
0,40021,0
0,39993,0
0,39969,0
0,40018,0
0,39987,0
0,40000,0
0,40011,0
0,39988,0
0,39998,0
0,39997,0
0,39997,0
0,39999,0
0,39991,0
0,39981,0
0,40022,0
0,39988,0
0,39982,0
0,39996,0
0,39994,0
2,39989,0
24,39973,0
43,39974,0
59,39996,0
76,40012,0
82,39986,0
89,39969,0
114,39996,0
124,39965,0
128,39969,0
144,40004,0
160,39969,0
176,39954,0
192,39997,0
194,39984,0
215,39949,0
226,39984,0
246,39966,0
256,39960,0
273,39995,0
282,39972,0
291,39955,0
306,39983,0
314,39976,0
316,39966,0
338,39996,0
328,39973,0
354,39950,0
380,40004,0
399,39967,0
410,39946,0
420,39951,0
448,39973,0
462,39970,0
482,39952,0
508,39969,0
526,39982,0
540,39963,0
557,39947,0
562,39987,0
574,39950,0
577,39931,0
589,39975,0
578,39960,0
579,39922,0
572,39971,0
580,39952,0
572,39939,0
576,39972,0
565,39943,0
568,39947,0
579,39972,0
598,39950,0
605,39943,0
625,39969,0
646,39939,0
666,39955,0
680,39968,0
699,39951,0
728,39947,0
751,39955,0
766,39949,0
770,39939,0
768,39961,0
768,39943,0
779,39945,0
792,39965,0
806,39957,0
812,39935,0
821,39936,0
832,39955,0
845,39943,0
864,39938,0
873,39951,0
888,39927,0
900,39945,0
912,39963,0
940,39931,0
938,39935,0
944,39954,0
946,39942,0
944,39931,0
944,39951,0
952,39930,0
944,39930,0
941,39964,0
944,39922,0
950,39929,0
964,39943,0
970,39929,0
985,39933,0
1002,39944,0
1026,39928,0
1056,39922,0
1064,39962,0
1088,39930,0
1104,39935,0
1124,39933,0
1130,39919,0
1145,39966,0
1160,39912,0
1176,39955,0
1168,39922,0
1160,39915,0
1170,39964,0
1162,39926,0
1162,39905,0
1158,39945,0
1160,39933,0
1160,39903,0
1170,39945,0
1184,39921,0
1242,39913,0
1204,39954,0
1208,39931,0
1217,39911,0
1232,39947,0
1252,39925,0
1268,39931,0
1269,39955,0
1292,39931,0
1302,39918,0
1302,39960,0
1320,39934,0
1324,39934,0
1342,39945,0
1336,39909,0
1348,39960,0
1353,39928,0
1354,39927,0
1392,39913,0
1400,39934,0
1412,39943,0
1436,39920,0
1464,39948,0
1468,39916,0
1485,39913,0
1504,39955,0
1572,39923,0
1520,39912,0
1512,39947,0
1520,39932,0
1520,39927,0
1512,39952,0
1506,39934,0
1510,39919,0
1510,39955,0
1504,39922,0
1504,39916,0
1504,39941,0
1512,39922,0
1526,39944,0
1540,39938,0
1556,39922,0
1572,39928,0
1592,39953,0
1620,39936,0
1624,39943,0
1632,39938,0
1648,39940,0
1652,39957,0
1664,39922,0
1665,39932,0
1672,39936,0
1692,39897,0
1680,39952,0
1674,39925,0
1672,39906,0
1677,39944,0
1689,39920,0
1698,39921,0
1708,39947,0
1705,39918,0
1720,39885,0
1744,39952,0
1744,39932,0
1746,39907,0
1760,39950,0
1760,39922,0
1760,39929,0
1756,39950,0
1760,39923,0
1756,39911,0
1760,39940,0
1760,39928,0
1768,39921,0
1770,39934,0
1772,39908,0
1790,39913,0
1802,39944,0
1808,39926,0
1824,39917,0
1833,39919,0
1852,39922,0
1868,39946,0
1880,39941,0
1888,39910,0
1908,39893,0
1904,39951,0
1920,39923,0
1916,39891,0
1920,39933,0
1898,39907,0
1908,39930,0
1896,39945,0
1888,39912,0
1881,39899,0
1876,39952,0
1884,39932,0
1892,39907,0
1884,39931,0
1908,39901,0
1904,39910,0
1920,39951,0
1928,39906,0
1944,39894,0
1968,39935,0
1980,39930,0
1978,39901,0
1984,39944,0
2013,39910,0
2004,39904,0
2010,39948,0
2024,39907,0
2024,39903,0
1952,39903,0
2028,39915,0
2032,39944,0
2040,39907,0
2058,39896,0
2066,39923,0
2080,39919,0
2096,39900,0
2112,39934,0
2120,39911,0
2132,39878,0
2144,39952,0
2160,39913,0
2152,39892,0
2146,39931,0
2148,39907,0
2144,39912,0
2136,39939,0
2132,39911,0
2124,39880,0
2120,39939,0
2120,39913,0
2116,39893,0
2124,39929,0
2122,39908,0
2130,39913,0
2144,39927,0
2160,39907,0
2178,39883,0
2192,39923,0
2220,39926,0
2228,39915,0
2232,39919,0
2240,39920,0
2240,39919,0
2240,39908,0
2241,39926,0
2236,39910,0
2226,39877,0
2208,39937,0
2208,39921,0
2200,39885,0
2204,39936,0
2201,39915,0
2200,39910,0
2208,39936,0
2208,39912,0
2220,39902,0
2224,39932,0
2228,39918,0
2240,39906,0
2240,39933,0
2244,39916,0
2252,39928,0
2272,39943,0
2260,39914,0
2260,39927,0
2256,39913,0
2256,39928,0
2261,39937,0
2258,39912,0
2260,39923,0
2256,39930,0
2256,39908,0
2256,39920,0
2264,39923,0
2272,39921,0
2290,39916,0
2288,39937,0
2304,39931,0
2313,39919,0
2312,39914,0
2312,39945,0
2322,39922,0
2304,39924,0
2308,39930,0
2304,39910,0
2280,39940,0
2278,39933,0
2276,39919,0
2272,39924,0
2257,39928,0
2268,39918,0
2276,39937,0
2288,39930,0
2288,39914,0
2304,39932,0
2320,39938,0
2332,39917,0
2338,39935,0
2372,39919,0
2372,39921,0
2376,39939,0
2380,39914,0
2384,39920,0
2384,39914,0
2380,39949,0
2368,39930,0
2362,39912,0
2356,39935,0
2352,39912,0
2348,39927,0
2338,39933,0
2344,39918,0
2356,39895,0
2360,39956,0
2354,39928,0
2360,39914,0
2376,39950,0
2376,39916,0
2376,39929,0
2376,39939,0
2376,39919,0
2372,39934,0
2376,39913,0
2368,39928,0
2368,39939,0
2360,39936,0
2356,39909,0
2360,39943,0
2354,39943,0
2360,39923,0
2376,39961,0
2385,39929,0
2388,39932,0
2416,39942,0
2420,39944,0
2440,39941,0
2460,39914,0
2480,39951,0
2496,39927,0
2496,39946,0
2500,39922,0
2496,39917,0
2496,39960,0
2496,39926,0
2488,39925,0
2472,39948,0
2464,39933,0
2456,39925,0
2456,39954,0
2448,39934,0
2436,39910,0
2440,39964,0
2432,39928,0
2436,39916,0
2432,39950,0
2442,39923,0
2448,39926,0
2444,39960,0
2460,39933,0
2456,39909,0
2456,39963,0
2450,39948,0
2458,39920,0
2464,39956,0
2464,39931,0
2468,39951,0
2464,39964,0
2468,39926,0
2472,39958,0
2480,39928,0
2484,39966,0
2492,39932,0
2488,39939,0
2504,39965,0
2520,39940,0
2516,39938,0
2528,39957,0
2538,39939,0
2536,39923,0
2538,39968,0
2544,39943,0
2568,39928,0
2520,39965,0
2516,39940,0
2496,39941,0
2496,39965,0
2472,39936,0
2464,39929,0
2452,39964,0
2456,39949,0
2456,39929,0
2456,39974,0
2464,39939,0
2472,39928,0
2480,39976,0
2492,39942,0
2500,39928,0
2506,39933,0
2508,39952,0
2522,39953,0
2516,39963,0
2520,39947,0
2512,39937,0
2504,39960,0
2496,39980,0
2484,39942,0
2472,39950,0
2472,39966,0
2456,39954,0
2448,39961,0
2456,39968,0
2444,39953,0
2452,39962,0
2450,39978,0
2468,39956,0
2466,39958,0
2480,39960,0
2496,39957,0
2490,39976,0
2500,39967,0
2496,39951,0
2496,39971,0
2488,39966,0
2496,39954,0
2484,39981,0
2472,39965,0
2480,39958,0
2476,39979,0
2472,39971,0
2484,39951,0
2488,39970,0
2504,39947,0
2512,39963,0
2516,39959,0
2528,39957,0
2540,39968,0
2538,39969,0
2552,39956,0
2552,39977,0
2546,39956,0
2556,39955,0
2544,39987,0
2609,39965,0
2532,39959,0
2520,39993,0
2496,39979,0
2484,39975,0
2468,39990,0
2464,39977,0
2464,39957,0
2457,39987,0
2464,39992,0
2464,39962,0
2464,39974,0
2473,39973,0
2496,39975,0
2497,39973,0
2504,39992,0
2520,39961,0
2512,39957,0
2528,40006,0
2536,39980,0
2532,39966,0
2528,39956,0
2528,39980,0
2520,39987,0
2504,39966,0
2496,39994,0
2528,39978,0
2472,39973,0
2464,39991,0
2464,39981,0
2452,39962,0
2452,39981,0
2456,39985,0
2444,39980,0
2452,39982,0
2440,39985,0
2441,39960,0
2440,40006,0
2424,39983,0
2424,39979,0
2402,39985,0
2400,39991,0
2400,39981,0
2392,39992,0
2386,39975,0
2400,39972,0
2410,40005,0
2416,39972,0
2436,39974,0
2460,40001,0
2492,39970,0
2520,39977,0
2560,39976,0
2616,39967,0
2656,39989,0
2700,39977,0
2756,39991,0
2800,40001,0
2832,39987,0
2881,39969,0
2912,40003,0
2944,39994,0
2976,39978,0
3016,40005,0
3040,39971,0
3068,39989,0
3092,40003,0
3104,39971,0
3128,39978,0
3136,40003,0
3120,39993,0
3128,39973,0
3104,39999,0
3044,39968,0
3008,39987,0
2954,40021,0
2900,39985,0
2842,39988,0
2784,39988,0
2724,39982,0
2656,39987,0
2588,40012,0
2468,40015,0
2410,39980,0
2368,40018,0
2330,40012,0
2304,39997,0
2280,40003,0
2264,39983,0
2264,40004,0
2248,40011,0
2256,39989,0
2248,39979,0
2248,40011,0
2248,39989,0
2248,39987,0
2250,40011,0
2248,39974,0
2240,39978,0
2232,40021,0
2226,39990,0
2216,39969,0
2202,40016,0
2201,39996,0
2194,39983,0
2194,40010,0
2200,39993,0
2202,39977,0
2218,40050,0
2228,39996,0
2240,39974,0
2256,40012,0
2268,40005,0
2284,39989,0
2312,40015,0
2328,40002,0
2336,39987,0
2352,40011,0
2360,40018,0
2356,39992,0
2368,39995,0
2354,40014,0
2352,40009,0
2352,39995,0
2352,40014,0
2340,39995,0
2342,40003,0
2336,40030,0
2346,39998,0
2340,40002,0
2348,40021,0
2360,40012,0
2368,40009,0
2368,40028,0
2376,40004,0
2384,40003,0
2386,40050,0
2388,40003,0
2388,40019,0
2384,40018,0
2386,40006,0
2388,40019,0
2376,40032,0
2376,40013,0
2370,39993,0
2360,40045,0
2376,40028,0
2376,40024,0
2368,40015,0
2368,40019,0
2370,39993,0
2388,40021,0
2396,40039,0
2400,40012,0
2402,40009,0
2400,40044,0
2401,40015,0
2408,40003,0
2404,40039,0
2384,40018,0
2376,40014,0
2370,40047,0
2356,40007,0
2348,40010,0
2340,40046,0
2344,40020,0
2340,40014,0
2336,40040,0
2336,40007,0
2336,40024,0
2345,40043,0
2352,40012,0
2368,40014,0
2376,40046,0
2376,40031,0
2392,40028,0
2392,40042,0
2396,40019,0
2386,40025,0
2384,40036,0
2378,40026,0
2361,40023,0
2360,40016,0
2344,40058,0
2336,40031,0
2344,40003,0
2348,40044,0
2344,40019,0
2352,40023,0
2360,40058,0
2372,40024,0
2376,40013,0
2384,40059,0
2400,40044,0
2400,40026,0
2400,40054,0
2393,40024,0
2380,40016,0
2372,40068,0
2370,40027,0
2352,40022,0
2336,40059,0
2322,40046,0
2308,40027,0
2304,40057,0
2304,40034,0
2288,40019,0
2300,40068,0
2296,40042,0
2292,40027,0
2320,40040,0
2324,40035,0
2330,40052,0
2338,40039,0
2346,40045,0
2352,40047,0
2360,40051,0
2348,40045,0
2344,40066,0
2348,40032,0
2336,40045,0
2320,40077,0
2300,40041,0
2288,40063,0
2288,40062,0
2276,40038,0
2264,40076,0
2256,40066,0
2260,40047,0
2252,40061,0
2256,40073,0
2250,40056,0
2260,40075,0
2260,40057,0
2264,40043,0
2272,40085,0
2264,40065,0
2272,40063,0
2272,40079,0
2274,40048,0
2272,40069,0
2266,40081,0
2256,40062,0
2258,40081,0
2248,40066,0
2252,40082,0
2256,40058,0
2248,40054,0
2264,40041,0
2266,40080,0
2272,40068,0
2282,40045,0
2288,40085,0
2288,40060,0
2288,40058,0
2304,40075,0
2280,40061,0
2276,40044,0
2268,40076,0
2256,40070,0
2320,40040,0
2220,40089,0
2208,40056,0
2200,40052,0
2184,40096,0
2176,40068,0
2168,40053,0
2168,40079,0
2178,40068,0
2176,40071,0
2180,40085,0
2192,40071,0
2214,40055,0
2216,40105,0
2234,40079,0
2232,40081,0
2232,40057,0
2234,40066,0
2242,40086,0
2241,40073,0
2240,40088,0
2240,40059,0
2232,40083,0
2228,40096,0
2216,40073,0
2212,40073,0
2264,40089,0
2208,40081,0
2216,40072,0
2228,40089,0
2224,40053,0
2232,40063,0
2236,40102,0
2233,40065,0
2240,40052,0
2233,40087,0
2232,40065,0
2224,40066,0
2224,40084,0
2224,40067,0
2208,40058,0
2196,40093,0
2194,40068,0
2196,40058,0
2192,40076,0
2208,40055,0
2216,40097,0
2216,40071,0
2220,40052,0
2240,40069,0
2256,40085,0
2264,40065,0
2266,40075,0
2284,40061,0
2292,40049,0
2292,40072,0
2296,40070,0
2288,40043,0
2284,40065,0
2272,40052,0
2256,40050,0
2240,40060,0
2224,40066,0
2218,40052,0
2208,40040,0
2192,40066,0
2188,40036,0
2188,40048,0
2194,40051,0
2196,40043,0
2200,40055,0
2216,40051,0
2228,40029,0
2234,40045,0
2240,40039,0
2248,40048,0
2248,40054,0
2258,40032,0
2245,40017,0
2248,40042,0
2250,40057,0
2244,40000,0
2244,40014,0
2234,39993,0
2240,40047,0
2242,40017,0
2236,40010,0
2340,40030,0
2248,40013,0
2260,40014,0
2266,40030,0
2276,40012,0
2288,40017,0
2296,40033,0
2280,40005,0
2289,40005,0
2280,40030,0
2272,39992,0
2272,40000,0
2260,40025,0
2228,39994,0
2228,39978,0
2209,40019,0
2200,40001,0
2196,39979,0
2196,40024,0
2184,39986,0
2184,39992,0
2188,40022,0
2212,39996,0
2228,39984,0
2234,40011,0
2240,40005,0
2250,40002,0
2248,39989,0
2250,39987,0
2258,40012,0
2240,39994,0
2240,39995,0
2224,40006,0
2212,39986,0
2208,39981,0
2208,40003,0
2192,39985,0
2192,39980,0
2176,39990,0
2188,39988,0
2192,39987,0
2188,39998,0
2185,39989,0
2208,39974,0
2200,40005,0
2208,39983,0
2208,39978,0
2212,39985,0
2212,39984,0
2209,39984,0
2226,39996,0
2228,39969,0
2230,39963,0
2224,39995,0
2224,39962,0
2224,39984,0
2232,39977,0
2232,39972,0
2228,39988,0
2232,39971,0
2252,39972,0
2248,39990,0
2264,39956,0
2264,39983,0
2272,39992,0
2280,39955,0
2272,39967,0
2268,39988,0
2276,39975,0
2272,39960,0
2264,39995,0
2250,39942,0
2240,39958,0
2228,39996,0
2224,39963,0
2209,39964,0
2196,39982,0
2208,39972,0
2200,39958,0
2200,39986,0
2200,39962,0
2216,39960,0
2216,39995,0
2230,39959,0
2244,39964,0
2250,39979,0
2296,39962,0
2264,39968,0
2272,39969,0
2280,39981,0
2264,39969,0
2264,39969,0
2252,39969,0
2244,39979,0
2240,39946,0
2232,39953,0
2232,39997,0
2232,39966,0
2240,39956,0
2240,39971,0
2250,39960,0
2256,39964,0
2264,39980,0
2268,39951,0
2280,39946,0
2282,39982,0
2280,39961,0
2282,39953,0
2276,39979,0
2272,39939,0
2264,39957,0
2256,39979,0
2249,39952,0
2250,39951,0
2232,39974,0
2238,39961,0
2232,39949,0
2217,39983,0
2224,39938,0
2234,39980,0
2228,39987,0
2240,39963,0
2240,39966,0
2258,39956,0
2252,39971,0
2260,39973,0
2256,39957,0
2256,39964,0
2244,39979,0
2240,39973,0
2232,39959,0
2228,39978,0
2224,39955,0
2220,39957,0
2216,39986,0
2204,39953,0
2202,39959,0
2208,39964,0
2196,39962,0
2208,39950,0
2210,39966,0
2216,39953,0
2230,39947,0
2240,39992,0
2248,39953,0
2266,39943,0
2272,39968,0
2284,39951,0
2280,39950,0
2280,39975,0
2288,39968,0
2288,39969,0
2280,39959,0
2264,39984,0
2256,39951,0
2244,39951,0
2240,39951,0
2244,39983,0
2228,39962,0
2240,39955,0
2224,39973,0
2220,39949,0
2224,39973,0
2220,39981,0
2228,39949,0
2228,39949,0
2220,39976,0
2220,39971,0
2226,39959,0
2212,39974,0
2208,39952,0
2200,39961,0
2192,39991,0
2185,39967,0
2176,39957,0
2170,39974,0
2176,39960,0
2176,39964,0
2184,39983,0
2192,39959,0
2196,39955,0
2202,39994,0
2216,39961,0
2240,39958,0
2242,39976,0
2256,39993,0
2260,39951,0
2276,39959,0
2264,39956,0
2264,39984,0
2260,39965,0
2252,39953,0
2240,39985,0
2228,39970,0
2213,39961,0
2200,39998,0
2192,39961,0
2184,39955,0
2176,39981,0
2176,39976,0
2176,39980,0
2178,39990,0
2176,39967,0
2176,39966,0
2184,39981,0
2184,39968,0
2176,39971,0
2180,39991,0
2180,39961,0
2184,39978,0
2180,39995,0
2188,39966,0
2172,39970,0
2176,39982,0
2169,39993,0
2176,39981,0
2177,39959,0
2176,39980,0
2180,39971,0
2188,40003,0
2186,39967,0
2200,39955,0
2202,39990,0
2212,39972,0
2228,39961,0
2234,39989,0
2232,39968,0
2240,39948,0
2228,39996,0
2218,39961,0
2202,39953,0
2192,39992,0
2176,39968,0
2152,39959,0
2144,39984,0
2128,39962,0
2112,39948,0
2112,40001,0
2112,39959,0
2106,39954,0
2112,39991,0
2120,39961,0
2120,39958,0
2136,40005,0
2144,39967,0
2144,39951,0
2148,39972,0
2148,39977,0
2144,39959,0
2144,39972,0
2120,39950,0
2112,39988,0
2112,39976,0
2084,39974,0
2073,39986,0
2080,39963,0
2066,39970,0
2072,39999,0
2064,39975,0
2066,39963,0
2068,40000,0
2084,39979,0
2092,39975,0
2084,39996,0
2096,39966,0
2100,39963,0
2104,40001,0
2096,39976,0
2088,39970,0
2072,39992,0
2072,39966,0
2068,39984,0
2056,39985,0
2060,39974,0
2032,39960,0
2028,40002,0
2032,39969,0
2032,39966,0
2034,39972,0
2040,39963,0
2044,39981,0
2056,39994,0
2056,39975,0
2064,39981,0
2064,39962,0
2056,39983,0
2128,40003,0
2064,39970,0
2052,39966,0
2045,39984,0
2034,39965,0
2008,39964,0
2000,39991,0
1976,39961,0
1968,39967,0
1964,39997,0
1952,39971,0
1937,39948,0
1936,39990,0
1936,39969,0
1936,39955,0
1942,39994,0
1960,39967,0
1953,39951,0
1964,40006,0
1968,39968,0
1976,39947,0
1990,39996,0
1984,39973,0
1996,39985,0
1988,39994,0
1954,39978,0
1973,39972,0
1970,40006,0
1968,39980,0
1976,39966,0
1964,39991,0
1972,39961,0
1968,39977,0
1972,40000,0
1978,39969,0
1984,39961,0
1986,39998,0
1984,39980,0
1978,39963,0
1984,39996,0
1972,39975,0
1972,39959,0
1952,40010,0
1930,39968,0
1928,39956,0
1905,39999,0
1896,39986,0
1888,39962,0
1882,40000,0
1888,39979,0
1888,39961,0
1892,40014,0
1900,39973,0
1906,39959,0
1908,39996,0
1920,39996,0
1928,39995,0
1932,39986,0
1944,39993,0
1944,39966,0
1932,39986,0
1930,40006,0
1924,39980,0
1920,39979,0
1892,39996,0
1880,39981,0
1876,40000,0
1856,39998,0
1840,39978,0
1828,39978,0
1824,40010,0
1824,39984,0
1818,39976,0
1808,39993,0
1808,39991,0
1804,39988,0
1802,40008,0
1804,39980,0
1802,39976,0
1800,40021,0
1796,39991,0
1792,39979,0
1784,40015,0
1784,39982,0
1776,39993,0
1760,40015,0
1744,39983,0
1734,39996,0
1729,40001,0
1714,39998,0
1708,39983,0
1700,39986,0
1696,40007,0
1696,39999,0
1700,39976,0
1700,40016,0
1700,39994,0
1704,39972,0
1696,40017,0
1692,39998,0
1696,39976,0
1690,40014,0
1680,39990,0
1666,39986,0
1644,40018,0
1628,39990,0
1610,39983,0
1592,40023,0
1588,40005,0
1586,39992,0
1584,40012,0
1572,39997,0
1576,39983,0
1584,40030,0
1584,40004,0
1594,39985,0
1616,40024,0
1613,40010,0
1608,39987,0
1612,40017,0
1608,40019,0
1604,39990,0
1608,40027,0
1588,39993,0
1594,40002,0
1570,40020,0
1562,40007,0
1560,40013,0
1552,40027,0
1530,40000,0
1520,39994,0
1516,40038,0
1512,40011,0
1512,40006,0
1512,40030,0
1512,40002,0
1512,40019,0
1504,40033,0
1497,40007,0
1488,39986,0
1480,40025,0
1472,40024,0
1472,39988,0
1460,40040,0
1442,40004,0
1428,40002,0
1424,40048,0
1418,40010,0
1427,39994,0
1414,40034,0
1412,40023,0
1416,40013,0
1408,40012,0
1408,40024,0
1432,40016,0
1421,40019,0
1418,40030,0
1421,40011,0
1413,39995,0
1416,40035,0
1412,40023,0
1401,40000,0
1394,40029,0
1388,40007,0
1346,40016,0
1350,40046,0
1336,40017,0
1314,40002,0
1296,40033,0
1294,40025,0
1274,40012,0
1258,40037,0
1253,40020,0
1249,40014,0
1250,40052,0
1260,40018,0
1258,40010,0
1258,40037,0
1260,40020,0
1280,40014,0
1272,40044,0
1282,40023,0
1274,40001,0
1260,40027,0
1262,40043,0
1258,39999,0
1248,40027,0
1232,40019,0
1242,40071,0
1228,40033,0
1222,40011,0
1224,40052,0
1220,40030,0
1210,40027,0
1212,40043,0
1216,40022,0
1216,40008,0
1212,40061,0
1202,40037,0
1172,40012,0
1188,40056,0
1172,40032,0
1164,40021,0
1130,40067,0
1120,40025,0
1102,40016,0
1088,40056,0
1076,40044,0
1068,40036,0
1070,40055,0
1064,40030,0
1077,40034,0
1094,40080,0
1094,40047,0
1090,40033,0
1100,40028,0
1098,40060,0
1100,40039,0
1096,40037,0
1096,40079,0
1084,40037,0
1076,40050,0
1068,40063,0
1056,40036,0
1040,40053,0
1028,40083,0
1010,40057,0
994,40040,0
984,40071,0
976,40042,0
980,40059,0
969,40074,0
984,40048,0
982,40047,0
986,40062,0
984,40056,0
976,40044,0
978,40073,0
984,40042,0
980,40056,0
980,40087,0
966,40051,0
960,40060,0
954,40067,0
957,40049,0
945,40063,0
930,40082,0
933,40058,0
932,40057,0
938,40055,0
930,40080,0
940,40059,0
932,40046,0
948,40078,0
948,40066,0
960,40049,0
968,40085,0
974,40047,0
996,40043,0
1000,40095,0
1018,40063,0
1016,40051,0
1024,40080,0
1036,40062,0
1056,40049,0
1076,40092,0
1100,40064,0
1132,40051,0
1184,40094,0
1232,40069,0
1284,40069,0
1352,40087,0
1404,40058,0
1472,40066,0
1548,40091,0
1624,40069,0
1696,40054,0
1760,40097,0
1820,40091,0
1876,40087,0
1912,40092,0
1952,40080,0
1980,40080,0
1969,40098,0
1968,40065,0
1936,40063,0
1892,40087,0
1873,40093,0
1844,40081,0
1808,40088,0
1766,40060,0
1728,40070,0
1688,40103,0
1640,40074,0
1600,40074,0
1540,40083,0
1492,40077,0
1444,40075,0
1400,40096,0
1352,40066,0
1313,40059,0
1272,40100,0
1221,40076,0
1186,40067,0
1144,40107,0
1108,40074,0
1076,40074,0
1056,40102,0
1040,40077,0
1024,40053,0
980,40077,0
972,40100,0
970,40095,0
966,40078,0
960,40084,0
956,40081,0
948,40119,0
936,40081,0
934,40063,0
918,40095,0
908,40096,0
892,40082,0
882,40118,0
864,40083,0
858,40070,0
840,40126,0
832,40087,0
834,40082,0
834,40100,0
820,40088,0
824,40106,0
842,40107,0
846,40083,0
861,40078,0
878,40109,0
880,40097,0
892,40100,0
904,40099,0
938,40085,0
944,40108,0
946,40106,0
953,40095,0
944,40095,0
960,40083,0
952,40108,0
956,40084,0
880,40080,0
970,40070,0
978,40113,0
986,40100,0
996,40072,0
1010,40119,0
1024,40084,0
1032,40079,0
1042,40125,0
1056,40098,0
1061,40085,0
1060,40120,0
1076,40105,0
1082,40079,0
1064,40121,0
1070,40091,0
1056,40077,0
1064,40123,0
1064,40095,0
1061,40075,0
1065,40113,0
1076,40108,0
1080,40093,0
1097,40131,0
1120,40092,0
1145,40081,0
1158,40129,0
1168,40109,0
1180,40095,0
1196,40094,0
1216,40114,0
1232,40119,0
1241,40103,0
1252,40101,0
1254,40103,0
1260,40122,0
1248,40097,0
1244,40104,0
1248,40128,0
1236,40098,0
1234,40116,0
1232,40134,0
1238,40105,0
1240,40100,0
1248,40120,0
1256,40116,0
1265,40090,0
1264,40134,0
1280,40109,0
1289,40096,0
1290,40131,0
1300,40112,0
1308,40097,0
1304,40126,0
1312,40115,0
1316,40102,0
1334,40130,0
1345,40109,0
1334,40088,0
1341,40142,0
1348,40109,0
1466,40130,0
1376,40102,0
1376,40123,0
1389,40120,0
1408,40113,0
1425,40125,0
1444,40128,0
1456,40108,0
1480,40124,0
1496,40145,0
1504,40117,0
1508,40094,0
1508,40147,0
1508,40125,0
1514,40112,0
1500,40142,0
1496,40128,0
1488,40122,0
1496,40152,0
1496,40132,0
1489,40104,0
1492,40141,0
1510,40131,0
1520,40111,0
1536,40145,0
1552,40119,0
1569,40117,0
1588,40162,0
1610,40124,0
1624,40117,0
1636,40150,0
1636,40165,0
1644,40118,0
1648,40137,0
1652,40115,0
1649,40124,0
1660,40144,0
1660,40152,0
1665,40126,0
1664,40129,0
1676,40149,0
1692,40145,0
1704,40137,0
1704,40149,0
1736,40125,0
1744,40135,0
1776,40166,0
1776,40121,0
1794,40141,0
1800,40159,0
1800,40137,0
1812,40146,0
1817,40169,0
1812,40132,0
1812,40140,0
1818,40165,0
1813,40144,0
1816,40148,0
1820,40173,0
1826,40148,0
1837,40162,0
1842,40166,0
1848,40140,0
1864,40144,0
1880,40164,0
1882,40160,0
1892,40154,0
1912,40151,0
1922,40154,0
1928,40139,0
1936,40180,0
1936,40150,0
1944,40146,0
1938,40180,0
1932,40158,0
1929,40139,0
1929,40180,0
1920,40139,0
1920,40147,0
1920,40187,0
1928,40146,0
1944,40142,0
1944,40173,0
1952,40163,0
1980,40142,0
1993,40177,0
2008,40144,0
2028,40141,0
2040,40190,0
2052,40156,0
2068,40143,0
2080,40183,0
2088,40162,0
2101,40149,0
2092,40175,0
2096,40176,0
2104,40176,0
2096,40154,0
2096,40159,0
2100,40176,0
2112,40154,0
2112,40139,0
2128,40196,0
2144,40157,0
2152,40142,0
2168,40176,0
2184,40151,0
2200,40139,0
2208,40169,0
2212,40148,0
2212,40139,0
2208,40176,0
2208,40154,0
2260,40123,0
2196,40178,0
2192,40134,0
2176,40136,0
2164,40176,0
2160,40138,0
2164,40115,0
2148,40169,0
2164,40145,0
2168,40132,0
2176,40160,0
2188,40132,0
2198,40117,0
2212,40175,0
2224,40112,0
2232,40129,0
2240,40134,0
2248,40130,0
2257,40136,0
2256,40154,0
2260,40133,0
2260,40127,0
2248,40161,0
2240,40135,0
2232,40131,0
2224,40143,0
2218,40120,0
2216,40141,0
2208,40138,0
2208,40139,0
2218,40117,0
2216,40145,0
2224,40138,0
2232,40124,0
2240,40143,0
2240,40131,0
2240,40129,0
2234,40143,0
2232,40126,0
2240,40112,0
2240,40122,0
2240,40155,0
2228,40118,0
2226,40116,0
2228,40127,0
2232,40104,0
2224,40101,0
2224,40135,0
2226,40112,0
2240,40100,0
2232,40099,0
2244,40128,0
2272,40100,0
2268,40075,0
2284,40111,0
2296,40112,0
2284,40086,0
2288,40116,0
2280,40097,0
2280,40073,0
2272,40130,0
2300,40096,0
2240,40081,0
2232,40114,0
2216,40088,0
2208,40093,0
2208,40127,0
2208,40092,0
2200,40069,0
2200,40120,0
2210,40097,0
2213,40078,0
2288,40119,0
2240,40088,0
2244,40079,0
2256,40115,0
2258,40086,0
2264,40090,0
2256,40111,0
2256,40096,0
2256,40090,0
2240,40096,0
2240,40083,0
2228,40101,0
2232,40120,0
2240,40090,0
2290,40087,0
2248,40102,0
2256,40089,0
2276,40073,0
2280,40104,0
2304,40080,0
2304,40068,0
2314,40125,0
2320,40091,0
2330,40071,0
2336,40105,0
2328,40078,0
2320,40081,0
2316,40111,0
2320,40080,0
2308,40061,0
2304,40113,0
2288,40085,0
2290,40069,0
2292,40102,0
2296,40070,0
2294,40083,0
2308,40113,0
2320,40091,0
2324,40099,0
2336,40096,0
2336,40093,0
2340,40077,0
2344,40087,0
2348,40085,0
2352,40095,0
2336,40080,0
2340,40071,0
2328,40112,0
2320,40068,0
2308,40061,0
2288,40118,0
2288,40085,0
2296,40067,0
2288,40103,0
2288,40099,0
2292,40062,0
2296,40106,0
2312,40081,0
2320,40052,0
2336,40105,0
2345,40072,0
2372,40050,0
2388,40094,0
2392,40076,0
2400,40067,0
2400,40101,0
2400,40068,0
2396,40062,0
2392,40103,0
2388,40091,0
2384,40090,0
2369,40068,0
2362,40068,0
2356,40105,0
2356,40059,0
2424,40095,0
2348,40071,0
2360,40056,0
2356,40109,0
2368,40079,0
2368,40062,0
2372,40084,0
2368,40077,0
2368,40071,0
2368,40100,0
2368,40076,0
2368,40049,0
2360,40109,0
2352,40073,0
2340,40059,0
2330,40099,0
2336,40072,0
2328,40073,0
2330,40095,0
2336,40084,0
2356,40056,0
2352,40099,0
2360,40080,0
2380,40074,0
2392,40086,0
2414,40062,0
2456,40093,0
2436,40077,0
2448,40077,0
2452,40057,0
2452,40061,0
2450,40072,0
2448,40073,0
2440,40084,0
2436,40060,0
2434,40074,0
2420,40108,0
2424,40062,0
2408,40068,0
2408,40080,0
2410,40063,0
2424,40080,0
2412,40090,0
2424,40059,0
2436,40058,0
2440,40083,0
2448,40068,0
2448,40071,0
2448,40082,0
2456,40061,0
2442,40072,0
2452,40082,0
2440,40064,0
2433,40059,0
2424,40086,0
2432,40070,0
2426,40068,0
2421,40076,0
2432,40058,0
2420,40083,0
2425,40057,0
2436,40065,0
2440,40077,0
2464,40053,0
2468,40050,0
2474,40079,0
2484,40062,0
2496,40043,0
2488,40083,0
2488,40062,0
2488,40051,0
2488,40075,0
2480,40044,0
2466,40048,0
2456,40092,0
2448,40066,0
2448,40038,0
2436,40090,0
2432,40054,0
2432,40046,0
2432,40079,0
2437,40053,0
2448,40038,0
2456,40092,0
2482,40073,0
2488,40048,0
2496,40083,0
2506,40058,0
2516,40063,0
2516,40076,0
2516,40048,0
2512,40059,0
2512,40074,0
2500,40066,0
2496,40064,0
2488,40088,0
2480,40063,0
2480,40072,0
2476,40099,0
2484,40053,0
2484,40069,0
2506,40074,0
2508,40072,0
2516,40066,0
2532,40074,0
2552,40057,0
2552,40058,0
2552,40095,0
2568,40075,0
2560,40065,0
2560,40042,0
2552,40098,0
2536,40076,0
2528,40054,0
2520,40082,0
2514,40055,0
2512,40056,0
2500,40096,0
2496,40063,0
2504,40034,0
2505,40083,0
2514,40075,0
2528,40068,0
2536,40055,0
2545,40066,0
2552,40085,0
2560,40086,0
2560,40079,0
2560,40070,0
2552,40053,0
2554,40071,0
2544,40085,0
2532,40059,0
2528,40054,0
2516,40085,0
2498,40071,0
2488,40052,0
2481,40077,0
2482,40055,0
2490,40064,0
2498,40093,0
2504,40062,0
2512,40043,0
2537,40066,0
2537,40059,0
2561,40056,0
2568,40084,0
2577,40050,0
2584,40036,0
2593,40094,0
2584,40064,0
2596,40053,0
2586,40086,0
2576,40058,0
2578,40059,0
2564,40068,0
2560,40080,0
2556,40054,0
2568,40093,0
2568,40069,0
2568,40050,0
2576,40069,0
2584,40067,0
2592,40068,0
2592,40074,0
2600,40084,0
2600,40054,0
2596,40058,0
2592,40084,0
2592,40047,0
2576,40055,0
2568,40081,0
2561,40049,0
2548,40058,0
2536,40082,0
2528,40059,0
2528,40044,0
2512,40086,0
2512,40061,0
2516,40035,0
2520,40083,0
2536,40039,0
2532,40051,0
2544,40078,0
2556,40053,0
2570,40029,0
2592,40053,0
2600,40084,0
2604,40061,0
2608,40057,0
2608,40067,0
2608,40060,0
2612,40080,0
2600,40069,0
2596,40063,0
2596,40055,0
2576,40080,0
2570,40055,0
2576,40067,0
2576,40073,0
2568,40056,0
2578,40062,0
2584,40078,0
2586,40049,0
2592,40054,0
2592,40081,0
2592,40057,0
2596,40046,0
2597,40076,0
2592,40045,0
2592,40039,0
2584,40097,0
2580,40044,0
2576,40028,0
2560,40079,0
2556,40069,0
2560,40044,0
2556,40084,0
2568,40070,0
2568,40047,0
2572,40071,0
2572,40052,0
2580,40047,0
2596,40041,0
2600,40065,0
2604,40069,0
2612,40050,0
2612,40068,0
2608,40052,0
2610,40055,0
2608,40080,0
2596,40067,0
2580,40048,0
2572,40045,0
2568,40089,0
2552,40062,0
2540,40030,0
2544,40080,0
2544,40060,0
2536,40055,0
2536,40086,0
2544,40059,0
2548,40037,0
2564,40084,0
2576,40064,0
2584,40041,0
2580,40069,0
2592,40046,0
2592,40057,0
2600,40075,0
2610,40074,0
2600,40047,0
2593,40057,0
2596,40044,0
2584,40060,0
2584,40053,0
2584,40079,0
2592,40054,0
2586,40056,0
2592,40087,0
2696,40059,0
2612,40039,0
2624,40079,0
2624,40061,0
2648,40045,0
2640,40079,0
2648,40048,0
2640,40050,0
2644,40090,0
2640,40059,0
2624,40037,0
2628,40074,0
2604,40070,0
2602,40045,0
2592,40078,0
2584,40050,0
2584,40054,0
2576,40091,0
2578,40054,0
2586,40043,0
2594,40074,0
2612,40075,0
2616,40073,0
2640,40061,0
2632,40056,0
2648,40058,0
2700,40070,0
2664,40054,0
2660,40081,0
2656,40053,0
2648,40046,0
2656,40101,0
2636,40057,0
2624,40050,0
2601,40076,0
2592,40059,0
2592,40057,0
2584,40092,0
2576,40065,0
2584,40042,0
2576,40094,0
2576,40062,0
2584,40058,0
2592,40077,0
2594,40056,0
2612,40063,0
2614,40089,0
2610,40056,0
2624,40051,0
2608,40083,0
2616,40081,0
2609,40046,0
2609,40084,0
2616,40058,0
2608,40062,0
2608,40090,0
2612,40087,0
2624,40081,0
2624,40055,0
2632,40100,0
2640,40078,0
2656,40063,0
2664,40087,0
2672,40072,0
2680,40065,0
2684,40095,0
2688,40064,0
2688,40053,0
2684,40100,0
2680,40075,0
2676,40060,0
2660,40087,0
2644,40055,0
2640,40080,0
2632,40097,0
2624,40065,0
2624,40062,0
2624,40088,0
2626,40074,0
2634,40062,0
2628,40095,0
2636,40059,0
2660,40058,0
2662,40095,0
2668,40065,0
2680,40064,0
2680,40067,0
2728,40084,0
2676,40072,0
2672,40085,0
2676,40092,0
2660,40063,0
2656,40061,0
2640,40095,0
2624,40074,0
2616,40043,0
2612,40099,0
2612,40079,0
2608,40064,0
2612,40098,0
2624,40064,0
2624,40059,0
2642,40110,0
2648,40074,0
2656,40060,0
2656,40088,0
2672,40079,0
2676,40054,0
2672,40101,0
2672,40074,0
2672,40046,0
2656,40104,0
2656,40077,0
2648,40065,0
2648,40095,0
2656,40073,0
2652,40066,0
2664,40068,0
2672,40089,0
2674,40059,0
2680,40080,0
2684,40091,0
2688,40083,0
2696,40076,0
2692,40087,0
2696,40085,0
2696,40081,0
2696,40086,0
2688,40106,0
2680,40077,0
2672,40099,0
2660,40108,0
2656,40077,0
2640,40064,0
2632,40112,0
2632,40090,0
2632,40081,0
2640,40093,0
2648,40062,0
2672,40082,0
2676,40113,0
2690,40080,0
2706,40056,0
2712,40110,0
2728,40086,0
2728,40055,0
2736,40102,0
2746,40077,0
2742,40061,0
2752,40106,0
2744,40073,0
2746,40084,0
2740,40077,0
2736,40094,0
2728,40080,0
2720,40075,0
2712,40093,0
2712,40064,0
2728,40077,0
2720,40112,0
2720,40073,0
2728,40078,0
2722,40096,0
2736,40084,0
2736,40085,0
2732,40112,0
2736,40080,0
2728,40081,0
2724,40116,0
2720,40085,0
2708,40084,0
2692,40099,0
2692,40096,0
2676,40100,0
2674,40106,0
2690,40089,0
2688,40081,0
2690,40123,0
2696,40087,0
2712,40086,0
2722,40116,0
2740,40116,0
2752,40102,0
2764,40095,0
2772,40101,0
2784,40084,0
2800,40089,0
2804,40121,0
2792,40088,0
2800,40085,0
2784,40111,0
2784,40090,0
2768,40098,0
2744,40113,0
2736,40084,0
2736,40086,0
2728,40124,0
2722,40085,0
2724,40086,0
2720,40119,0
2688,40092,0
2728,40088,0
2728,40124,0
2728,40090,0
2736,40085,0
2732,40116,0
2738,40099,0
2736,40078,0
2736,40115,0
2720,40082,0
2708,40094,0
2700,40124,0
2704,40100,0
2704,40104,0
2704,40106,0
2712,40100,0
2728,40101,0
2738,40078,0
2768,40114,0
2785,40099,0
2808,40099,0
2856,40127,0
2896,40089,0
2944,40079,0
2992,40132,0
3044,40113,0
3092,40094,0
3140,40127,0
3188,40098,0
3220,40101,0
3264,40138,0
3296,40101,0
3328,40098,0
3380,40112,0
3412,40115,0
3456,40121,0
3488,40117,0
3528,40100,0
3560,40115,0
3576,40140,0
3584,40102,0
3576,40092,0
3552,40130,0
3522,40116,0
3478,40090,0
3436,40120,0
3380,40120,0
3320,40102,0
3248,40119,0
3188,40137,0
3120,40098,0
3040,40086,0
2964,40130,0
2888,40118,0
2818,40092,0
2768,40129,0
2712,40098,0
2676,40106,0
2632,40137,0
2608,40105,0
2592,40112,0
2576,40121,0
2560,40122,0
2554,40098,0
2536,40144,0
2532,40100,0
2528,40091,0
2528,40152,0
2516,40112,0
2516,40095,0
2520,40130,0
2522,40114,0
2528,40126,0
2532,40136,0
2536,40118,0
2548,40111,0
2584,40113,0
2608,40095,0
2632,40129,0
2652,40106,0
2672,40112,0
2696,40110,0
2712,40154,0
2728,40113,0
2752,40088,0
2768,40149,0
2772,40137,0
2772,40107,0
2784,40152,0
2776,40109,0
2768,40103,0
2769,40151,0
2760,40118,0
2752,40099,0
2760,40124,0
2760,40131,0
2768,40117,0
2784,40147,0
2784,40130,0
2792,40114,0
2804,40152,0
2818,40125,0
2833,40113,0
2848,40148,0
2848,40137,0
2856,40115,0
2864,40151,0
2860,40129,0
2872,40113,0
2864,40147,0
2848,40135,0
2840,40144,0
2834,40141,0
2816,40139,0
2828,40144,0
2820,40116,0
2816,40150,0
2824,40134,0
2824,40126,0
2834,40159,0
2842,40133,0
2864,40122,0
2872,40156,0
2872,40143,0
2880,40134,0
2880,40153,0
2896,40131,0
2896,40130,0
2888,40163,0
2888,40136,0
2872,40120,0
2880,40158,0
2868,40136,0
2858,40140,0
2864,40160,0
2872,40144,0
2864,40123,0
2872,40158,0
2880,40154,0
2886,40127,0
2912,40136,0
2912,40156,0
2920,40188,0
2930,40161,0
2928,40139,0
2932,40134,0
2928,40140,0
2928,40176,0
2916,40137,0
2904,40132,0
2888,40165,0
2880,40142,0
2872,40143,0
2864,40167,0
2872,40148,0
2872,40127,0
2884,40163,0
2892,40155,0
2912,40137,0
2924,40179,0
2930,40143,0
2948,40146,0
2962,40184,0
2968,40154,0
2976,40147,0
2976,40173,0
2976,40169,0
2984,40145,0
2968,40175,0
2972,40147,0
2960,40145,0
2960,40198,0
2948,40142,0
2912,40154,0
2952,40165,0
2960,40170,0
2960,40164,0
2960,40170,0
2964,40172,0
2968,40153,0
2976,40181,0
2976,40184,0
2976,40163,0
2976,40154,0
2968,40185,0
2964,40164,0
2960,40147,0
2952,40182,0
2944,40157,0
2932,40150,0
2932,40194,0
2912,40162,0
2928,40140,0
2912,40179,0
2920,40159,0
2916,40162,0
2930,40183,0
2928,40168,0
2952,40147,0
2960,40189,0
2976,40164,0
2976,40148,0
2992,40188,0
2998,40176,0
3016,40188,0
3016,40155,0
3024,40175,0
3032,40153,0
3016,40168,0
3024,40193,0
3016,40173,0
3008,40152,0
3000,40176,0
3008,40179,0
3000,40170,0
3008,40190,0
3008,40164,0
3000,40164,0
3010,40208,0
3024,40159,0
3024,40164,0
3032,40186,0
3032,40164,0
3032,40184,0
3040,40189,0
3040,40170,0
3040,40165,0
3032,40203,0
3024,40177,0
3016,40177,0
3012,40194,0
3008,40173,0
3000,40190,0
2988,40205,0
2994,40176,0
2996,40164,0
3000,40189,0
3008,40186,0
3024,40192,0
3024,40188,0
3040,40164,0
3040,40177,0
3048,40183,0
3056,40190,0
3056,40164,0
3064,40160,0
3050,40208,0
3040,40175,0
3032,40164,0
3016,40186,0
3008,40169,0
3000,40184,0
2984,40197,0
2976,40177,0
2976,40169,0
2962,40196,0
2976,40173,0
2984,40174,0
2977,40198,0
3008,40160,0
3008,40165,0
3016,40202,0
3024,40168,0
3040,40157,0
3032,40184,0
3045,40173,0
3048,40157,0
3040,40184,0
3048,40169,0
3040,40190,0
3044,40191,0
3050,40176,0
3040,40162,0
3040,40160,0
3060,40177,0
3048,40165,0
3058,40156,0
3064,40183,0
3064,40144,0
3088,40152,0
3088,40176,0
3096,40152,0
3104,40142,0
3092,40164,0
3088,40164,0
3084,40142,0
3080,40169,0
3064,40139,0
3056,40134,0
3044,40182,0
3040,40150,0
3016,40122,0
3020,40160,0
3016,40144,0
3024,40142,0
3016,40155,0
3024,40135,0
3024,40124,0
3056,40177,0
3050,40144,0
3080,40132,0
3096,40152,0
3104,40131,0
3104,40143,0
3120,40112,0
3120,40150,0
3128,40121,0
3105,40122,0
3112,40155,0
3096,40120,0
3088,40119,0
3080,40141,0
3060,40126,0
3056,40108,0
3056,40139,0
3048,40110,0
3050,40092,0
3056,40151,0
3050,40120,0
3064,40110,0
3080,40120,0
3088,40119,0
3090,40122,0
3088,40121,0
3092,40104,0
3092,40100,0
3088,40137,0
3088,40105,0
3080,40091,0
3058,40122,0
3060,40095,0
3050,40105,0
3056,40095,0
3048,40117,0
3052,40094,0
3056,40089,0
3064,40134,0
3068,40097,0
3076,40070,0
3096,40115,0
3092,40094,0
3104,40077,0
3104,40110,0
3116,40093,0
3120,40063,0
3108,40127,0
3104,40092,0
3096,40069,0
3080,40103,0
3060,40076,0
3048,40076,0
3040,40117,0
3032,40080,0
3024,40068,0
3028,40112,0
3024,40090,0
3024,40070,0
3032,40099,0
3040,40075,0
3052,40078,0
3056,40114,0
3071,40073,0
3070,40060,0
3092,40057,0
3088,40108,0
3088,40094,0
3088,40076,0
3072,40068,0
3056,40091,0
3048,40093,0
3040,40078,0
3040,40093,0
3040,40083,0
3032,40082,0
3040,40104,0
3056,40085,0
3056,40077,0
3080,40077,0
3092,40101,0
3104,40076,0
3104,40065,0
3112,40094,0
3128,40061,0
3136,40069,0
3124,40093,0
3136,40062,0
3125,40052,0
3120,40091,0
3104,40069,0
3112,40049,0
3104,40083,0
3096,40061,0
3096,40060,0
3096,40103,0
3100,40060,0
3114,40057,0
3124,40062,0
3128,40089,0
3144,40080,0
3144,40061,0
3152,40065,0
3168,40079,0
3160,40081,0
3160,40073,0
3152,40069,0
3144,40063,0
3136,40073,0
3120,40087,0
3104,40058,0
3088,40070,0
3080,40066,0
3064,40065,0
3056,40077,0
3056,40077,0
3044,40060,0
3056,40043,0
3072,40096,0
3072,40051,0
3092,40053,0
3104,40079,0
3124,40049,0
3124,40047,0
3144,40076,0
3136,40056,0
3148,40027,0
3144,40079,0
3144,40055,0
3152,40067,0
3136,40049,0
3136,40053,0
3128,40055,0
3136,40051,0
3128,40068,0
3090,40042,0
3144,40018,0
3144,40087,0
3152,40039,0
3160,40031,0
3176,40054,0
3184,40045,0
3176,40037,0
3188,40064,0
3194,40044,0
3188,40015,0
3184,40080,0
3184,40049,0
3170,40023,0
3328,40057,0
3152,40027,0
3136,40026,0
3136,40063,0
3116,40037,0
3112,40018,0
3112,40051,0
3120,40054,0
3112,40016,0
3124,40066,0
3120,40026,0
3136,40015,0
3152,40053,0
3168,40035,0
3172,40031,0
3184,40016,0
3184,40066,0
3192,40052,0
3192,40034,0
3180,40034,0
3184,40038,0
3176,40030,0
3160,40044,0
3160,40058,0
3140,40026,0
3136,40025,0
3140,40048,0
3152,40025,0
3144,40021,0
3156,40049,0
3156,40034,0
3168,40024,0
3184,40047,0
3192,40015,0
3200,40002,0
3208,40062,0
3204,40022,0
3208,40001,0
3208,40038,0
3204,40016,0
3192,40017,0
3184,40045,0
3176,40028,0
3178,39999,0
3176,40044,0
3176,40032,0
3184,40015,0
3252,40038,0
3192,40006,0
3200,40031,0
3208,40034,0
3220,40045,0
3232,40029,0
3240,40017,0
3248,40068,0
3248,40035,0
3240,40021,0
3232,40041,0
3224,40031,0
3232,40035,0
3204,40041,0
3196,40034,0
3192,40030,0
3168,40051,0
3168,40045,0
3160,40031,0
3160,40031,0
3168,40031,0
3172,40036,0
3184,40044,0
3200,40031,0
3200,40017,0
3208,40040,0
3208,40042,0
3226,40026,0
3224,40030,0
3240,40022,0
3240,40019,0
3248,40053,0
3240,40037,0
3232,40030,0
3224,40012,0
3216,40039,0
3200,40051,0
3200,40020,0
3200,40031,0
3184,40033,0
3188,40033,0
3184,40024,0
3184,40051,0
3188,40024,0
3200,40017,0
3192,40061,0
3200,40013,0
3208,40021,0
3200,40050,0
3216,40024,0
3202,40021,0
3200,40056,0
3200,40013,0
3184,39998,0
3184,40052,0
3184,40020,0
3178,40017,0
3168,40039,0
3168,40013,0
3176,40038,0
3184,40045,0
3192,40033,0
3208,40032,0
3232,40023,0
3240,40024,0
3252,40035,0
3264,40020,0
3268,40005,0
3268,40058,0
3272,40025,0
3268,40014,0
3264,40058,0
3252,40007,0
3244,40020,0
3232,40055,0
3232,40023,0
3216,40003,0
3192,40043,0
3192,40039,0
3192,40008,0
3200,40051,0
3216,40011,0
3216,40006,0
3224,40053,0
3240,40025,0
3248,40001,0
3264,40038,0
3280,40035,0
3284,40006,0
3280,40055,0
3280,40024,0
3288,40011,0
3276,40064,0
3288,40029,0
3288,40020,0
3280,40021,0
3280,40030,0
3272,40054,0
3280,40018,0
3288,40031,0
3288,40033,0
3296,40031,0
3304,40031,0
3312,40047,0
3324,40019,0
3324,40011,0
3336,40054,0
3336,40015,0
3328,40011,0
3336,40051,0
3320,40005,0
3312,40027,0
3296,40043,0
3296,40016,0
3276,40001,0
3264,40048,0
3248,40029,0
3240,40016,0
3240,40038,0
3232,40009,0
3240,40010,0
3232,40038,0
3232,40018,0
3248,39998,0
3258,40037,0
3272,40028,0
3296,40015,0
3304,40036,0
3304,40015,0
3296,40013,0
3298,40017,0
3308,40041,0
3288,40012,0
3280,39995,0
3288,40039,0
3264,40029,0
3264,39998,0
3256,40040,0
3248,40018,0
3240,40018,0
3248,40045,0
3240,40026,0
3244,39997,0
3248,40043,0
3248,40023,0
3280,40002,0
3264,40034,0
3272,40009,0
3272,40008,0
3266,40055,0
3273,40007,0
3272,40015,0
3264,40029,0
3256,40013,0
3248,39996,0
3252,40032,0
3256,40021,0
3252,40013,0
3264,40053,0
3280,40025,0
3280,40028,0
3284,40044,0
3296,40013,0
3304,40008,0
3320,40040,0
3328,40009,0
3328,39988,0
3336,40038,0
3340,40012,0
3320,39999,0
3328,40038,0
3304,40003,0
3300,40010,0
3360,40035,0
3264,40004,0
3264,40011,0
3264,40038,0
3248,40030,0
3252,39997,0
3256,40044,0
3256,40006,0
3268,40002,0
3280,40057,0
3288,40010,0
3296,39998,0
3300,40038,0
3306,40027,0
3312,39995,0
3320,40021,0
3328,40012,0
3320,40010,0
3328,40038,0
3320,40047,0
3312,40046,0
3312,40010,0
3296,39996,0
3296,40051,0
3288,40028,0
3296,40008,0
3328,40035,0
3296,40024,0
3300,40018,0
3296,40053,0
3304,40014,0
3300,40017,0
3306,40052,0
3300,40033,0
3306,40023,0
3312,40051,0
3296,40023,0
3296,40022,0
3296,40051,0
3288,40034,0
3280,40014,0
3264,40053,0
3272,40032,0
3256,40001,0
3248,40043,0
3258,40019,0
3268,40015,0
3272,40026,0
3296,40033,0
3300,40043,0
3312,40023,0
3328,40050,0
3332,40046,0
3336,40035,0
3332,40039,0
3344,40056,0
3328,40047,0
3312,40050,0
3304,40059,0
3296,40024,0
3280,40027,0
3280,40062,0
3264,40032,0
3248,40026,0
3240,40048,0
3244,40045,0
3240,40022,0
3248,40062,0
3250,40031,0
3256,40022,0
3264,40079,0
3272,40041,0
3280,40032,0
3284,40066,0
3296,40042,0
3284,40035,0
3288,40064,0
3290,40050,0
3276,40022,0
3296,40045,0
3288,40071,0
3288,40051,0
3296,40051,0
3304,40034,0
3300,40040,0
3296,40062,0
3304,40043,0
3400,40044,0
3320,40070,0
3328,40051,0
3336,40044,0
3348,40059,0
3344,40034,0
3352,40043,0
3344,40079,0
3328,40031,0
3332,40045,0
3320,40064,0
3312,40045,0
3296,40049,0
3274,40062,0
3266,40042,0
3264,40047,0
3252,40073,0
3248,40062,0
3248,40043,0
3256,40054,0
3248,40076,0
3260,40059,0
3264,40051,0
3280,40063,0
3296,40065,0
3296,40065,0
3280,40059,0
3304,40039,0
3304,40059,0
3424,40044,0
3296,40078,0
3284,40043,0
3274,40042,0
3268,40069,0
3256,40058,0
3248,40049,0
3240,40041,0
3240,40067,0
3248,40032,0
3248,40039,0
3248,40083,0
3264,40036,0
3272,40037,0
3280,40067,0
3296,40060,0
3304,40037,0
3312,40074,0
3312,40047,0
3328,40027,0
3320,40090,0
3316,40060,0
3316,40042,0
3300,40071,0
3292,40043,0
3292,40051,0
3280,40068,0
3296,40066,0
3296,40044,0
3296,40062,0
3300,40077,0
3300,40059,0
3312,40045,0
3312,40073,0
3312,40070,0
3312,40044,0
3320,40081,0
3304,40053,0
3296,40034,0
3304,40091,0
3280,40059,0
3280,40051,0
3268,40076,0
3248,40063,0
3248,40051,0
3240,40094,0
3232,40064,0
3232,40042,0
3240,40090,0
3232,40064,0
3242,40041,0
3248,40081,0
3268,40050,0
3272,40054,0
3280,40085,0
3288,40065,0
3296,40048,0
3304,40089,0
3312,40075,0
3316,40056,0
3320,40070,0
3320,40059,0
3320,40054,0
3304,40088,0
3304,40082,0
3290,40064,0
3280,40041,0
3280,40089,0
3268,40072,0
3264,40052,0
3256,40082,0
3264,40052,0
3252,40059,0
3256,40089,0
3264,40056,0
3264,40046,0
3268,40089,0
3272,40066,0
3264,40050,0
3264,40087,0
3252,40050,0
3252,40061,0
3236,40085,0
3240,40058,0
3232,40055,0
3224,40082,0
3232,40084,0
3216,40054,0
3216,40077,0
3232,40056,0
3240,40053,0
3252,40064,0
3268,40067,0
3288,40057,0
3288,40069,0
3312,40098,0
3320,40069,0
3312,40071,0
3316,40076,0
3322,40050,0
3312,40083,0
3296,40099,0
3284,40055,0
3280,40063,0
3256,40082,0
3248,40090,0
3244,40067,0
3232,40086,0
3232,40069,0
3232,40063,0
3232,40102,0
3240,40067,0
3248,40072,0
3264,40080,0
3256,40075,0
3272,40075,0
3272,40089,0
3272,40061,0
3272,40068,0
3252,40099,0
3256,40070,0
3264,40074,0
3244,40090,0
3264,40059,0
3252,40097,0
3252,40074,0
3252,40065,0
3256,40088,0
3272,40076,0
3264,40090,0
3272,40092,0
3272,40058,0
3288,40065,0
3280,40109,0
3284,40075,0
3284,40075,0
3280,40086,0
3276,40059,0
3264,40095,0
3248,40080,0
3236,40072,0
3232,40080,0
3208,40088,0
3200,40074,0
3184,40094,0
3176,40078,0
3168,40076,0
3160,40093,0
3168,40097,0
3186,40069,0
3188,40073,0
3200,40084,0
3216,40075,0
3248,40085,0
3320,40078,0
3336,40088,0
3360,40095,0
3408,40108,0
3444,40077,0
3492,40085,0
3520,40075,0
3568,40072,0
3600,40101,0
3632,40102,0
3672,40066,0
3712,40086,0
3760,40106,0
3792,40089,0
3848,40082,0
3904,40099,0
3936,40074,0
3952,40085,0
3956,40116,0
3976,40077,0
3972,40065,0
3968,40099,0
3968,40085,0
3936,40057,0
3904,40110,0
3844,40064,0
3784,40073,0
3716,40106,0
3632,40088,0
3548,40068,0
3466,40102,0
3404,40092,0
3328,40104,0
3264,40073,0
3210,40082,0
3160,40091,0
3120,40094,0
3084,40098,0
3064,40083,0
3048,40071,0
3020,40108,0
2996,40092,0
2992,40079,0
2976,40099,0
2952,40082,0
2944,40095,0
2944,40110,0
2922,40098,0
2912,40083,0
2912,40089,0
2904,40105,0
2912,40097,0
2912,40103,0
2913,40100,0
2928,40083,0
2944,40090,0
2954,40119,0
2976,40086,0
2996,40083,0
3016,40121,0
3024,40087,0
3040,40072,0
3056,40104,0
3064,40073,0
3076,40104,0
3076,40114,0
3080,40094,0
3076,40092,0
3064,40092,0
3076,40114,0
3068,40090,0
3076,40083,0
3072,40099,0
3080,40095,0
3088,40095,0
3100,40107,0
3120,40093,0
3124,40078,0
3136,40126,0
3144,40099,0
3152,40101,0
3148,40100,0
3152,40086,0
3156,40098,0
3168,40122,0
3152,40091,0
3144,40095,0
3136,40125,0
3136,40104,0
3124,40090,0
3120,40126,0
3124,40093,0
3120,40098,0
3124,40137,0
3128,40106,0
3128,40099,0
3160,40096,0
3172,40108,0
3184,40114,0
3200,40103,0
3200,40101,0
3208,40121,0
3208,40107,0
3248,40099,0
3200,40123,0
3208,40100,0
3188,40090,0
3176,40130,0
3160,40104,0
3144,40081,0
3144,40113,0
3136,40108,0
3124,40117,0
3114,40124,0
3108,40098,0
3112,40104,0
3136,40128,0
3124,40110,0
3137,40111,0
3140,40120,0
3156,40094,0
3162,40118,0
3160,40117,0
3168,40111,0
3160,40095,0
3156,40138,0
3148,40115,0
3144,40104,0
3144,40116,0
3128,40100,0
3136,40122,0
3122,40125,0
3120,40113,0
3136,40100,0
3120,40096,0
3122,40125,0
3124,40096,0
3128,40106,0
3136,40121,0
3140,40099,0
3136,40110,0
3137,40121,0
3136,40095,0
3136,40093,0
3136,40132,0
3128,40113,0
3112,40103,0
3108,40132,0
3104,40098,0
3096,40101,0
3096,40139,0
3088,40108,0
3096,40100,0
3104,40127,0
3106,40103,0
3106,40106,0
3112,40127,0
3120,40100,0
3136,40100,0
3140,40140,0
3152,40118,0
3160,40113,0
3168,40099,0
3168,40125,0
3256,40116,0
3176,40124,0
3172,40124,0
3152,40104,0
3144,40134,0
3144,40121,0
3136,40119,0
3120,40119,0
3114,40134,0
3120,40129,0
3112,40124,0
3112,40137,0
3112,40112,0
3114,40129,0
3120,40145,0
3124,40111,0
3136,40125,0
3128,40122,0
3128,40133,0
3138,40123,0
3136,40146,0
3120,40125,0
3120,40103,0
3106,40155,0
3096,40123,0
3092,40109,0
3088,40132,0
3084,40132,0
3104,40131,0
3104,40118,0
3120,40120,0
3124,40113,0
3136,40171,0
3144,40127,0
3140,40137,0
3156,40155,0
3168,40112,0
3160,40139,0
3156,40149,0
3156,40134,0
3152,40120,0
3136,40148,0
3136,40135,0
3121,40128,0
3104,40148,0
3088,40117,0
3080,40136,0
3080,40165,0
3072,40134,0
3072,40124,0
3072,40140,0
3080,40146,0
3088,40124,0
3104,40151,0
3104,40132,0
3104,40129,0
3096,40170,0
3108,40140,0
3112,40127,0
3122,40126,0
3120,40142,0
3120,40145,0
3124,40124,0
3120,40127,0
3112,40134,0
3104,40151,0
3104,40134,0
3112,40136,0
3104,40149,0
3104,40118,0
3104,40140,0
3104,40156,0
3100,40123,0
3104,40131,0
3108,40154,0
3108,40137,0
3114,40129,0
3108,40150,0
3096,40109,0
3090,40131,0
3088,40151,0
3076,40114,0
3072,40120,0
3060,40142,0
3044,40131,0
3056,40118,0
3040,40140,0
3044,40117,0
3044,40110,0
3052,40148,0
3064,40112,0
3068,40110,0
3088,40136,0
3104,40123,0
3116,40131,0
3136,40114,0
3136,40113,0
3144,40115,0
3144,40112,0
3136,40121,0
3136,40114,0
3120,40109,0
3112,40123,0
3104,40118,0
3088,40108,0
3080,40114,0
3070,40104,0
3060,40101,0
3056,40133,0
3056,40097,0
3056,40099,0
3040,40104,0
3056,40102,0
3058,40099,0
3064,40119,0
3072,40096,0
3064,40081,0
3072,40125,0
3072,40105,0
3080,40093,0
3072,40099,0
3064,40078,0
3070,40097,0
3064,40103,0
3064,40088,0
3064,40072,0
3064,40074,0
3064,40088,0
3064,40107,0
3076,40076,0
3080,40055,0
3104,40115,0
3104,40082,0
3112,40060,0
3120,40093,0
3124,40062,0
3120,40067,0
3120,40100,0
3112,40069,0
3104,40052,0
3088,40088,0
3084,40064,0
3058,40059,0
3040,40082,0
3024,40049,0
3010,40045,0
3000,40086,0
2996,40046,0
2992,40035,0
2992,40062,0
2992,40058,0
3000,40038,0
3000,40077,0
3008,40043,0
3020,40038,0
3040,40008,0
3044,40033,0
3056,40044,0
3056,40026,0
3040,40049,0
3040,40068,0
3032,40028,0
3024,40028,0
3008,40055,0
2996,40042,0
2996,40042,0
2992,40058,0
2996,40036,0
2984,40032,0
2984,40064,0
2984,40025,0
2988,40033,0
2992,40040,0
2994,40024,0
3008,40033,0
3008,40045,0
2996,40007,0
2988,40015,0
2992,40045,0
2984,40026,0
2984,40022,0
2968,40035,0
2964,40005,0
2944,40034,0
2940,40040,0
2944,40011,0
2944,40009,0
2952,40008,0
2976,40018,0
2980,40007,0
2992,39998,0
3000,40012,0
3016,40015,0
3032,40028,0
3034,40030,0
3044,40004,0
3040,39995,0
3032,40040,0
3036,40003,0
3016,40012,0
3000,40027,0
2992,39995,0
2976,40015,0
2960,40031,0
2944,39999,0
2936,40010,0
2928,40022,0
2928,40010,0
2928,39997,0
2928,40018,0
2928,39983,0
2944,40006,0
2944,40025,0
2960,40001,0
2976,40009,0
2976,40007,0
2976,40016,0
2984,39996,0
2984,40034,0
2992,39993,0
2984,39992,0
2984,40031,0
2978,39982,0
2976,40005,0
2976,39994,0
2976,40018,0
2976,40006,0
2980,39993,0
2992,40014,0
3000,39981,0
3000,40013,0
3012,40020,0
3016,39970,0
3024,39982,0
3024,40014,0
3024,39995,0
3020,39996,0
3008,40013,0
2996,39979,0
2992,40007,0
2980,40028,0
2964,39993,0
2960,39987,0
2944,40003,0
2936,39984,0
2928,39991,0
2928,40010,0
2928,39990,0
2925,39971,0
2928,40014,0
2944,39979,0
2948,39993,0
2968,39982,0
2976,39981,0
2992,40005,0
2996,39986,0
2992,40001,0
2996,39983,0
2984,39981,0
2984,39999,0
3040,40009,0
2960,39983,0
2954,39968,0
2944,40013,0
2936,39990,0
2920,39963,0
2920,40009,0
2922,39963,0
2912,39972,0
2912,40005,0
2916,39966,0
2928,39958,0
2928,40000,0
2968,39976,0
2944,39967,0
2960,39998,0
2952,39979,0
2948,39975,0
2945,40003,0
2932,39980,0
2936,39959,0
2940,39998,0
2928,39981,0
2928,39995,0
2932,39969,0
2933,39978,0
2896,39972,0
2944,39980,0
2946,39977,0
2948,39991,0
2968,39993,0
2968,39981,0
2984,39993,0
2992,39987,0
3000,39965,0
2992,39978,0
2988,39997,0
2976,39974,0
2976,39973,0
2968,39995,0
2952,39965,0
2928,39984,0
2912,40001,0
2912,39973,0
2904,39949,0
2884,40001,0
2882,39984,0
2884,39964,0
2892,40002,0
2890,39959,0
2900,39964,0
2912,40000,0
2920,39972,0
2932,39954,0
2936,39988,0
2944,39974,0
2944,39988,0
2944,39976,0
2936,39970,0
2928,39988,0
2912,39985,0
2896,39956,0
2880,39991,0
2880,39964,0
2866,39963,0
2864,40002,0
2848,39961,0
2852,39973,0
2841,39979,0
2856,39976,0
2864,39974,0
2864,39982,0
2888,39958,0
2896,39975,0
2896,39998,0
2896,39970,0
2904,39969,0
2900,39985,0
2888,39963,0
2896,39977,0
2888,39999,0
2896,39979,0
2880,39966,0
2864,39988,0
2860,39981,0
2866,39966,0
2872,39994,0
2992,39950,0
2884,39978,0
2896,39986,0
2904,39991,0
2912,40019,0
2920,39982,0
2916,39988,0
2912,39996,0
2912,39996,0
2912,39976,0
2900,40001,0
2884,39999,0
2872,39974,0
2856,39972,0
2848,39980,0
2832,39979,0
2808,39992,0
2812,39992,0
2800,39973,0
2794,40005,0
2800,40003,0
2808,39984,0
2816,39986,0
2832,39988,0
2848,39980,0
2852,39987,0
2872,39991,0
2880,39989,0
2884,39975,0
2880,39999,0
2888,39979,0
2896,39976,0
2896,39965,0
2884,39991,0
2882,39987,0
2880,39993,0
2872,40000,0
2880,39983,0
2880,39960,0
2880,40016,0
2890,39975,0
2888,39965,0
2896,39992,0
2900,39976,0
2908,39977,0
2912,40005,0
2912,39971,0
2912,39965,0
2912,40011,0
2908,39990,0
2900,39966,0
2888,39994,0
2880,39967,0
2868,39973,0
2840,40011,0
2832,39969,0
2816,39972,0
2808,39995,0
2794,39987,0
2801,39967,0
2792,40003,0
2804,39977,0
2812,39958,0
2824,40009,0
2844,39969,0
2852,39993,0
2864,39971,0
2872,39978,0
2872,39998,0
2888,39979,0
2880,39974,0
2880,40000,0
2872,39988,0
2856,39976,0
2840,40003,0
2832,39974,0
2824,39967,0
2808,40013,0
2810,39980,0
2800,39976,0
2784,39992,0
2788,39982,0
2788,39963,0
2784,39995,0
2800,39971,0
2802,39954,0
2816,40016,0
2808,39974,0
2816,39962,0
2816,39990,0
2816,39976,0
2816,39970,0
2804,39993,0
2800,39970,0
2800,39955,0
2800,40006,0
2792,39981,0
2792,39979,0
2804,39977,0
2800,39973,0
2812,39982,0
2820,39972,0
2832,40008,0
2836,39972,0
2848,39955,0
2856,40006,0
2856,39973,0
2856,39959,0
2848,40000,0
2848,39975,0
2832,39978,0
2816,39999,0
2762,39977,0
2792,39956,0
2776,40001,0
2760,39989,0
2768,39967,0
2752,39999,0
2752,39963,0
2756,39976,0
2761,40007,0
2772,39982,0
2784,39962,0
2786,39992,0
2800,39995,0
2808,39980,0
2808,39998,0
2826,40006,0
2832,39969,0
2836,39991,0
2832,39964,0
2824,39968,0
2820,39971,0
2800,39986,0
2792,40009,0
2780,39985,0
2784,39978,0
2768,40000,0
2760,39987,0
2760,39983,0
2752,39993,0
2756,39982,0
2760,39981,0
2760,40015,0
2764,39981,0
2776,39986,0
2768,40005,0
2768,39976,0
2764,39996,0
2768,40011,0
2752,39986,0
2754,39984,0
2736,40012,0
2730,39987,0
2736,39983,0
2720,40005,0
2720,39981,0
2730,40001,0
2730,40002,0
2738,40015,0
2768,39995,0
2768,39983,0
2756,39978,0
2752,40017,0
2744,39995,0
2752,39979,0
2752,40022,0
2768,39982,0
2764,39973,0
2770,40021,0
2784,39983,0
2788,39969,0
2800,40005,0
2808,39993,0
2816,39985,0
2826,40012,0
2824,39989,0
2824,39970,0
2820,40033,0
2820,40001,0
2802,39968,0
2796,40009,0
2788,39989,0
2784,39986,0
2784,40014,0
2770,39987,0
2768,39974,0
2768,40026,0
2768,40004,0
2772,39986,0
2776,40014,0
2772,39982,0
2788,40001,0
2792,40001,0
2792,40001,0
2800,40034,0
2852,40010,0
2792,40010,0
2784,40010,0
2768,40010,0
2756,40010,0
2736,40010,0
2720,40026,0
2704,40005,0
2689,40005,0
2676,40005,0
2672,40005,0
2668,40005,0
2660,40005,0
2660,40005,0
2672,39989,0
2660,39989,0
2672,39989,0
2688,39989,0
2688,39989,0
2680,39989,0
2688,39989,0
2688,39989,0
2692,39989,0
2696,39989,0
2688,39989,0
2684,39989,0
2680,39989,0
2676,39989,0
2688,40020,0
2688,40016,0
2680,40034,0
2668,40001,0
2672,40018,0
2776,40017,0
2688,40004,0
2688,40025,0
2688,40019,0
2696,40006,0
2688,40023,0
2704,40020,0
2688,40022,0
2672,40018,0
2672,40016,0
2666,40010,0
2644,40044,0
2640,40028,0
2624,40007,0
2616,40009,0
2608,40034,0
2608,40021,0
2604,40004,0
2612,40039,0
2614,40001,0
2616,40005,0
2624,40051,0
2656,40020,0
2696,40014,0
2696,40004,0
2698,40040,0
2712,40016,0
2696,40009,0
2688,39998,0
2676,40035,0
2665,40014,0
2664,40004,0
2656,40037,0
2640,40003,0
2644,39995,0
2640,40052,0
2640,40013,0
2634,40003,0
2640,40035,0
2633,40019,0
2648,40026,0
2648,40047,0
2648,40013,0
2656,39991,0
2645,40052,0
2648,40018,0
2640,40017,0
2644,40034,0
2648,40011,0
2644,40011,0
2632,40042,0
2624,40016,0
2626,40003,0
2628,40050,0
2636,40028,0
2642,40025,0
2644,40003,0
2664,40032,0
2680,40035,0
2688,40021,0
2692,40038,0
2698,40022,0
2696,40017,0
2697,40052,0
2656,40029,0
2688,40012,0
2676,40043,0
2661,40021,0
2644,40031,0
2628,40052,0
2616,40013,0
2600,40016,0
2592,40053,0
2584,40035,0
2576,40027,0
2584,40048,0
2592,40026,0
2600,40037,0
2600,40056,0
2612,40025,0
2624,40019,0
2624,40050,0
2634,40031,0
2632,40029,0
2626,40058,0
2632,40024,0
2624,40044,0
2640,40059,0
2624,40061,0
2624,40035,0
2616,40030,0
2616,40032,0
2628,40062,0
2624,40025,0
2632,40014,0
2628,40062,0
2640,40031,0
2644,40018,0
2656,40053,0
2656,40033,0
2656,40010,0
2656,40069,0
2660,40040,0
2648,40021,0
2640,40049,0
2624,40038,0
2612,40028,0
2608,40062,0
2593,40034,0
2576,40013,0
2576,40074,0
2568,40031,0
2560,40020,0
2560,40065,0
2560,40026,0
2552,40030,0
2556,40054,0
2556,40037,0
2570,40076,0
2570,40074,0
2576,40047,0
2560,40046,0
2552,40064,0
2536,40037,0
2528,40032,0
2512,40069,0
2496,40038,0
2484,40020,0
2480,40063,0
2472,40048,0
2464,40030,0
2464,40069,0
2472,40046,0
2488,40032,0
2508,40084,0
2528,40042,0
2556,40032,0
2580,40059,0
2616,40052,0
2660,40032,0
2696,40067,0
2736,40044,0
2788,40028,0
2848,40076,0
2898,40047,0
2944,40040,0
2980,40066,0
3046,40047,0
3064,40052,0
3104,40071,0
3152,40060,0
3184,40055,0
3232,40064,0
3252,40060,0
3272,40051,0
3298,40044,0
3296,40045,0
3296,40079,0
3272,40056,0
3232,40059,0
3186,40076,0
3128,40049,0
3070,40077,0
2992,40075,0
2916,40048,0
2848,40062,0
2768,40077,0
2684,40064,0
2608,40060,0
2528,40076,0
2480,40045,0
2424,40069,0
2369,40085,0
2328,40045,0
2304,40058,0
2288,40074,0
2284,40060,0
2260,40068,0
2260,40079,0
2261,40058,0
2268,40055,0
2260,40090,0
2264,40060,0
2260,40064,0
2256,40070,0
2244,40069,0
2244,40079,0
2240,40060,0
2228,40045,0
2220,40067,0
2224,40061,0
2224,40058,0
2224,40082,0
2224,40056,0
2229,40064,0
2284,40092,0
2248,40060,0
2256,40059,0
2272,40076,0
2276,40062,0
2280,40072,0
2298,40081,0
2304,40058,0
2304,40044,0
2304,40102,0
2304,40061,0
2304,40070,0
2305,40091,0
2308,40074,0
2320,40076,0
2328,40087,0
2332,40064,0
2346,40060,0
2360,40100,0
2376,40074,0
2392,40094,0
2408,40087,0
2424,40072,0
2432,40067,0
2444,40079,0
2448,40049,0
2448,40106,0
2448,40064,0
2452,40063,0
2436,40104,0
2432,40075,0
2424,40057,0
2412,40092,0
2400,40082,0
2384,40064,0
2376,40089,0
2376,40062,0
2380,40079,0
2368,40112,0
2384,40071,0
2380,40074,0
2400,40088,0
2408,40083,0
2418,40087,0
2416,40109,0
2420,40076,0
2432,40082,0
2436,40115,0
2448,40085,0
2437,40080,0
2436,40102,0
2432,40069,0
2436,40079,0
2432,40078,0
2428,40085,0
2436,40094,0
2432,40090,0
2436,40085,0
2450,40103,0
2448,40084,0
2452,40068,0
2464,40108,0
2468,40090,0
2474,40087,0
2480,40106,0
2480,40087,0
2464,40088,0
2452,40112,0
2448,40078,0
2434,40071,0
2416,40109,0
2402,40098,0
2386,40090,0
2380,40106,0
2368,40080,0
2368,40092,0
2360,40114,0
2368,40093,0
2378,40088,0
2386,40107,0
2400,40095,0
2408,40104,0
2416,40116,0
2432,40092,0
2440,40102,0
2456,40110,0
2456,40085,0
2496,40098,0
2452,40082,0
2452,40119,0
2440,40105,0
2432,40101,0
2416,40120,0
2408,40088,0
2392,40095,0
2376,40110,0
2368,40110,0
2372,40094,0
2360,40112,0
2352,40128,0
2356,40109,0
2356,40106,0
2354,40125,0
2368,40103,0
2376,40129,0
2368,40126,0
2376,40108,0
2370,40089,0
2373,40140,0
2368,40112,0
2368,40086,0
2368,40119,0
2364,40093,0
2361,40096,0
2360,40123,0
2362,40115,0
2376,40127,0
2372,40126,0
2378,40100,0
2388,40106,0
2400,40109,0
2410,40100,0
2432,40143,0
2432,40111,0
2436,40086,0
2440,40132,0
2440,40097,0
2432,40104,0
2416,40153,0
2412,40104,0
2392,40097,0
2372,40132,0
2357,40120,0
2352,40104,0
2328,40128,0
2320,40098,0
2313,40103,0
2312,40157,0
2312,40109,0
2320,40105,0
2344,40138,0
2340,40122,0
2340,40128,0
2352,40143,0
2356,40115,0
2370,40114,0
2368,40148,0
2368,40123,0
2448,40135,0
2369,40114,0
2376,40132,0
2360,40139,0
2360,40129,0
2344,40151,0
2340,40122,0
2328,40124,0
2324,40153,0
2328,40134,0
2324,40114,0
2324,40122,0
2336,40146,0
2330,40131,0
2336,40128,0
2344,40136,0
2344,40117,0
2332,40131,0
2336,40152,0
2328,40122,0
2324,40117,0
2314,40155,0
2308,40119,0
2296,40119,0
2304,40142,0
2292,40118,0
2280,40111,0
2296,40158,0
2292,40125,0
2306,40109,0
2306,40141,0
2320,40138,0
2338,40127,0
2348,40135,0
2348,40133,0
2360,40119,0
2364,40136,0
2372,40146,0
2360,40119,0
2362,40115,0
2352,40144,0
2338,40126,0
2328,40121,0
2320,40143,0
2304,40109,0
2292,40125,0
2282,40148,0
2276,40123,0
2272,40119,0
2272,40140,0
2264,40136,0
2272,40119,0
2276,40140,0
2280,40106,0
2288,40119,0
2288,40155,0
2304,40112,0
2304,40116,0
2304,40120,0
2308,40127,0
2304,40121,0
2312,40134,0
2308,40123,0
2304,40101,0
2304,40121,0
2304,40120,0
2312,40117,0
2304,40109,0
2320,40128,0
2316,40112,0
2324,40118,0
2344,40115,0
2344,40095,0
2344,40097,0
2356,40137,0
2360,40088,0
2352,40093,0
2344,40115,0
2330,40104,0
2340,40100,0
2328,40120,0
2312,40097,0
2296,40092,0
2281,40132,0
2264,40094,0
2264,40087,0
2250,40110,0
2248,40074,0
2241,40091,0
2256,40108,0
2250,40082,0
2256,40077,0
2272,40120,0
2280,40088,0
2304,40060,0
2304,40066,0
2304,40080,0
2308,40076,0
2292,40081,0
2288,40068,0
2272,40063,0
2256,40084,0
2240,40075,0
2224,40073,0
2212,40086,0
2188,40066,0
2180,40066,0
2168,40091,0
2164,40077,0
2164,40051,0
2164,40057,0
2168,40080,0
2168,40067,0
2184,40063,0
2176,40071,0
2176,40051,0
2184,40067,0
2180,40066,0
2184,40044,0
2184,40038,0
2176,40076,0
2176,40060,0
2164,40049,0
2164,40071,0
2160,40043,0
2166,40051,0
2168,40060,0
2176,40063,0
2186,40075,0
2184,40044,0
2192,40053,0
2208,40079,0
2220,40031,0
2220,40044,0
2226,40052,0
2232,40053,0
2232,40041,0
2224,40060,0
2220,40031,0
2244,40033,0
2196,40072,0
2184,40037,0
2168,40034,0
2152,40052,0
2144,40046,0
2128,40040,0
2128,40056,0
2117,40037,0
2116,40029,0
2114,40067,0
2116,40038,0
2128,40036,0
2136,40050,0
2152,40030,0
2168,40040,0
2178,40060,0
2188,40030,0
2188,40019,0
2196,40042,0
2200,40057,0
2188,40023,0
2188,40047,0
2188,40018,0
2186,40041,0
2176,40045,0
2176,40056,0
2172,40026,0
2180,40039,0
2176,40065,0
2180,40027,0
2192,40038,0
2192,40055,0
2192,40033,0
2240,40041,0
2194,40053,0
2208,40055,0
2192,40026,0
2186,40030,0
2186,40058,0
2168,40032,0
2160,40024,0
2152,40049,0
2144,40050,0
2136,40014,0
2132,40050,0
2132,40028,0
2128,40003,0
2134,40056,0
2144,40026,0
2140,40007,0
2152,40023,0
2160,40037,0
2164,40029,0
2156,40054,0
2160,40020,0
2160,40026,0
2160,40043,0
2152,40051,0
2146,40038,0
2088,40023,0
2128,40037,0
2112,40059,0
2100,40027,0
2092,40019,0
2088,40042,0
2080,40026,0
2080,40024,0
2080,40041,0
2068,40021,0
2072,40010,0
2072,40066,0
2088,40026,0
2089,40010,0
2100,40042,0
2114,40021,0
2116,40016,0
2130,40053,0
2124,40028,0
2128,40001,0
2134,40045,0
2132,40033,0
2134,40016,0
2130,40015,0
2140,40019,0
2140,40027,0
2132,40040,0
2144,40023,0
2152,40009,0
2152,39991,0
2176,40059,0
2168,40024,0
2180,39994,0
2184,40032,0
2188,40010,0
2192,40016,0
2188,40047,0
2184,40010,0
2184,39999,0
2164,40036,0
2152,40028,0
2136,40009,0
2114,40037,0
2098,40007,0
2085,40019,0
2080,40041,0
2080,40017,0
2064,40003,0
2068,40026,0
2072,40026,0
2070,40020,0
2084,40036,0
2100,40018,0
2114,40002,0
2130,40039,0
2148,40010,0
2148,40017,0
2152,39995,0
2156,40026,0
2160,40025,0
2162,40022,0
2248,40016,0
2136,40027,0
2145,40014,0
2128,40003,0
2120,40041,0
2108,40008,0
2116,39991,0
2104,40049,0
2104,40019,0
2104,39999,0
2104,40024,0
2105,40020,0
2120,40026,0
2128,40043,0
2120,40017,0
2116,40010,0
2112,40042,0
2114,40016,0
2112,40019,0
2100,40036,0
2096,40005,0
2084,40032,0
2084,40041,0
2084,40018,0
2080,40019,0
2080,40044,0
2144,40029,0
2080,40024,0
2088,40011,0
2084,40031,0
2088,40036,0
2096,40027,0
2104,40010,0
2112,40038,0
2100,40016,0
2108,40023,0
2100,40045,0
2097,40011,0
2104,40017,0
2080,40033,0
2080,40033,0
2064,40019,0
2044,40039,0
2040,40014,0
2040,40018,0
2032,40057,0
2036,40028,0
2021,40018,0
2028,40033,0
2048,40029,0
2048,40022,0
2052,40041,0
2064,40018,0
2080,40018,0
2084,40054,0
2093,40027,0
2096,40029,0
2102,40028,0
2104,40050,0
2084,40033,0
2084,40023,0
2112,40037,0
2120,40046,0
2132,40032,0
2133,40018,0
2144,40053,0
2144,40027,0
2160,40020,0
2152,40049,0
2144,40032,0
2136,40036,0
2132,40041,0
2128,40036,0
2132,40023,0
2136,40015,0
2144,40074,0
2146,40022,0
2152,40014,0
2164,40052,0
2168,40032,0
2180,40020,0
2188,40050,0
2196,40023,0
2194,39999,0
2208,40042,0
2208,40028,0
2208,40014,0
2208,40042,0
2201,40019,0
2188,40006,0
2176,40044,0
2176,39999,0
2154,39999,0
2156,39999,0
2148,39999,0
2152,39999,0
2152,39999,0
2162,40008,0
2160,40025,0
2160,40025,0
2160,40025,0
2160,40025,0
2160,40025,0
2156,40025,0
2144,40025,0
2132,40023,0
2116,40023,0
2104,40023,0
2096,40023,0
2088,40023,0
2072,40023,0
2052,40023,0
2048,40050,0
2041,40050,0
2048,40050,0
2048,40050,0
2052,40050,0
2066,40050,0
2072,40050,0
2080,40023,0
2100,40034,0
2108,40034,0
2116,40055,0
2132,40022,0
2124,40024,0
2128,40032,0
2128,40023,0
2120,40032,0
2112,40047,0
2104,40017,0
2096,40021,0
2096,40052,0
2088,40033,0
2092,40027,0
2080,40045,0
2084,40025,0
2084,40040,0
2088,40050,0
2092,40038,0
2096,40030,0
2104,40041,0
2098,40051,0
2100,40034,0
2096,40036,0
2096,40042,0
2084,40028,0
2080,40041,0
2068,40054,0
2072,40025,0
2081,40040,0
2080,40057,0
2096,40034,0
2100,40032,0
2120,40042,0
2128,40030,0
2144,40053,0
2138,40053,0
2137,40049,0
2140,40028,0
2128,40040,0
2128,40050,0
2128,40028,0
2112,40038,0
2112,40042,0
2096,40042,0
2084,40039,0
2073,40059,0
2072,40036,0
2068,40022,0
2068,40069,0
2072,40038,0
2092,40024,0
2092,40059,0
2104,40037,0
2120,40037,0
2128,40060,0
2136,40045,0
2144,40024,0
2154,40074,0
2156,40043,0
2152,40031,0
2154,40030,0
2148,40022,0
2144,40056,0
2136,40043,0
2120,40063,0
2124,40042,0
2120,40033,0
2114,40071,0
2120,40040,0
2120,40036,0
2112,40061,0
2120,40037,0
2128,40062,0
2120,40067,0
2128,40041,0
2124,40031,0
2136,40064,0
2130,40049,0
2120,40051,0
2112,40075,0
2104,40036,0
2089,40058,0
2088,40071,0
2068,40051,0
2068,40039,0
2064,40062,0
2065,40062,0
2069,40047,0
2064,40078,0
2074,40047,0
2082,40046,0
2092,40085,0
2104,40037,0
2104,40052,0
2129,40051,0
2128,40053,0
2128,40052,0
2144,40070,0
2128,40053,0
2128,40052,0
2120,40082,0
2105,40057,0
2090,40051,0
2112,40070,0
2068,40052,0
2072,40060,0
2056,40079,0
2064,40044,0
2052,40053,0
2060,40081,0
2050,40054,0
2064,40057,0
2072,40068,0
2072,40044,0
2080,40069,0
2082,40084,0
2096,40054,0
2088,40060,0
2089,40078,0
2100,40062,0
2092,40055,0
2092,40081,0
2086,40055,0
2092,40053,0
2088,40092,0
2088,40052,0
2098,40073,0
2098,40078,0
2112,40061,0
2168,40074,0
2120,40072,0
2120,40082,0
2128,40062,0
2146,40075,0
2152,40105,0
2172,40056,0
2196,40036,0
2232,40087,0
2276,40076,0
2304,40047,0
2324,40095,0
2338,40063,0
2352,40050,0
2344,40096,0
2344,40067,0
2340,40050,0
2336,40093,0
2330,40081,0
2324,40068,0
2324,40087,0
2328,40079,0
2320,40047,0
2324,40106,0
2320,40064,0
2332,40065,0
2332,40088,0
2344,40092,0
2368,40066,0
2384,40093,0
2408,40073,0
2440,40086,0
2465,40069,0
2468,40103,0
2476,40069,0
2480,40069,0
2480,40081,0
2468,40090,0
2472,40076,0
2458,40100,0
2440,40068,0
2424,40061,0
2420,40117,0
2392,40081,0
2378,40071,0
2360,40099,0
2340,40086,0
2320,40066,0
2304,40096,0
2280,40073,0
2264,40048,0
2250,40110,0
2224,40084,0
2204,40061,0
2192,40099,0
2184,40078,0
2184,40072,0
2180,40111,0
2173,40084,0
2180,40092,0
2170,40097,0
2284,40083,0
2194,40088,0
2196,40091,0
2218,40103,0
2208,40096,0
2212,40104,0
2212,40112,0
2208,40076,0
2208,40085,0
2196,40121,0
2176,40090,0
2164,40095,0
2160,40104,0
2144,40078,0
2128,40097,0
2116,40112,0
2112,40088,0
2104,40086,0
2112,40115,0
2097,40106,0
2098,40100,0
2106,40111,0
2112,40099,0
2120,40101,0
2136,40125,0
2144,40096,0
2148,40093,0
2152,40109,0
2168,40112,0
2168,40095,0
2164,40102,0
2168,40098,0
2160,40093,0
2160,40127,0
2176,40096,0
2160,40115,0
2168,40093,0
2164,40112,0
2176,40126,0
2180,40092,0
2176,40095,0
2185,40107,0
2184,40100,0
2196,40110,0
2186,40114,0
2200,40085,0
2185,40100,0
2184,40130,0
2184,40103,0
2176,40112,0
2168,40119,0
2144,40098,0
2136,40110,0
2132,40129,0
2122,40098,0
2112,40094,0
2117,40129,0
2114,40113,0
2120,40124,0
2132,40137,0
2144,40114,0
2170,40124,0
2176,40107,0
2176,40115,0
2184,40114,0
2180,40127,0
2178,40113,0
2180,40115,0
2164,40145,0
2154,40120,0
2144,40114,0
2120,40127,0
2112,40122,0
2088,40116,0
2080,40113,0
2066,40134,0
2056,40115,0
2056,40117,0
2056,40137,0
2056,40104,0
2048,40144,0
2056,40138,0
2056,40114,0
2064,40117,0
2068,40145,0
2074,40131,0
2088,40141,0
2085,40127,0
2096,40114,0
2106,40134,0
2121,40147,0
2136,40113,0
2144,40133,0
2160,40124,0
2184,40163,0
2208,40122,0
2240,40122,0
2280,40134,0
2336,40127,0
2400,40169,0
2456,40137,0
2520,40126,0
2576,40142,0
2632,40124,0
2692,40137,0
2736,40148,0
2784,40126,0
2832,40125,0
2874,40171,0
2912,40148,0
2938,40133,0
2952,40153,0
2964,40133,0
2976,40151,0
2964,40148,0
2944,40146,0
2900,40136,0
2856,40145,0
2808,40172,0
2752,40136,0
2704,40124,0
2632,40160,0
2578,40138,0
2528,40138,0
2452,40162,0
2400,40140,0
2340,40134,0
2272,40145,0
2210,40163,0
2152,40156,0
2112,40144,0
2064,40161,0
2020,40147,0
1976,40152,0
1956,40171,0
1924,40142,0
1904,40152,0
1880,40177,0
1880,40138,0
1868,40137,0
1864,40164,0
1844,40150,0
1848,40153,0
1856,40161,0
1840,40151,0
1842,40141,0
1840,40182,0
1840,40161,0
1840,40140,0
1824,40161,0
1824,40167,0
1829,40154,0
1816,40137,0
1816,40175,0
1830,40142,0
1840,40149,0
1848,40182,0
1864,40154,0
1876,40152,0
1896,40164,0
1920,40190,0
1930,40157,0
1960,40180,0
1964,40148,0
1972,40151,0
1980,40180,0
1976,40160,0
1984,40146,0
1992,40172,0
1984,40151,0
1984,40167,0
1984,40175,0
1970,40156,0
2080,40145,0
1976,40186,0
1980,40154,0
1972,40159,0
1984,40177,0
1994,40143,0
2000,40175,0
2016,40192,0
2032,40160,0
2040,40158,0
2056,40179,0
2072,40170,0
2084,40163,0
2096,40192,0
2096,40154,0
2106,40177,0
2112,40196,0
2112,40165,0
2116,40165,0
2120,40183,0
2121,40173,0
2122,40164,0
2128,40174,0
2133,40181,0
2136,40157,0
2144,40178,0
2224,40196,0
2162,40165,0
2176,40176,0
2176,40196,0
2192,40184,0
2196,40170,0
2192,40194,0
2193,40165,0
2192,40183,0
2186,40202,0
2176,40170,0
2168,40168,0
2160,40187,0
2152,40180,0
2144,40175,0
2152,40200,0
2156,40180,0
2156,40173,0
2162,40202,0
2180,40177,0
2185,40170,0
2196,40172,0
2212,40194,0
2224,40200,0
2232,40201,0
2244,40186,0
2240,40173,0
2240,40200,0
2248,40185,0
2240,40199,0
2224,40179,0
2213,40188,0
2196,40209,0
2196,40188,0
2184,40171,0
2176,40211,0
2176,40184,0
2180,40186,0
2176,40219,0
2180,40180,0
2188,40186,0
2184,40210,0
2200,40197,0
2201,40197,0
2212,40210,0
2216,40188,0
2218,40212,0
2220,40211,0
2229,40192,0
2218,40196,0
2248,40217,0
2264,40207,0
2290,40191,0
2320,40216,0
2356,40200,0
2400,40222,0
2468,40206,0
2552,40206,0
2640,40205,0
2720,40194,0
2800,40229,0
2868,40198,0
2928,40204,0
2976,40227,0
2996,40202,0
3024,40213,0
3024,40220,0
3012,40215,0
3000,40197,0
2992,40224,0
2960,40219,0
2920,40205,0
2888,40215,0
2848,40200,0
2832,40205,0
2788,40200,0
2768,40238,0
2736,40199,0
2720,40191,0
2700,40248,0
2688,40205,0
2692,40191,0
2672,40233,0
2677,40209,0
2664,40196,0
2650,40223,0
2642,40219,0
2594,40210,0
2624,40209,0
2600,40210,0
2584,40196,0
2600,40196,0
2600,40229,0
2616,40222,0
2640,40207,0
2672,40227,0
2688,40198,0
2720,40186,0
2740,40248,0
2760,40215,0
2788,40194,0
2810,40230,0
2816,40210,0
2840,40213,0
2840,40236,0
2852,40211,0
2880,40209,0
2872,40255,0
2888,40222,0
2880,40206,0
2866,40235,0
2856,40209,0
2840,40226,0
2820,40246,0
2788,40212,0
2770,40221,0
2760,40245,0
2732,40228,0
2728,40225,0
2704,40216,0
2704,40211,0
2688,40238,0
2672,40231,0
2668,40247,0
2648,40220,0
2633,40222,0
2624,40246,0
2592,40237,0
2568,40224,0
2544,40248,0
2516,40239,0
2496,40233,0
2472,40230,0
2456,40243,0
2440,40217,0
2424,40215,0
2408,40252,0
2408,40221,0
2404,40211,0
2404,40241,0
2400,40223,0
2405,40219,0
2412,40229,0
2409,40212,0
2418,40197,0
2432,40250,0
2432,40215,0
2462,40224,0
2464,40242,0
2476,40189,0
2473,40222,0
2480,40212,0
2472,40229,0
2468,40209,0
2480,40232,0
2468,40221,0
2480,40205,0
2472,40225,0
2480,40201,0
2488,40209,0
2484,40228,0
2488,40219,0
2480,40199,0
2474,40213,0
2468,40222,0
2460,40202,0
2448,40217,0
2448,40218,0
2432,40195,0
2412,40216,0
2410,40226,0
2412,40192,0
2400,40186,0
2402,40224,0
2412,40198,0
2420,40188,0
2433,40208,0
2440,40177,0
2464,40185,0
2480,40222,0
2496,40185,0
2504,40159,0
2520,40168,0
2520,40204,0
2536,40207,0
2532,40187,0
2521,40191,0
2516,40179,0
2512,40188,0
2490,40197,0
2482,40170,0
2464,40162,0
2452,40189,0
2440,40204,0
2434,40172,0
2432,40161,0
2428,40185,0
2420,40176,0
2416,40166,0
2416,40185,0
2416,40157,0
2418,40149,0
2412,40200,0
2408,40156,0
2400,40151,0
2400,40174,0
2386,40158,0
2388,40143,0
2376,40180,0
2360,40146,0
2352,40134,0
2344,40191,0
2329,40157,0
2336,40159,0
2314,40161,0
2312,40162,0
2308,40164,0
2304,40145,0
2304,40161,0
2308,40152,0
2304,40137,0
2308,40180,0
2316,40146,0
2312,40120,0
2298,40160,0
2292,40143,0
2288,40130,0
2276,40164,0
2264,40140,0
2248,40128,0
2234,40177,0
2224,40139,0
2218,40124,0
2200,40161,0
2204,40131,0
2200,40133,0
2200,40155,0
2208,40135,0
2224,40106,0
2226,40176,0
2240,40139,0
2244,40110,0
2272,40166,0
2272,40118,0
2280,40121,0
2284,40136,0
2292,40133,0
2290,40134,0
2288,40135,0
2274,40148,0
2264,40146,0
2272,40132,0
2256,40131,0
2250,40150,0
2244,40139,0
2234,40114,0
2232,40158,0
2234,40111,0
2232,40109,0
2232,40154,0
2288,40123,0
2240,40105,0
2232,40146,0
2241,40129,0
2234,40108,0
2228,40142,0
2228,40119,0
2210,40097,0
2209,40160,0
2196,40123,0
2194,40104,0
2200,40156,0
2196,40121,0
2192,40120,0
2200,40141,0
2210,40126,0
2224,40100,0
2232,40119,0
2244,40149,0
2272,40118,0
2276,40122,0
2292,40129,0
2292,40123,0
2297,40123,0
2308,40144,0
2304,40109,0
2288,40111,0
2288,40144,0
2273,40117,0
2256,40125,0
2244,40134,0
2232,40117,0
2224,40128,0
2216,40134,0
2209,40106,0
2208,40111,0
2216,40144,0
2216,40111,0
2224,40115,0
2220,40134,0
2240,40115,0
2240,40127,0
2250,40142,0
2258,40119,0
2272,40115,0
2268,40143,0
2276,40129,0
2284,40121,0
2276,40139,0
2274,40117,0
2266,40126,0
2276,40115,0
2272,40132,0
2276,40129,0
2272,40095,0
2288,40148,0
2288,40111,0
2288,40112,0
2296,40133,0
2304,40114,0
2308,40116,0
2392,40133,0
2308,40106,0
2305,40101,0
2304,40140,0
2304,40115,0
2292,40116,0
2284,40129,0
2272,40108,0
2264,40118,0
2256,40149,0
2248,40100,0
2232,40113,0
2229,40128,0
2240,40105,0
2228,40108,0
2240,40134,0
2244,40098,0
2248,40111,0
2264,40141,0
2282,40120,0
2300,40104,0
2304,40109,0
2308,40141,0
2304,40103,0
2308,40112,0
2308,40102,0
2264,40125,0
2288,40110,0
2288,40107,0
2272,40120,0
2256,40101,0
2244,40104,0
2236,40141,0
2228,40096,0
2240,40103,0
2224,40109,0
2236,40109,0
2240,40114,0
2248,40110,0
2244,40117,0
2248,40096,0
2260,40112,0
2248,40138,0
2256,40090,0
2250,40082,0
2256,40127,0
2252,40112,0
2252,40086,0
2248,40121,0
2240,40093,0
2248,40077,0
2244,40125,0
2256,40101,0
2248,40122,0
2260,40087,0
2272,40132,0
2272,40149,0
2280,40100,0
2296,40104,0
2290,40120,0
2304,40112,0
2304,40110,0
2304,40119,0
2300,40108,0
2300,40101,0
2284,40119,0
2276,40115,0
2266,40105,0
2244,40102,0
2240,40129,0
2232,40112,0
2208,40095,0
2200,40144,0
2208,40106,0
2192,40098,0
2200,40140,0
2212,40108,0
2224,40088,0
2229,40134,0
2244,40114,0
2256,40089,0
2268,40129,0
2290,40104,0
2296,40102,0
2304,40136,0
2308,40124,0
2298,40096,0
2392,40112,0
2304,40140,0
2304,40116,0
2292,40106,0
2284,40133,0
2284,40107,0
2282,40128,0
2280,40135,0
2280,40115,0
2280,40106,0
2288,40109,0
2290,40136,0
2288,40117,0
2288,40105,0
2292,40121,0
2284,40116,0
2284,40115,0
2280,40135,0
2272,40110,0
2264,40102,0
2252,40139,0
2248,40117,0
2244,40096,0
2240,40138,0
2240,40106,0
2240,40106,0
2248,40133,0
2256,40107,0
2258,40092,0
2272,40120,0
2284,40129,0
2298,40118,0
2308,40115,0
2312,40125,0
2320,40108,0
2324,40122,0
2320,40133,0
2316,40103,0
2314,40107,0
2296,40151,0
2280,40119,0
2264,40108,0
2249,40126,0
2248,40114,0
2240,40124,0
2232,40131,0
2220,40130,0
2224,40099,0
2216,40108,0
2224,40146,0
2224,40114,0
2232,40111,0
2242,40133,0
2248,40120,0
2264,40101,0
2260,40134,0
2280,40109,0
2272,40090,0
2280,40144,0
2280,40116,0
2280,40126,0
2268,40101,0
2272,40110,0
2272,40132,0
2272,40106,0
2272,40106,0
2276,40093,0
2284,40132,0
2280,40109,0
2288,40093,0
2296,40126,0
2296,40100,0
2296,40113,0
2296,40132,0
2296,40110,0
2292,40089,0
2281,40127,0
2276,40123,0
2266,40098,0
2256,40132,0
2234,40095,0
2226,40102,0
2218,40141,0
2216,40109,0
2224,40093,0
2224,40120,0
2228,40110,0
2240,40104,0
2248,40133,0
2258,40105,0
2272,40086,0
2288,40140,0
2300,40126,0
2304,40118,0
2328,40094,0
2336,40116,0
2328,40107,0
2328,40099,0
2320,40103,0
2316,40131,0
2304,40106,0
2296,40127,0
2280,40125,0
2288,40107,0
2280,40108,0
2272,40138,0
2272,40119,0
2268,40120,0
2266,40127,0
2272,40102,0
2276,40116,0
2280,40133,0
2282,40116,0
2292,40102,0
2288,40108,0
2288,40135,0
2288,40106,0
2284,40115,0
2290,40126,0
2281,40124,0
2276,40116,0
2288,40139,0
2276,40111,0
2280,40094,0
2280,40118,0
2280,40133,0
2288,40114,0
2296,40108,0
2292,40115,0
2296,40127,0
2304,40121,0
2304,40131,0
2304,40116,0
2304,40114,0
2296,40142,0
2304,40121,0
2288,40112,0
2272,40126,0
2264,40129,0
2256,40115,0
2240,40136,0
2240,40124,0
2228,40110,0
2228,40153,0
2224,40119,0
2224,40125,0
2224,40133,0
2232,40121,0
2244,40127,0
2257,40144,0
2274,40129,0
2280,40116,0
2292,40149,0
2308,40130,0
2314,40118,0
2312,40119,0
2320,40118,0
2320,40146,0
2324,40146,0
2312,40108,0
2308,40108,0
2300,40092,0
2290,40154,0
2284,40102,0
2280,40106,0
2280,40133,0
2272,40128,0
2276,40107,0
2280,40141,0
2282,40108,0
2288,40094,0
2292,40148,0
2288,40122,0
2300,40108,0
2292,40142,0
2288,40107,0
2288,40125,0
2274,40128,0
2272,40116,0
2260,40112,0
2261,40153,0
2256,40132,0
2248,40112,0
2256,40145,0
2256,40117,0
2274,40120,0
2280,40147,0
2292,40119,0
2304,40141,0
2312,40129,0
2328,40134,0
2344,40127,0
2352,40144,0
2368,40100,0
2360,40147,0
2360,40138,0
2352,40106,0
2340,40148,0
2324,40122,0
2368,40119,0
2316,40166,0
2296,40128,0
2284,40113,0
2276,40137,0
2272,40134,0
2272,40127,0
2272,40150,0
2266,40116,0
2276,40115,0
2288,40163,0
2288,40132,0
2288,40130,0
2296,40146,0
2292,40121,0
2304,40144,0
2304,40155,0
2312,40123,0
2312,40124,0
2314,40168,0
2301,40138,0
2304,40136,0
2306,40131,0
2312,40158,0
2320,40167,0
2324,40144,0
2336,40134,0
2338,40125,0
2352,40149,0
2356,40143,0
2360,40123,0
2368,40163,0
2376,40126,0
2370,40127,0
2368,40177,0
2368,40132,0
2352,40112,0
2344,40151,0
2338,40148,0
2322,40130,0
2308,40153,0
2292,40134,0
2281,40118,0
2274,40168,0
2272,40135,0
2272,40128,0
2276,40158,0
2282,40150,0
2293,40133,0
2300,40156,0
2320,40143,0
2336,40121,0
2344,40178,0
2344,40159,0
2360,40150,0
2360,40151,0
2356,40141,0
2356,40160,0
2336,40145,0
2328,40164,0
2336,40129,0
2360,40145,0
2308,40175,0
2296,40143,0
2292,40146,0
2288,40173,0
2282,40156,0
2296,40161,0
2292,40170,0
2296,40138,0
2292,40135,0
2304,40181,0
2304,40152,0
2320,40146,0
2316,40167,0
2308,40154,0
2304,40165,0
2296,40175,0
2304,40161,0
2292,40144,0
2292,40162,0
2292,40170,0
2292,40142,0
2292,40151,0
2285,40168,0
2304,40157,0
2308,40152,0
2288,40167,0
2336,40153,0
2352,40161,0
2360,40164,0
2372,40157,0
2388,40173,0
2384,40145,0
2384,40145,0
2384,40186,0
2384,40160,0
2370,40156,0
2360,40182,0
2364,40156,0
2368,40149,0
2328,40181,0
2320,40155,0
2308,40145,0
2312,40189,0
2312,40164,0
2296,40133,0
2304,40180,0
2304,40145,0
2308,40156,0
2320,40182,0
2336,40160,0
2336,40136,0
2344,40191,0
2364,40168,0
2372,40140,0
2362,40174,0
2368,40153,0
2368,40188,0
2376,40161,0
2368,40171,0
2362,40157,0
2344,40143,0
2344,40198,0
2336,40172,0
2336,40155,0
2340,40185,0
2332,40156,0
2325,40163,0
2328,40179,0
2324,40156,0
2336,40152,0
2332,40190,0
2328,40168,0
2336,40145,0
2328,40191,0
2320,40152,0
2312,40164,0
2304,40189,0
2288,40158,0
2282,40150,0
2272,40192,0
2280,40174,0
2272,40161,0
2272,40187,0
2276,40170,0
2282,40159,0
2292,40197,0
2328,40194,0
2338,40177,0
2360,40174,0
2368,40171,0
2376,40178,0
2376,40161,0
2384,40168,0
2384,40186,0
2384,40168,0
2368,40168,0
2362,40191,0
2348,40174,0
2336,40165,0
2324,40200,0
2316,40176,0
2312,40169,0
2308,40163,0
2296,40194,0
2304,40172,0
2308,40169,0
2314,40191,0
2316,40166,0
2336,40171,0
2324,40206,0
2344,40173,0
2340,40166,0
2344,40195,0
2352,40185,0
2344,40153,0
2354,40200,0
2344,40167,0
2340,40152,0
2336,40194,0
2336,40176,0
2336,40167,0
2328,40168,0
2328,40202,0
2329,40181,0
2337,40174,0
2338,40195,0
2336,40168,0
2336,40172,0
2344,40204,0
2353,40176,0
2344,40178,0
2348,40197,0
2336,40202,0
2336,40178,0
2336,40202,0
2320,40178,0
2320,40183,0
2304,40209,0
2292,40174,0
2289,40185,0
2288,40193,0
2280,40190,0
2288,40195,0
2292,40202,0
2296,40178,0
2308,40178,0
2322,40216,0
2332,40196,0
2348,40177,0
2368,40199,0
2372,40179,0
2376,40206,0
2380,40205,0
2386,40185,0
2384,40181,0
2376,40199,0
2360,40184,0
2352,40218,0
2332,40187,0
2320,40165,0
2304,40225,0
2288,40197,0
2280,40173,0
2277,40201,0
2272,40194,0
2272,40186,0
2268,40216,0
2264,40187,0
2260,40162,0
2264,40220,0
2256,40203,0
2264,40177,0
2248,40201,0
2250,40185,0
2260,40190,0
2252,40223,0
2252,40192,0
2256,40179,0
2264,40206,0
2284,40205,0
2312,40184,0
2336,40221,0
2360,40214,0
2392,40223,0
2444,40230,0
2500,40185,0
2548,40196,0
2616,40174,0
2674,40221,0
2736,40199,0
2794,40187,0
2848,40223,0
2888,40195,0
2936,40192,0
2984,40229,0
3008,40190,0
3044,40182,0
3088,40223,0
3112,40210,0
3136,40196,0
3152,40226,0
3152,40203,0
3160,40197,0
3152,40242,0
3104,40207,0
3072,40199,0
3016,40224,0
2960,40211,0
2904,40211,0
2840,40234,0
2772,40211,0
2704,40199,0
2624,40237,0
2552,40216,0
2480,40220,0
2404,40229,0
2336,40207,0
2272,40215,0
2224,40196,0
2176,40234,0
2128,40217,0
2088,40218,0
2064,40237,0
2042,40223,0
2038,40211,0
2016,40227,0
2004,40223,0
2004,40217,0
2000,40235,0
2002,40221,0
2000,40198,0
2000,40219,0
1996,40238,0
1984,40220,0
1984,40207,0
1984,40237,0
1984,40233,0
1976,40197,0
1976,40247,0
1984,40208,0
2000,40211,0
2002,40241,0
2024,40221,0
2053,40203,0
2060,40241,0
2084,40226,0
2120,40225,0
2124,40227,0
2154,40223,0
2178,40229,0
2180,40234,0
2208,40228,0
2208,40226,0
2228,40239,0
2224,40225,0
2216,40237,0
2212,40248,0
2212,40219,0
2212,40220,0
2304,40260,0
2208,40218,0
2220,40228,0
2224,40251,0
2217,40215,0
2228,40237,0
2232,40262,0
2248,40225,0
2256,40240,0
2264,40249,0
2289,40233,0
2288,40238,0
2288,40254,0
2296,40223,0
2304,40238,0
2304,40264,0
2312,40241,0
2304,40228,0
2292,40246,0
2296,40242,0
2312,40248,0
2312,40242,0
2316,40229,0
2312,40243,0
2328,40250,0
2348,40255,0
2356,40249,0
2368,40237,0
2384,40254,0
2376,40269,0
2380,40246,0
2380,40238,0
2380,40265,0
2380,40247,0
2376,40230,0
2368,40259,0
2356,40236,0
2336,40223,0
2328,40285,0
2320,40255,0
2312,40230,0
2304,40262,0
2304,40253,0
2304,40236,0
2314,40257,0
2316,40240,0
2328,40220,0
2338,40278,0
2356,40250,0
2356,40233,0
2368,40269,0
2368,40246,0
2368,40248,0
2368,40255,0
2368,40262,0
2360,40238,0
2352,40248,0
2336,40279,0
2324,40246,0
2312,40246,0
2304,40282,0
2296,40250,0
2290,40263,0
2296,40273,0
2288,40259,0
2296,40254,0
2298,40280,0
2308,40255,0
2312,40257,0
2320,40276,0
2320,40255,0
2320,40262,0
2330,40275,0
2320,40283,0
2324,40255,0
2320,40262,0
2312,40293,0
2312,40256,0
2312,40243,0
2312,40277,0
2312,40256,0
2320,40252,0
2328,40282,0
2340,40249,0
2348,40266,0
2356,40267,0
2368,40254,0
2380,40252,0
2400,40259,0
2392,40285,0
2388,40263,0
2392,40254,0
2384,40292,0
2380,40251,0
2376,40260,0
2360,40295,0
2344,40259,0
2336,40257,0
2312,40280,0
2308,40270,0
2296,40269,0
2298,40281,0
2288,40256,0
2288,40263,0
2296,40299,0
2304,40261,0
2320,40266,0
2320,40278,0
2330,40274,0
2336,40281,0
2352,40292,0
2348,40275,0
2372,40275,0
2368,40296,0
2376,40288,0
2372,40285,0
2368,40293,0
2324,40283,0
2354,40295,0
2352,40290,0
2352,40275,0
2352,40267,0
2352,40297,0
2352,40283,0
2352,40270,0
2352,40308,0
2354,40270,0
2352,40282,0
2352,40310,0
2352,40274,0
2352,40271,0
2344,40297,0
2348,40287,0
2340,40285,0
2336,40295,0
2324,40269,0
2308,40288,0
2320,40310,0
2312,40282,0
2320,40277,0
2312,40306,0
2320,40286,0
2328,40298,0
2336,40306,0
2352,40279,0
2368,40270,0
2376,40288,0
2400,40289,0
2402,40298,0
2400,40296,0
2416,40263,0
2416,40292,0
2408,40286,0
2400,40300,0
2388,40284,0
2380,40280,0
2368,40308,0
2356,40276,0
2340,40277,0
2336,40297,0
2312,40292,0
2336,40291,0
2312,40301,0
2312,40273,0
2320,40282,0
2328,40310,0
2336,40290,0
2336,40276,0
2336,40297,0
2344,40271,0
2352,40283,0
2353,40296,0
2368,40272,0
2368,40262,0
2354,40292,0
2352,40290,0
2352,40272,0
2352,40295,0
2344,40265,0
2356,40281,0
2356,40287,0
2360,40243,0
2372,40273,0
2376,40253,0
2400,40261,0
2400,40293,0
2410,40256,0
2420,40246,0
2416,40280,0
2418,40258,0
2424,40241,0
2408,40276,0
2408,40244,0
2400,40226,0
2380,40275,0
2372,40242,0
2356,40229,0
2348,40258,0
2328,40251,0
2320,40237,0
2328,40270,0
2320,40230,0
2320,40222,0
2320,40274,0
2332,40243,0
2341,40237,0
2348,40245,0
2368,40242,0
2380,40232,0
2384,40267,0
2400,40239,0
2402,40224,0
2402,40238,0
2400,40236,0
2394,40215,0
2392,40221,0
2384,40227,0
2376,40252,0
2368,40220,0
2368,40206,0
2368,40237,0
2352,40211,0
2360,40212,0
2346,40245,0
2356,40213,0
2368,40197,0
2368,40237,0
2370,40221,0
2372,40190,0
2368,40226,0
2368,40210,0
2368,40214,0
2368,40238,0
2352,40205,0
2344,40205,0
2336,40221,0
2328,40217,0
2320,40206,0
2324,40224,0
2316,40194,0
2320,40202,0
2320,40222,0
2336,40199,0
2336,40205,0
2356,40187,0
2376,40218,0
2380,40209,0
2376,40184,0
2376,40175,0
2378,40203,0
2376,40203,0
2361,40169,0
2352,40212,0
2352,40181,0
2336,40165,0
2324,40211,0
2308,40179,0
2304,40164,0
2280,40197,0
2280,40186,0
2344,40173,0
2268,40211,0
2272,40177,0
2272,40156,0
2288,40203,0
2280,40188,0
2296,40172,0
2308,40194,0
2320,40176,0
2320,40185,0
2324,40205,0
2328,40167,0
2329,40168,0
2328,40187,0
2336,40176,0
2338,40174,0
2328,40196,0
2336,40170,0
2320,40187,0
2324,40171,0
2336,40190,0
2328,40161,0
2328,40149,0
2329,40201,0
2324,40164,0
2336,40151,0
2384,40174,0
2336,40163,0
2348,40154,0
2344,40184,0
2336,40162,0
2336,40137,0
2336,40194,0
2320,40177,0
2304,40153,0
2306,40181,0
2288,40151,0
2280,40158,0
2272,40182,0
2281,40165,0
2282,40141,0
2288,40175,0
2288,40170,0
2300,40152,0
2320,40175,0
2328,40155,0
2328,40155,0
2340,40174,0
2344,40172,0
2344,40184,0
2352,40154,0
2336,40151,0
2336,40193,0
2324,40149,0
2312,40138,0
2312,40173,0
2288,40164,0
2276,40151,0
2272,40178,0
2272,40153,0
2264,40137,0
2276,40174,0
2264,40139,0
2280,40147,0
2288,40167,0
2288,40158,0
2304,40166,0
2304,40175,0
2312,40142,0
2316,40148,0
2328,40180,0
2320,40159,0
2324,40145,0
2324,40162,0
2320,40155,0
2320,40157,0
2316,40168,0
2312,40166,0
2304,40130,0
2304,40160,0
2304,40166,0
2296,40150,0
2296,40141,0
2308,40120,0
2304,40176,0
2308,40148,0
2304,40127,0
2400,40161,0
2308,40136,0
2312,40132,0
2312,40169,0
2308,40143,0
2308,40129,0
2304,40165,0
2284,40137,0
2280,40133,0
2276,40159,0
2256,40130,0
2264,40135,0
2260,40175,0
2256,40137,0
2260,40131,0
2260,40148,0
2272,40143,0
2288,40135,0
2304,40151,0
2312,40127,0
2328,40123,0
2332,40169,0
2344,40131,0
2348,40140,0
2352,40131,0
2352,40144,0
2308,40176,0
2336,40135,0
2320,40150,0
2320,40136,0
2308,40136,0
2304,40163,0
2304,40142,0
2280,40133,0
2280,40137,0
2288,40168,0
2280,40140,0
2276,40142,0
2292,40150,0
2304,40128,0
2300,40142,0
2304,40160,0
2296,40126,0
2304,40111,0
2292,40166,0
2290,40141,0
2288,40110,0
2288,40146,0
2276,40121,0
2280,40131,0
2276,40162,0
2276,40119,0
2284,40136,0
2292,40151,0
2320,40132,0
2336,40130,0
2344,40151,0
2360,40139,0
2368,40157,0
2368,40142,0
2392,40139,0
2376,40144,0
2376,40142,0
2380,40129,0
2360,40134,0
2344,40161,0
2336,40127,0
2324,40110,0
2306,40174,0
2304,40141,0
2292,40105,0
2288,40159,0
2281,40133,0
2276,40135,0
2272,40153,0
2274,40120,0
2280,40124,0
2296,40149,0
2304,40133,0
2320,40138,0
2320,40159,0
2320,40120,0
2336,40141,0
2337,40157,0
2346,40126,0
2342,40120,0
2392,40132,0
2340,40158,0
2340,40129,0
2344,40144,0
2340,40129,0
2346,40142,0
2344,40144,0
2352,40150,0
2356,40139,0
2356,40116,0
2368,40142,0
2368,40144,0
2372,40123,0
2376,40129,0
2372,40145,0
2372,40150,0
2360,40115,0
2368,40157,0
2346,40123,0
2328,40107,0
2324,40160,0
2308,40122,0
2304,40111,0
2290,40155,0
2292,40128,0
2288,40123,0
2288,40150,0
2304,40129,0
2304,40109,0
2314,40163,0
2324,40136,0
2328,40127,0
2336,40126,0
2340,40121,0
2344,40163,0
2338,40131,0
2336,40138,0
2336,40117,0
2322,40125,0
2320,40158,0
2304,40133,0
2292,40126,0
2280,40154,0
2280,40135,0
2272,40142,0
2280,40146,0
2264,40145,0
2268,40128,0
2268,40160,0
2272,40138,0
2280,40132,0
2276,40147,0
2288,40144,0
2292,40147,0
2304,40146,0
2308,40147,0
2304,40129,0
2312,40136,0
2304,40150,0
2312,40129,0
2308,40097,0
2304,40141,0
2304,40138,0
2304,40120,0
2312,40127,0
2312,40138,0
2316,40130,0
2328,40136,0
2324,40135,0
2325,40116,0
2336,40096,0
2336,40147,0
2344,40133,0
2352,40110,0
2348,40146,0
2345,40115,0
2340,40105,0
2320,40150,0
2321,40114,0
2316,40113,0
2304,40138,0
2296,40130,0
2282,40103,0
2272,40144,0
2272,40121,0
2276,40104,0
2276,40158,0
2277,40116,0
2282,40099,0
2290,40127,0
2308,40112,0
2308,40123,0
2328,40140,0
2344,40121,0
2344,40094,0
2356,40149,0
2356,40151,0
2360,40124,0
2372,40108,0
2360,40121,0
2356,40136,0
2348,40126,0
2344,40139,0
2328,40123,0
2336,40122,0
2320,40154,0
2314,40122,0
2308,40133,0
2312,40140,0
2298,40128,0
2305,40134,0
2304,40146,0
2312,40134,0
2304,40117,0
2300,40148,0
2304,40147,0
2292,40126,0
2288,40112,0
2292,40150,0
2277,40130,0
2272,40113,0
2276,40141,0
2272,40115,0
2272,40109,0
2272,40166,0
2289,40126,0
2288,40109,0
2301,40136,0
2320,40130,0
2336,40123,0
2338,40147,0
2368,40122,0
2368,40136,0
2376,40129,0
2384,40141,0
2384,40111,0
2384,40119,0
2372,40140,0
2352,40135,0
2344,40113,0
2340,40140,0
2320,40111,0
2312,40125,0
2296,40145,0
2288,40109,0
2288,40117,0
2284,40131,0
2288,40122,0
2280,40135,0
2280,40137,0
2292,40119,0
2304,40121,0
2305,40164,0
2304,40120,0
2313,40124,0
2324,40147,0
2324,40117,0
2328,40135,0
2330,40156,0
2330,40120,0
2324,40115,0
2320,40124,0
2330,40124,0
2324,40126,0
2328,40163,0
2328,40117,0
2336,40127,0
2344,40154,0
2356,40121,0
2368,40119,0
2376,40139,0
2392,40133,0
2388,40129,0
2384,40142,0
2384,40134,0
2384,40132,0
2376,40140,0
2364,40155,0
2356,40126,0
2340,40101,0
2320,40158,0
2312,40122,0
2304,40104,0
2288,40138,0
2280,40118,0
2280,40121,0
2280,40149,0
2292,40118,0
2292,40112,0
2312,40147,0
2320,40135,0
2328,40111,0
2337,40123,0
2352,40121,0
2368,40150,0
2368,40155,0
2368,40163,0
2368,40127,0
2368,40105,0
2352,40153,0
2388,40132,0
2340,40110,0
2332,40156,0
2316,40117,0
2312,40111,0
2306,40154,0
2300,40119,0
2300,40109,0
2296,40152,0
2308,40137,0
2312,40109,0
2308,40158,0
2316,40120,0
2320,40122,0
2320,40149,0
2316,40137,0
2320,40126,0
2320,40148,0
2312,40135,0
2312,40138,0
2296,40144,0
2308,40123,0
2296,40130,0
2302,40171,0
2304,40121,0
2304,40151,0
2321,40148,0
2328,40136,0
2348,40163,0
2352,40139,0
2364,40143,0
2372,40158,0
2384,40136,0
2376,40137,0
2380,40159,0
2384,40134,0
2368,40111,0
2360,40162,0
2356,40132,0
2336,40125,0
2320,40163,0
2304,40133,0
2304,40122,0
2280,40154,0
2276,40142,0
2266,40114,0
2280,40168,0
2272,40148,0
2280,40125,0
2292,40153,0
2304,40133,0
2312,40128,0
2320,40169,0
2332,40139,0
2344,40111,0
2356,40156,0
2354,40154,0
2344,40158,0
2352,40112,0
2340,40131,0
2344,40167,0
2328,40144,0
2328,40142,0
2320,40159,0
2320,40131,0
2320,40138,0
2308,40164,0
2308,40144,0
2324,40126,0
2320,40158,0
2324,40151,0
2320,40130,0
2336,40171,0
2324,40134,0
2336,40132,0
2328,40171,0
2312,40136,0
2314,40133,0
2296,40164,0
2288,40158,0
2292,40134,0
2276,40165,0
2282,40139,0
2284,40131,0
2284,40182,0
2304,40141,0
2302,40154,0
2312,40139,0
2328,40143,0
2348,40167,0
2354,40152,0
2368,40166,0
2368,40140,0
2376,40156,0
2368,40177,0
2376,40143,0
2356,40147,0
2344,40165,0
2330,40153,0
2320,40149,0
2312,40172,0
2298,40151,0
2288,40142,0
2272,40173,0
2264,40151,0
2264,40158,0
2264,40163,0
2264,40169,0
2272,40154,0
2274,40151,0
2290,40173,0
2296,40141,0
2292,40144,0
2304,40172,0
2312,40149,0
2304,40133,0
2312,40159,0
2312,40164,0
2312,40142,0
2316,40139,0
2312,40143,0
2320,40155,0
2320,40187,0
2320,40183,0
2328,40151,0
2338,40126,0
2348,40181,0
2360,40159,0
2356,40140,0
2360,40171,0
2372,40144,0
2372,40141,0
2368,40183,0
2360,40153,0
2354,40142,0
2352,40167,0
2332,40163,0
2320,40137,0
2306,40173,0
2296,40139,0
2280,40143,0
2272,40186,0
2264,40157,0
2262,40155,0
2264,40173,0
2264,40163,0
2277,40159,0
2290,40175,0
2308,40146,0
2312,40151,0
2325,40185,0
2340,40150,0
2344,40151,0
2348,40175,0
2356,40172,0
2352,40195,0
2356,40190,0
2360,40161,0
2344,40132,0
2330,40176,0
2320,40167,0
2320,40138,0
2304,40178,0
2304,40153,0
2281,40159,0
2280,40180,0
2282,40151,0
2280,40147,0
2292,40177,0
2298,40163,0
2292,40158,0
2304,40176,0
2304,40151,0
2304,40153,0
2304,40191,0
2306,40159,0
2304,40156,0
2304,40182,0
2304,40156,0
2288,40170,0
2288,40188,0
2284,40154,0
2284,40165,0
2300,40182,0
2296,40162,0
2304,40170,0
2304,40170,0
2320,40176,0
2324,40163,0
2328,40151,0
2348,40187,0
2352,40149,0
2360,40143,0
2360,40200,0
2360,40159,0
2356,40147,0
2336,40179,0
2328,40170,0
2324,40158,0
2298,40188,0
2296,40160,0
2280,40148,0
2274,40198,0
2272,40165,0
2260,40151,0
2260,40181,0
2272,40176,0
2277,40158,0
2276,40197,0
2304,40162,0
2304,40149,0
2312,40192,0
2328,40164,0
2328,40160,0
2322,40188,0
2336,40184,0
2328,40186,0
2330,40174,0
2332,40162,0
2320,40167,0
2308,40200,0
2292,40177,0
2292,40173,0
2288,40193,0
2280,40162,0
2274,40186,0
2280,40199,0
2288,40169,0
2290,40173,0
2296,40195,0
2304,40192,0
2296,40183,0
2296,40191,0
2304,40192,0
2352,40169,0
2296,40201,0
2282,40202,0
2273,40167,0
2264,40179,0
2264,40206,0
2264,40182,0
2258,40176,0
2252,40193,0
2264,40167,0
2268,40166,0
2272,40212,0
2284,40175,0
2292,40191,0
2304,40165,0
2312,40182,0
2316,40183,0
2338,40199,0
2332,40181,0
2324,40185,0
2304,40206,0
2301,40192,0
2288,40187,0
2272,40201,0
2258,40213,0
2228,40194,0
2228,40191,0
2218,40205,0
2216,40180,0
2212,40185,0
2224,40217,0
2233,40179,0
2248,40168,0
2272,40208,0
2296,40200,0
2328,40173,0
2368,40209,0
2412,40183,0
2457,40202,0
2512,40233,0
2568,40186,0
2616,40191,0
2680,40196,0
2722,40201,0
2768,40191,0
2816,40199,0
2872,40196,0
2912,40212,0
2968,40205,0
3016,40176,0
3064,40222,0
3112,40195,0
3136,40191,0
3160,40229,0
3172,40201,0
3160,40183,0
3136,40206,0
3096,40195,0
3042,40202,0
2976,40209,0
2896,40190,0
2640,40186,0
2740,40230,0
2656,40206,0
2564,40195,0
2474,40207,0
2384,40192,0
2312,40203,0
2240,40218,0
2176,40202,0
2136,40204,0
2098,40213,0
2072,40205,0
2050,40198,0
2040,40223,0
2033,40211,0
2022,40205,0
2018,40229,0
2004,40222,0
2004,40214,0
2004,40200,0
2008,40214,0
1996,40217,0
1986,40225,0
1976,40202,0
1977,40203,0
1970,40228,0
1962,40214,0
1968,40215,0
1956,40221,0
1968,40209,0
1964,40220,0
1984,40229,0
1980,40194,0
1992,40186,0
2000,40236,0
2008,40219,0
2024,40186,0
2034,40223,0
2048,40198,0
2048,40207,0
2064,40243,0
2060,40200,0
2064,40191,0
2064,40229,0
2084,40212,0
2084,40214,0
2100,40213,0
2108,40196,0
2120,40211,0
2136,40228,0
2144,40222,0
2168,40222,0
2228,40200,0
2186,40236,0
2196,40229,0
2208,40210,0
2212,40224,0
2212,40227,0
2218,40222,0
2216,40228,0
2216,40236,0
2208,40200,0
2208,40231,0
2200,40244,0
2192,40211,0
2184,40225,0
2180,40234,0
2176,40225,0
2184,40222,0
2188,40244,0
2194,40204,0
2209,40203,0
2212,40251,0
2240,40213,0
2256,40204,0
2272,40230,0
2266,40213,0
2290,40208,0
2298,40245,0
2298,40231,0
2296,40221,0
2296,40230,0
2296,40243,0
2292,40231,0
2288,40241,0
2288,40216,0
2272,40245,0
2272,40247,0
2280,40221,0
2280,40224,0
2276,40238,0
2288,40249,0
2284,40233,0
2296,40243,0
2296,40228,0
2284,40230,0
2290,40251,0
2280,40244,0
2280,40224,0
2264,40223,0
2264,40268,0
2248,40230,0
2240,40220,0
2232,40244,0
2233,40223,0
2224,40232,0
2232,40259,0
2234,40226,0
2244,40224,0
2256,40262,0
2264,40236,0
2284,40231,0
2380,40255,0
2314,40256,0
2320,40248,0
2328,40234,0
2340,40223,0
2336,40261,0
2328,40234,0
2328,40227,0
2320,40263,0
2304,40241,0
2300,40218,0
2280,40246,0
2272,40244,0
2260,40221,0
2264,40253,0
2248,40235,0
2252,40225,0
2260,40269,0
2256,40242,0
2256,40232,0
2258,40258,0
2260,40251,0
2276,40238,0
2280,40254,0
2293,40236,0
2288,40217,0
2304,40275,0
2292,40246,0
2292,40237,0
2290,40259,0
2284,40240,0
2288,40249,0
2292,40252,0
2288,40243,0
2292,40242,0
2304,40279,0
2298,40276,0
2300,40241,0
2304,40239,0
2312,40266,0
2312,40261,0
2313,40245,0
2332,40269,0
2320,40256,0
2312,40237,0
2312,40271,0
2304,40268,0
2296,40251,0
2292,40247,0
2272,40272,0
2256,40258,0
2256,40246,0
2240,40271,0
2242,40236,0
2240,40267,0
2240,40282,0
2244,40245,0
2248,40247,0
2266,40269,0
2272,40257,0
2280,40237,0
2300,40279,0
2305,40236,0
2312,40259,0
2320,40254,0
2324,40248,0
2321,40270,0
2324,40253,0
2320,40287,0
2308,40264,0
2304,40249,0
2292,40274,0
2292,40247,0
2288,40268,0
2280,40277,0
2276,40249,0
2272,40242,0
2272,40279,0
2266,40265,0
2272,40232,0
2276,40277,0
2280,40237,0
2312,40246,0
2288,40290,0
2284,40255,0
2280,40243,0
2272,40278,0
2276,40258,0
2264,40261,0
2272,40283,0
2264,40249,0
2248,40245,0
2264,40282,0
2264,40244,0
2276,40256,0
2260,40251,0
2288,40265,0
2296,40282,0
2306,40262,0
2328,40249,0
2320,40242,0
2336,40262,0
2336,40281,0
2345,40258,0
2336,40245,0
2336,40265,0
2328,40277,0
2320,40251,0
2304,40237,0
2292,40281,0
2284,40234,0
2272,40243,0
2264,40276,0
2312,40243,0
2252,40218,0
2256,40283,0
2256,40246,0
2264,40213,0
2272,40262,0
2284,40237,0
2296,40235,0
2304,40268,0
2322,40243,0
2320,40217,0
2340,40247,0
2336,40245,0
2338,40218,0
2346,40234,0
2346,40227,0
2336,40239,0
2329,40252,0
2324,40236,0
2332,40226,0
