ECG,RED,IR,PCG
2120,107114,75302,0
2128,107154,75256,0
2152,107082,75287,0
2153,107122,75256,0
2144,107085,75252,0
2133,107074,75258,0
2132,107098,75216,0
2128,107054,75276,0
2116,107124,75241,0
2112,107079,75282,0
2116,107141,75241,0
2114,107092,75277,0
2136,107123,75247,0
2122,107081,75285,0
2120,107105,75261,0
2128,107076,75282,0
2128,107123,75235,0
2116,107089,75217,0
2117,107034,75242,0
2120,107080,75213,0
2122,107077,75287,0
2108,107113,75232,0
2104,107084,75292,0
2098,107108,75240,0
2064,107080,75263,0
2068,107118,75250,0
2066,107081,75266,0
1554,107103,75237,0
2068,107080,75267,0
2033,107114,75221,0
2040,107070,75275,0
2152,107105,75224,0
2186,107057,75263,0
2188,107127,75237,0
2188,107063,75278,0
2188,107121,75219,0
2186,107081,75254,0
2184,107095,75236,0
2186,107066,75261,0
2197,107108,75224,0
2192,107050,75230,0
2194,107019,75229,0
2200,107085,75178,0
2204,107039,75246,0
2212,107102,75219,0
2216,107064,75278,0
2224,107100,75224,0
2220,107081,75263,0
2224,107104,75230,0
2212,107057,75262,0
2208,107120,75218,0
2212,107064,75250,0
2204,107061,75241,0
2198,107068,75199,0
2188,107042,75250,0
2168,107093,75194,0
2156,107076,75269,0
2156,107128,75228,0
1572,107073,75254,0
2168,107120,75235,0
2176,107091,75250,0
2144,107090,75275,0
2132,107122,75245,0
2132,107084,75288,0
2076,107115,75238,0
2068,107082,75237,0
2096,107081,75203,0
2096,107043,75263,0
2108,107119,75219,0
2096,107097,75293,0
2102,107138,75253,0
2097,107093,75296,0
2100,107119,75249,0
2096,107086,75263,0
2104,107124,75253,0
2105,107073,75261,0
2100,107064,75257,0
2092,107076,75193,0
2088,107055,75266,0
2089,107118,75248,0
2074,107063,75318,0
2064,107128,75253,0
2072,107093,75283,0
2064,107135,75269,0
2070,107072,75276,0
2064,107116,75267,0
2048,107086,75269,0
2056,107114,75249,0
2040,107105,75274,0
2036,107093,75266,0
2041,107080,75222,0
1457,107036,75261,0
2022,107062,75281,0
2030,107101,75238,0
2016,107074,75289,0
2041,107085,75259,0
2028,107053,75299,0
2016,107098,75241,0
1997,107069,75328,0
1974,107147,75286,0
1952,107084,75328,0
1920,107139,75290,0
1890,107102,75314,0
1848,107124,75284,0
1810,107079,75319,0
1776,107131,75287,0
1736,107067,75289,0
1700,107074,75279,0
1652,107102,75230,0
1624,107085,75330,0
1573,107140,75296,0
1540,107106,75346,0
1512,107133,75289,0
1482,107108,75307,0
1450,107136,75298,0
1426,107106,75319,0
1412,107145,75271,0
1384,107108,75276,0
1356,107055,75287,0
1354,107121,75266,0
1330,107077,75336,0
775,107145,75297,0
1316,107100,75337,0
1308,107160,75305,0
1302,107127,75315,0
1312,107126,75272,0
1317,107061,75338,0
1334,107149,75322,0
166,107128,75346,0
101,107146,75315,0
43,107123,75369,0
0,107172,75353,0
0,107108,75372,0
0,107173,75333,0
0,107128,75359,0
0,107165,75342,0
0,107126,75358,0
0,107104,75333,0
0,107132,75293,0
0,107089,75379,0
0,107164,75310,0
0,107122,75379,0
0,107184,75335,0
0,107140,75370,0
0,107170,75339,0
0,107129,75386,0
0,107159,75342,0
0,107118,75331,0
0,107091,75338,0
0,107140,75305,0
0,107128,75386,0
0,107189,75343,0
0,107130,75395,0
0,107163,75350,0
0,107122,75380,0
0,107172,75339,0
0,107157,75353,0
0,107157,75353,0
0,107157,75353,0
0,107156,75335,0
0,107156,75335,0
0,107156,75335,0
0,107156,75335,0
0,107156,75335,0
0,107156,75335,0
0,107156,75335,0
0,107156,75360,0
0,107123,75385,0
0,107123,75385,0
0,107123,75385,0
0,107123,75385,0
0,107123,75385,0
0,107123,75385,0
0,107123,75341,0
0,107100,75344,0
0,107100,75344,0
0,107100,75344,0
0,107100,75344,0
0,107100,75344,0
0,107100,75344,0
0,107100,75344,0
0,107139,75292,0
0,107139,75292,0
84,107139,75292,0
0,107139,75292,0
0,107139,75292,0
0,107139,75292,0
0,107139,75292,0
0,107139,75292,0
0,107114,75365,0
0,107092,75342,0
0,107118,75301,0
0,107081,75366,0
0,107156,75332,0
0,107123,75394,0
0,107168,75329,0
0,107122,75395,0
0,107158,75361,0
0,107112,75369,0
0,107161,75351,0
0,107115,75382,0
0,107146,75354,0
0,107140,75350,0
0,107088,75369,0
0,107130,75308,0
0,107091,75384,0
29,107151,75326,0
51,107122,75401,0
88,107172,75342,0
109,107117,75377,0
138,107158,75366,0
173,107131,75382,0
196,107157,75360,0
220,107119,75359,0
247,107084,75353,0
277,107123,75324,0
309,107107,75374,0
436,107120,75359,0
480,107137,75369,0
495,107112,75349,0
523,107136,75376,0
553,107136,75399,0
589,107150,75358,0
611,107119,75322,0
644,107072,75389,0
667,107153,75346,0
701,107124,75415,0
714,107176,75363,0
738,107119,75386,0
755,107165,75356,0
786,107127,75404,0
813,107155,75377,0
838,107137,75409,0
860,107162,75368,0
881,107122,75365,0
914,107085,75373,0
940,107151,75344,0
976,107095,75391,0
1002,107183,75379,0
1026,107129,75428,0
1057,107178,75401,0
1078,107135,75413,0
1106,107173,75385,0
1136,107122,75397,0
1174,107147,75385,0
1201,107128,75374,0
1216,107079,75382,0
1244,107122,75323,0
1270,107129,75400,0
1280,107130,75387,0
1304,107147,75343,0
1937,107097,75383,0
1956,107132,75415,0
2004,107181,75369,0
2018,107145,75419,0
2038,107164,75382,0
2048,107160,75399,0
2060,107166,75350,0
2076,107133,75404,0
2096,107157,75365,0
2112,107138,75343,0
2120,107082,75370,0
2136,107142,75313,0
2150,107123,75399,0
2160,107188,75345,0
2176,107128,75387,0
2188,107163,75351,0
2200,107124,75368,0
2210,107135,75340,0
2217,107115,75356,0
2232,107133,75318,0
2240,107092,75287,0
2248,107052,75337,0
2252,107130,75293,0
2266,107101,75370,0
2256,107145,75309,0
2256,107098,75342,0
2272,107146,75290,0
1766,107085,75329,0
2288,107013,75193,0
2253,107048,75141,0
2496,106982,75156,0
2532,107027,75157,0
2529,107003,75177,0
2524,107040,75157,0
2524,107003,75169,0
2524,107017,75126,0
2522,107009,75095,0
2524,106948,75135,0
2528,107010,75118,0
2528,106981,75172,0
2532,107055,75131,0
2536,106986,75139,0
2536,106999,75119,0
2536,106987,75140,0
2544,107005,75100,0
2546,106976,75085,0
2548,106933,75108,0
2560,106979,75066,0
2560,106971,75142,0
2553,107001,75095,0
2552,106969,75127,0
2548,107002,75100,0
2548,106967,75078,0
2553,106983,75070,0
2530,106963,75060,0
2534,106897,75069,0
2536,106988,75047,0
2008,106963,75129,0
2560,106993,75069,0
2562,106956,75098,0
2540,106945,75057,0
2544,106953,75018,0
2552,106943,75065,0
2564,106971,75030,0
2716,106903,75013,0
2720,106982,75022,0
2720,106935,75055,0
2776,106970,75015,0
2784,106931,74997,0
2776,106878,75033,0
2788,106985,75009,0
2784,106920,75060,0
2794,106982,75018,0
2800,106921,75042,0
2796,106967,75027,0
2800,106920,75057,0
2792,106974,75024,0
2800,106935,75054,0
2792,106922,75008,0
2800,106925,74962,0
2792,106902,75040,0
2796,106973,75017,0
2788,106932,75046,0
2786,106970,75022,0
2780,106935,75055,0
2778,106961,75016,0
2772,106943,75072,0
2770,106944,75028,0
2752,106911,74988,0
2752,106886,75046,0
2758,106946,75007,0
2184,106943,75092,0
2761,106941,75080,0
2772,106975,75032,0
2832,106921,75084,0
2880,106976,75045,0
2896,106941,75046,0
2884,106891,75042,0
2896,106946,75008,0
2888,106929,75091,0
2892,106986,75031,0
2888,106950,75074,0
2896,106977,75041,0
2892,106957,75067,0
2900,106985,75027,0
2892,106952,75045,0
2892,106917,75049,0
2886,106965,75002,0
2892,106940,75096,0
2888,106999,75049,0
2880,106938,75075,0
2876,106985,75053,0
2880,106930,75076,0
2873,106988,75049,0
2880,106935,75047,0
2882,106912,75047,0
2880,106945,75009,0
2888,106926,75109,0
2880,106994,75047,0
2866,106943,75086,0
2880,106986,75063,0
2397,106945,75083,0
2912,106983,75052,0
2920,106961,75058,0
2868,106941,75098,0
2866,106992,75074,0
2876,106980,75134,0
2950,107037,75109,0
2948,106990,75036,0
3016,106937,75114,0
3018,107023,75103,0
3013,106982,75131,0
3020,107012,75112,0
3010,106981,75119,0
3012,107012,75093,0
3012,106962,75142,0
3002,106957,75103,0
2984,107000,75063,0
2986,106958,75124,0
2984,107019,75095,0
2972,106993,75133,0
2968,107020,75097,0
2968,106992,75136,0
2976,106996,75085,0
2966,106987,75086,0
2968,106968,75094,0
2968,106981,75064,0
2964,106956,75147,0
2964,107017,75099,0
2962,106983,75129,0
2962,107018,75113,0
2936,106976,75137,0
2932,107029,75114,0
2934,106984,75145,0
2434,107020,75117,0
2960,106989,75095,0
2888,106943,75101,0
2884,107014,75100,0
2954,106964,75123,0
3008,107022,75104,0
3024,106984,75137,0
3018,107011,75102,0
3014,106988,75134,0
3028,107010,75113,0
3012,106979,75087,0
3008,106939,75111,0
3001,107012,75109,0
3001,106981,75153,0
3001,107028,75117,0
2992,106985,75138,0
2996,107006,75105,0
2992,106981,75128,0
2996,106996,75111,0
2988,106999,75062,0
2988,106934,75122,0
2994,107001,75097,0
2996,106978,75151,0
3000,107033,75111,0
2996,106984,75145,0
2996,107025,75103,0
2996,106970,75140,0
2996,107002,75095,0
2952,106972,75074,0
2944,106943,75144,0
2944,107019,75101,0
2376,106969,75169,0
2960,107021,75128,0
2900,106992,75168,0
2897,107008,75141,0
2904,107006,75141,0
2940,106998,75122,0
2929,106997,75138,0
2984,106986,75086,0
2978,106923,75136,0
2976,107005,75104,0
2969,106966,75153,0
2976,107047,75132,0
2964,106986,75177,0
2968,107028,75140,0
2960,106997,75156,0
2968,107020,75135,0
2962,106995,75132,0
2976,106987,75128,0
2968,106995,75127,0
2968,106982,75184,0
2968,107048,75138,0
2968,107012,75174,0
2960,107017,75150,0
2968,106997,75170,0
2960,107010,75164,0
2956,107002,75111,0
2925,106959,75180,0
2948,107041,75129,0
2944,106986,75191,0
2920,107041,75152,0
2912,106991,75181,0
2916,107023,75164,0
2408,107003,75180,0
2944,106979,75136,0
2890,107043,75151,0
2896,106996,75219,0
2898,107062,75175,0
2866,106995,75135,0
2850,107020,75210,0
2904,107030,75176,0
2896,107014,75219,0
2898,107041,75176,0
2907,107020,75161,0
2888,106977,75181,0
2884,107020,75156,0
2901,106991,75237,0
2906,107077,75173,0
2924,107013,75220,0
2932,107036,75185,0
2938,107009,75220,0
2953,107041,75176,0
2964,107018,75163,0
2984,106983,75197,0
3002,107043,75175,0
3028,107007,75241,0
3060,107068,75183,0
3104,107024,75208,0
3140,107061,75191,0
3192,107001,75215,0
3236,107008,75178,0
3288,107022,75159,0
3304,106982,75224,0
3352,107062,75189,0
3429,107024,75260,0
2897,107069,75210,0
3568,107026,75243,0
3698,106984,75224,0
3744,107046,75198,0
3744,107019,75271,0
2564,107055,75232,0
2550,107046,75193,0
2592,107012,75270,0
2588,107074,75225,0
2593,107030,75273,0
2588,107062,75237,0
2592,107025,75241,0
2594,107061,75220,0
2594,107030,75213,0
2598,107009,75223,0
2600,107036,75176,0
2608,107012,75260,0
2610,107097,75237,0
2608,107042,75274,0
2612,107074,75241,0
2618,107045,75260,0
2624,107074,75234,0
2632,107025,75246,0
2624,107041,75242,0
2632,107022,75206,0
2642,106981,75230,0
2652,107056,75212,0
2656,107020,75283,0
2666,107091,75231,0
2656,107040,75252,0
2664,107066,75235,0
2680,107019,75263,0
2102,107067,75239,0
2708,107045,75251,0
2688,107010,75297,0
2692,107081,75247,0
2772,107056,75314,0
2828,107110,75264,0
2837,107057,75317,0
2837,107104,75285,0
2840,107060,75316,0
2836,107087,75270,0
2832,107059,75305,0
2836,107058,75269,0
2840,107064,75296,0
2828,107065,75271,0
2828,107051,75228,0
2824,107027,75306,0
2816,107115,75270,0
2816,107060,75342,0
2816,107120,75274,0
2816,107074,75342,0
2816,107095,75291,0
2826,107074,75328,0
2836,107098,75301,0
2832,107054,75327,0
2832,107094,75297,0
2832,107067,75272,0
2840,107015,75312,0
2848,107085,75271,0
2824,107057,75347,0
2834,107119,75297,0
2832,107082,75322,0
2322,107121,75311,0
2856,107074,75342,0
2858,107115,75298,0
2796,107104,75385,0
2794,107144,75368,0
2796,107128,75337,0
2741,107069,75335,0
2741,107139,75355,0
2792,107106,75347,0
2792,107090,75368,0
2796,107116,75322,0
2774,107087,75380,0
2768,107165,75355,0
2757,107128,75409,0
2758,107164,75366,0
2752,107123,75413,0
2744,107154,75363,0
2744,107127,75379,0
2744,107156,75366,0
2744,107131,75364,0
2744,107109,75361,0
2742,107133,75322,0
2744,107106,75387,0
2744,107159,75354,0
2756,107120,75420,0
2752,107160,75360,0
2752,107114,75402,0
2744,107140,75347,0
2748,107119,75391,0
2744,107163,75372,0
2728,107094,75387,0
2708,107101,75364,0
2708,107108,75307,0
2196,107064,75371,0
2680,107061,75316,0
2688,107097,75271,0
2708,107070,75262,0
2756,107098,75279,0
2758,107066,75260,0
2760,107063,75235,0
2756,107070,75207,0
2764,107019,75268,0
2752,107099,75224,0
2760,107044,75281,0
2756,107104,75239,0
2756,107052,75258,0
2752,107086,75222,0
2768,107039,75264,0
2764,107066,75223,0
2772,107049,75212,0
2772,106991,75222,0
2764,107061,75190,0
2762,107029,75263,0
2772,107093,75203,0
2760,107041,75239,0
2756,107084,75197,0
2752,107049,75227,0
2744,107053,75203,0
2744,107053,75146,0
2736,106998,75208,0
2700,107084,75188,0
2692,107041,75226,0
2700,107078,75192,0
2165,107018,75210,0
2712,107036,75147,0
2708,107008,75192,0
2658,106987,75155,0
2672,107009,75109,0
2664,106984,75130,0
2660,107031,75110,0
2624,106993,75113,0
2620,107038,75113,0
2616,106983,75134,0
2657,107015,75117,0
2665,106972,75122,0
2662,107013,75099,0
2664,106963,75080,0
2664,106915,75095,0
2664,107016,75087,0
2665,106991,75147,0
2672,107030,75091,0
2672,106992,75127,0
2664,106997,75095,0
2668,106959,75114,0
2550,107006,75104,0
2656,106981,75067,0
2648,106929,75096,0
2646,106992,75065,0
2640,106953,75130,0
2636,107011,75090,0
2628,106979,75131,0
2624,106994,75105,0
2624,106965,75137,0
2624,107006,75083,0
2594,106969,75089,0
2604,106963,75091,0
2604,106984,75037,0
2092,106926,75116,0
2588,106942,75131,0
2592,106997,75101,0
2588,106941,75154,0
2652,107002,75105,0
2652,106958,75136,0
2642,106979,75085,0
2648,106944,75125,0
2644,106980,75096,0
2640,106943,75081,0
2642,106899,75103,0
2642,106973,75057,0
2640,106919,75112,0
2636,106991,75091,0
2628,106942,75123,0
2624,106990,75107,0
2624,106949,75132,0
2608,106991,75111,0
2616,106957,75115,0
2598,106949,75109,0
2596,106949,75048,0
2588,106940,75138,0
2592,107001,75103,0
2592,106967,75148,0
2586,106998,75096,0
2592,106950,75133,0
2588,106967,75094,0
2564,106950,75128,0
2561,106928,75108,0
2569,106944,75059,0
2064,106916,75160,0
2592,106991,75115,0
2588,106940,75179,0
2533,106953,75194,0
2530,106991,75151,0
2520,106964,75158,0
2532,106923,75169,0
2537,106959,75145,0
2586,106982,75109,0
2580,106912,75180,0
2580,106988,75127,0
2576,106956,75203,0
2580,107010,75154,0
2576,106983,75210,0
2560,107010,75175,0
2548,106958,75196,0
2546,107006,75159,0
2538,106967,75204,0
2533,106972,75184,0
2528,106969,75128,0
2522,106955,75197,0
2516,106999,75176,0
2516,106992,75215,0
2516,107023,75177,0
2513,106971,75215,0
2508,106999,75200,0
2508,106972,75211,0
2516,107010,75182,0
2513,106973,75207,0
2506,106975,75177,0
2484,106965,75148,0
2480,106936,75196,0
2476,107016,75181,0
1944,106982,75237,0
2720,107008,75176,0
2428,106962,75208,0
2432,106979,75159,0
2436,106959,75176,0
2472,106964,75177,0
2464,106951,75196,0
2464,106922,75165,0
2456,106915,75119,0
2456,106904,75189,0
2444,106981,75140,0
2440,106935,75204,0
2432,106967,75163,0
2432,106948,75186,0
2424,106957,75151,0
2418,106919,75190,0
2416,106959,75158,0
2416,106915,75150,0
2418,106907,75154,0
2421,106926,75112,0
2416,106905,75192,0
2416,106988,75166,0
2416,106926,75202,0
2421,106960,75170,0
2424,106926,75175,0
2413,106957,75143,0
2404,106931,75177,0
2400,106929,75136,0
2368,106903,75128,0
2370,106860,75130,0
2372,106935,75125,0
1771,106930,75201,0
2388,106961,75151,0
2346,106892,75142,0
2354,106928,75132,0
2354,106884,75093,0
2356,106866,75085,0
2360,106848,75111,0
2392,106884,75105,0
2392,106883,75176,0
2384,106940,75121,0
2376,106889,75169,0
2384,106912,75126,0
2378,106868,75155,0
2376,106901,75122,0
2373,106912,75090,0
2374,106829,75138,0
2372,106921,75102,0
2378,106874,75180,0
2372,106925,75138,0
2368,106880,75152,0
2362,106915,75137,0
2358,106877,75164,0
2352,106901,75139,0
2346,106879,75123,0
2340,106847,75128,0
2336,106880,75092,0
2322,106876,75162,0
2316,106912,75132,0
2316,106877,75172,0
2290,106896,75127,0
2292,106864,75156,0
2290,106906,75130,0
1701,106852,75160,0
2308,106889,75137,0
2280,106909,75153,0
2277,106901,75190,0
2276,106922,75171,0
2248,106886,75127,0
2242,106894,75213,0
2288,106939,75169,0
2288,106883,75193,0
2280,106943,75168,0
2284,106913,75191,0
2293,106900,75176,0
2281,106909,75145,0
2280,106848,75207,0
2280,106932,75158,0
2288,106903,75225,0
2278,106952,75180,0
2278,106887,75210,0
2266,106924,75189,0
2264,106899,75195,0
2258,106916,75170,0
2256,106913,75155,0
2250,106846,75209,0
2242,106918,75159,0
2244,106895,75226,0
2240,106937,75185,0
2232,106898,75226,0
2234,106935,75187,0
2233,106898,75209,0
2212,106929,75192,0
2213,106892,75201,0
2218,106882,75191,0
1701,106910,75143,0
2240,106869,75220,0
2172,106943,75233,0
2168,106924,75266,0
2168,106940,75249,0
2908,106939,75228,0
2960,106917,75201,0
3052,106878,75250,0
3096,106958,75247,0
3124,106948,75293,0
3128,106982,75251,0
3122,106938,75274,0
3112,106966,75242,0
3080,106930,75272,0
3040,106971,75254,0
3002,106920,75272,0
2953,106946,75254,0
2897,106944,75205,0
2848,106911,75276,0
2784,106960,75241,0
2720,106934,75296,0
2656,106969,75266,0
2580,106929,75292,0
2512,106962,75273,0
2448,106942,75298,0
2386,106971,75271,0
2346,106942,75295,0
2288,106952,75253,0
2240,106944,75230,0
2180,106886,75291,0
2144,106962,75269,0
2104,106940,75307,0
1568,106999,75281,0
2068,106943,75304,0
1936,106957,75269,0
1904,106927,75363,0
1986,106993,75318,0
2032,106959,75367,0
2038,107011,75338,0
2056,106962,75354,0
2058,106992,75339,0
2060,106965,75353,0
2061,106972,75332,0
2064,106961,75294,0
2066,106937,75379,0
2064,107000,75329,0
2068,106971,75399,0
2080,107020,75352,0
2080,106957,75386,0
2082,106991,75344,0
2082,106960,75368,0
2096,106991,75353,0
2104,106983,75328,0
2106,106919,75359,0
2112,106992,75353,0
2122,106959,75433,0
2125,107012,75352,0
2132,106970,75386,0
2136,106994,75348,0
2146,106975,75388,0
2124,106994,75360,0
2128,106969,75326,0
2132,106945,75390,0
1536,106995,75342,0
2148,106982,75413,0
2146,107018,75367,0
2122,107020,75442,0
2128,107046,75419,0
2125,106998,75446,0
2210,106945,75407,0
2208,107046,75414,0
2244,107008,75461,0
2248,107044,75434,0
2242,107008,75456,0
2248,107032,75427,0
2234,107004,75465,0
2230,107006,75420,0
2224,107024,75394,0
2228,106978,75463,0
2224,107059,75443,0
2220,107012,75474,0
2228,107068,75462,0
2225,107015,75469,0
2230,107054,75435,0
2226,107020,75483,0
2232,107030,75432,0
2232,107030,75425,0
2234,106977,75469,0
2236,107033,75426,0
2229,107019,75508,0
2224,107074,75453,0
2224,106997,75493,0
2224,107058,75471,0
2193,107037,75480,0
2192,107077,75471,0
2200,107039,75497,0
1602,107037,75482,0
2217,107024,75545,0
2198,107092,75501,0
2256,107064,75477,0
2288,107090,75486,0
2284,107051,75552,0
2280,107099,75486,0
2278,107051,75537,0
2274,107105,75486,0
2264,107058,75522,0
2258,107088,75487,0
2252,107063,75472,0
2250,107018,75494,0
2262,107062,75457,0
2240,107025,75534,0
2236,107108,75478,0
2242,107064,75507,0
2230,107106,75480,0
2240,107047,75500,0
2224,107087,75470,0
2226,107052,75476,0
2210,107007,75474,0
2202,107059,75433,0
2188,107035,75510,0
2192,107092,75463,0
2184,107043,75507,0
2188,107086,75473,0
2170,107045,75471,0
2164,107064,75452,0
2168,107039,75460,0
1584,107051,75451,0
2200,107044,75402,0
2192,107009,75482,0
2156,106994,75373,0
2166,107027,75344,0
2165,106979,75325,0
2172,106930,75340,0
2160,106990,75344,0
2160,107000,75342,0
2152,106980,75356,0
2192,106954,75349,0
2184,106990,75286,0
2181,106949,75356,0
2200,107014,75331,0
2195,106976,75386,0
2192,107009,75342,0
2192,106980,75361,0
2184,106985,75322,0
2188,106950,75339,0
2180,106979,75328,0
2170,106943,75324,0
2168,106928,75310,0
2156,106948,75281,0
2164,106946,75360,0
2148,107004,75304,0
2144,106950,75335,0
2138,106971,75283,0
2136,106949,75350,0
2128,106968,75300,0
2133,106934,75319,0
2128,106951,75303,0
2112,106928,75236,0
2117,106892,75317,0
2120,106980,75296,0
1613,106927,75343,0
2096,106880,75315,0
2106,106937,75261,0
2124,106922,75258,0
2160,106886,75201,0
2164,106844,75297,0
2164,106912,75251,0
2160,106869,75314,0
2154,106946,75272,0
2156,106874,75291,0
2149,106906,75263,0
2140,106873,75283,0
2144,106893,75266,0
2128,106869,75236,0
2129,106822,75277,0
2130,106893,75247,0
2125,106875,75315,0
2124,106935,75281,0
2112,106875,75321,0
2114,106909,75272,0
2112,106879,75293,0
2120,106902,75268,0
2112,106886,75251,0
2124,106826,75271,0
2120,106897,75237,0
2120,106882,75305,0
2120,106924,75280,0
2112,106884,75305,0
2108,106916,75264,0
2112,106888,75305,0
1608,106899,75283,0
2124,106877,75256,0
2132,106823,75284,0
2085,106882,75233,0
2084,106850,75311,0
2084,106927,75281,0
2106,106859,75305,0
2106,106881,75333,0
2146,106929,75304,0
2152,106878,75325,0
2148,106917,75303,0
2132,106875,75328,0
2133,106911,75293,0
2134,106884,75269,0
2121,106829,75327,0
2124,106913,75289,0
2128,106876,75353,0
2124,106952,75295,0
2117,106873,75333,0
2129,106923,75320,0
2128,106879,75325,0
2136,106907,75299,0
2146,106885,75284,0
2148,106839,75320,0
2152,106895,75296,0
2156,106871,75377,0
2162,106937,75300,0
2172,106882,75350,0
2160,106920,75317,0
2164,106896,75338,0
2144,106902,75317,0
2154,106879,75312,0
2153,106828,75325,0
1628,106910,75282,0
2160,106880,75373,0
2130,106805,75316,0
2128,106864,75292,0
2178,106838,75298,0
2218,106871,75307,0
2212,106825,75323,0
2208,106868,75284,0
2210,106855,75317,0
2197,106844,75288,0
2198,106842,75267,0
2200,106823,75326,0
2200,106872,75274,0
2200,106822,75331,0
2200,106860,75288,0
2186,106824,75322,0
2192,106864,75272,0
2204,106819,75285,0
2212,106783,75271,0
2204,106837,75242,0
2208,106783,75327,0
2208,106868,75286,0
2208,106838,75322,0
2202,106860,75293,0
2200,106818,75312,0
2200,106850,75283,0
2196,106800,75299,0
2193,106829,75282,0
2176,106826,75268,0
2176,106766,75255,0
2168,106838,75249,0
1594,106825,75326,0
2204,106870,75286,0
2169,106824,75259,0
2170,106794,75334,0
2176,106874,75304,0
2212,106849,75291,0
2204,106773,75286,0
2244,106829,75257,0
2245,106808,75340,0
2248,106864,75297,0
2244,106816,75336,0
2250,106853,75306,0
2256,106812,75340,0
2264,106850,75291,0
2264,106798,75266,0
2268,106775,75333,0
2272,106830,75289,0
2276,106802,75360,0
2264,106860,75311,0
2269,106831,75343,0
2262,106843,75296,0
2252,106809,75333,0
2256,106782,75310,0
2248,106826,75271,0
2244,106793,75383,0
2240,106897,75299,0
2232,106836,75345,0
2228,106849,75295,0
2228,106790,75323,0
2204,106840,75308,0
2202,106820,75264,0
2200,106800,75338,0
1625,106882,75294,0
2224,106815,75355,0
2182,106843,75370,0
2192,106874,75356,0
2178,106835,75360,0
2136,106844,75392,0
2132,106860,75349,0
2176,106838,75362,0
2176,106829,75347,0
2168,106826,75306,0
2184,106790,75386,0
2192,106879,75343,0
2180,106855,75387,0
2184,106862,75347,0
2198,106818,75358,0
2192,106876,75341,0
2181,106819,75351,0
2182,106771,75351,0
2176,106838,75322,0
2168,106817,75404,0
2160,106885,75338,0
2164,106829,75382,0
2160,106844,75353,0
2157,106830,75380,0
2156,106855,75332,0
2160,106818,75317,0
2152,106767,75367,0
2162,106856,75324,0
2162,106821,75406,0
2148,106865,75337,0
2160,106819,75359,0
2160,106862,75342,0
1574,106805,75370,0
2176,106819,75325,0
2140,106798,75385,0
2136,106844,75335,0
2129,106789,75399,0
2132,106812,75397,0
2133,106828,75355,0
2162,106793,75376,0
2161,106820,75352,0
2157,106799,75368,0
2156,106774,75361,0
2161,106821,75317,0
2144,106786,75395,0
2136,106843,75353,0
2136,106799,75397,0
2136,106838,75367,0
2124,106825,75396,0
2128,106836,75360,0
2132,106816,75340,0
2128,106759,75361,0
2150,106852,75347,0
2160,106816,75412,0
2176,106856,75376,0
2188,106813,75407,0
2209,106857,75388,0
2236,106812,75397,0
2264,106811,75375,0
2288,106826,75359,0
2320,106798,75428,0
2344,106865,75381,0
2388,106817,75404,0
2436,106859,75393,0
1954,106815,75410,0
2528,106863,75366,0
2665,106880,75414,0
2724,106860,75439,0
2032,106795,75407,0
2033,106843,75452,0
2020,106854,75396,0
1988,106827,75366,0
1976,106784,75445,0
1956,106866,75394,0
1940,106843,75460,0
1916,106870,75425,0
1896,106818,75439,0
1896,106858,75415,0
1873,106813,75415,0
1864,106813,75411,0
1860,106849,75385,0
1856,106811,75449,0
1844,106876,75408,0
1844,106819,75442,0
1848,106860,75419,0
1852,106850,75426,0
1860,106852,75411,0
1856,106807,75380,0
1856,106780,75441,0
1858,106863,75393,0
1849,106821,75436,0
1860,106835,75413,0
1856,106823,75448,0
1844,106843,75416,0
1846,106815,75358,0
1268,106755,75425,0
1858,106840,75387,0
1845,106821,75394,0
1860,106802,75453,0
1860,106825,75402,0
2090,106801,75380,0
2104,106797,75457,0
2128,106811,75406,0
2124,106794,75435,0
2129,106819,75387,0
2133,106791,75372,0
2132,106740,75416,0
2144,106811,75386,0
2136,106777,75450,0
2144,106841,75424,0
2160,106787,75438,0
2160,106810,75414,0
2160,106796,75431,0
2168,106785,75414,0
2169,106793,75364,0
2168,106740,75416,0
2165,106835,75408,0
2168,106805,75446,0
2176,106827,75405,0
2161,106788,75440,0
2164,106827,75413,0
2153,106787,75435,0
2148,106776,75417,0
2144,106784,75367,0
2128,106743,75447,0
2128,106815,75405,0
2130,106783,75457,0
1540,106827,75409,0
2152,106780,75454,0
2136,106814,75496,0
2140,106845,75459,0
2148,106824,75476,0
2216,106828,75478,0
2209,106834,75456,0
2248,106829,75426,0
2250,106783,75496,0
2240,106876,75456,0
2248,106820,75508,0
2248,106849,75489,0
2248,106840,75515,0
2250,106858,75469,0
2249,106831,75499,0
2250,106833,75472,0
2248,106844,75439,0
2256,106827,75516,0
2252,106885,75473,0
2244,106856,75523,0
2240,106871,75503,0
2244,106837,75519,0
2240,106862,75480,0
2226,106861,75468,0
2228,106790,75496,0
2226,106871,75483,0
2224,106834,75540,0
2224,106868,75487,0
2220,106843,75521,0
2208,106873,75491,0
2208,106845,75509,0
2226,106844,75469,0
1642,106827,75430,0
2260,106791,75504,0
2228,106742,75417,0
2232,106803,75383,0
2240,106790,75443,0
2272,106790,75411,0
2262,106835,75409,0
2304,106795,75412,0
2314,106822,75354,0
2312,106773,75404,0
2320,106804,75377,0
2320,106783,75336,0
2320,106721,75377,0
2324,106784,75344,0
2308,106777,75387,0
2312,106816,75375,0
2312,106769,75393,0
2304,106795,75351,0
2292,106740,75378,0
2292,106746,75344,0
2282,106771,75306,0
2280,106729,75372,0
2280,106811,75332,0
2274,106742,75364,0
2274,106793,75328,0
2272,106758,75362,0
2280,106796,75328,0
2276,106738,75346,0
2280,106726,75310,0
2256,106742,75273,0
2264,106735,75365,0
2272,106777,75307,0
1760,106742,75332,0
2292,106762,75306,0
2234,106737,75254,0
2232,106695,75239,0
2224,106658,75249,0
2236,106710,75252,0
2232,106717,75221,0
2280,106685,75290,0
2272,106742,75255,0
2268,106690,75288,0
2276,106740,75242,0
2266,106709,75272,0
2264,106723,75239,0
2260,106685,75229,0
2248,106644,75246,0
2244,106733,75221,0
2234,106716,75292,0
2232,106747,75253,0
2220,106710,75277,0
2216,106746,75245,0
2220,106707,75286,0
2221,106732,75251,0
2212,106702,75209,0
2224,106676,75296,0
2232,106735,75243,0
2240,106723,75282,0
2228,106764,75265,0
2242,106716,75293,0
2224,106746,75271,0
2208,106707,75260,0
2212,106660,75288,0
2218,106739,75231,0
1620,106723,75317,0
2212,106773,75285,0
2166,106833,75340,0
2169,106807,75354,0
2244,106827,75382,0
2274,106799,75390,0
2280,106831,75352,0
2272,106815,75365,0
2260,106758,75368,0
2256,106802,75329,0
2256,106770,75405,0
2248,106852,75353,0
2262,106810,75404,0
2249,106828,75367,0
2252,106803,75393,0
2252,106836,75363,0
2252,106795,75336,0
2258,106764,75402,0
2266,106852,75366,0
2288,106815,75438,0
2272,106846,75386,0
2282,106816,75402,0
2276,106846,75391,0
2280,106796,75387,0
2280,106799,75387,0
2276,106803,75344,0
2276,106788,75430,0
2278,106861,75390,0
2248,106819,75438,0
2240,106867,75383,0
2248,106814,75416,0
1722,106867,75390,0
2264,106821,75429,0
2180,106797,75456,0
2237,106864,75418,0
2240,106804,75462,0
2284,106780,75422,0
2284,106857,75433,0
2320,106826,75440,0
2304,106838,75411,0
2304,106817,75379,0
2312,106791,75449,0
2298,106850,75409,0
2296,106792,75458,0
2304,106845,75417,0
2308,106806,75456,0
2296,106851,75429,0
2304,106812,75424,0
2304,106781,75419,0
2304,106814,75364,0
2304,106781,75469,0
2296,106840,75423,0
2296,106821,75455,0
2288,106831,75418,0
2296,106802,75442,0
2284,106826,75414,0
2273,106807,75381,0
2260,106755,75439,0
2258,106849,75413,0
2252,106799,75462,0
2248,106834,75420,0
2232,106808,75448,0
2240,106839,75408,0
1717,106793,75433,0
2256,106754,75416,0
2234,106820,75403,0
2241,106792,75482,0
2240,106854,75431,0
2266,106807,75415,0
2266,106807,75487,0
2304,106852,75441,0
2304,106819,75468,0
2314,106820,75433,0
2310,106810,75404,0
2312,106752,75437,0
2316,106825,75405,0
2317,106803,75487,0
2320,106854,75442,0
2316,106811,75482,0
2312,106839,75439,0
2304,106806,75442,0
2304,106777,75440,0
2296,106810,75408,0
2286,106794,75460,0
2280,106848,75444,0
2280,106815,75472,0
2274,106844,75454,0
2273,106792,75480,0
2265,106838,75430,0
2258,106823,75412,0
2258,106754,75464,0
2260,106857,75444,0
2240,106814,75497,0
2248,106865,75448,0
2240,106817,75470,0
1675,106832,75446,0
2280,106798,75470,0
2240,106816,75510,0
2236,106853,75467,0
2236,106825,75457,0
2308,106810,75510,0
2316,106851,75494,0
2353,106831,75450,0
2360,106775,75468,0
2356,106856,75466,0
2356,106824,75524,0
2356,106862,75477,0
2348,106812,75504,0
2357,106842,75482,0
2340,106827,75509,0
2336,106839,75475,0
2336,106823,75454,0
2328,106779,75488,0
2316,106851,75469,0
2316,106818,75528,0
2312,106871,75475,0
2310,106818,75502,0
2308,106861,75480,0
2304,106815,75519,0
2300,106836,75484,0
2304,106831,75446,0
2304,106807,75516,0
2304,106872,75493,0
2304,106811,75519,0
2288,106859,75493,0
2285,106831,75530,0
2284,106858,75494,0
1696,106839,75487,0
2313,106814,75487,0
2262,106847,75526,0
2256,106801,75538,0
2320,106888,75518,0
2352,106828,75562,0
2352,106897,75530,0
2352,106867,75581,0
2345,106888,75535,0
2348,106860,75568,0
2340,106903,75540,0
2337,106865,75580,0
2332,106878,75543,0
2324,106864,75511,0
2330,106828,75572,0
2320,106915,75541,0
2328,106883,75604,0
2322,106927,75572,0
2312,106863,75588,0
2316,106895,75560,0
2320,106868,75554,0
2320,106828,75557,0
2322,106887,75528,0
2332,106867,75613,0
2322,106931,75573,0
2322,106885,75597,0
2336,106913,75562,0
2324,106870,75599,0
2306,106901,75569,0
2292,106860,75573,0
2284,106830,75571,0
1762,106899,75546,0
2304,106892,75614,0
2290,106932,75588,0
2258,106837,75629,0
2248,106946,75580,0
2256,106899,75623,0
2601,106910,75606,0
2656,106918,75585,0
2744,106887,75633,0
2792,106911,75618,0
2848,106891,75573,0
2884,106834,75608,0
2932,106895,75571,0
2980,106876,75644,0
3028,106932,75603,0
3072,106878,75643,0
3104,106907,75606,0
3136,106885,75639,0
3156,106900,75607,0
3168,106884,75553,0
3168,106833,75621,0
3152,106923,75617,0
3130,106902,75625,0
3092,106906,75612,0
3060,106872,75653,0
3008,106902,75594,0
2960,106875,75588,0
2906,106825,75608,0
2853,106913,75603,0
2776,106880,75636,0
2692,106914,75625,0
2616,106881,75645,0
2562,106904,75619,0
1898,106881,75618,0
2260,106941,75638,0
2240,106898,75630,0
2076,106889,75628,0
2114,106900,75682,0
2112,106925,75666,0
2122,106901,75643,0
2128,106869,75662,0
2124,106932,75632,0
2138,106909,75701,0
2144,106970,75678,0
2152,106920,75693,0
2156,106958,75664,0
2166,106928,75690,0
2180,106937,75668,0
2188,106914,75646,0
2192,106874,75692,0
2196,106944,75657,0
2201,106924,75716,0
2208,106977,75683,0
2196,106925,75710,0
2204,106949,75683,0
2200,106938,75699,0
2216,106890,75675,0
2208,106935,75643,0
2208,106901,75722,0
2202,106991,75697,0
2184,106943,75723,0
2188,106958,75684,0
2195,106928,75720,0
1616,106982,75691,0
2228,106944,75669,0
2232,106890,75703,0
2204,106938,75714,0
2208,106939,75684,0
2208,106888,75745,0
2208,106972,75696,0
2248,106925,75666,0
2246,106965,75706,0
2256,106924,75753,0
2281,106968,75722,0
2296,106938,75735,0
2300,106982,75709,0
2305,106941,75716,0
2308,106889,75717,0
2306,106971,75692,0
2304,106934,75760,0
2304,106987,75727,0
2310,106957,75741,0
2304,106958,75710,0
2304,106949,75717,0
2298,106887,75719,0
2288,106936,75662,0
2288,106917,75751,0
2280,106975,75732,0
2288,106922,75768,0
2284,106958,75730,0
2288,106939,75745,0
2304,106959,75720,0
2280,106958,75728,0
2280,106885,75721,0
2272,106961,75685,0
2272,106943,75779,0
2278,106973,75724,0
1692,106943,75763,0
2264,106943,75761,0
2264,106969,75726,0
2316,106911,75740,0
2372,106965,75731,0
2370,106923,75733,0
2370,106885,75739,0
2380,106945,75706,0
2376,106917,75777,0
2384,106977,75723,0
2377,106932,75768,0
2368,106952,75727,0
2360,106933,75768,0
2360,106948,75718,0
2356,106934,75680,0
2344,106893,75730,0
2345,106964,75704,0
2348,106917,75761,0
2338,106957,75724,0
2336,106925,75740,0
2336,106950,75712,0
2338,106940,75708,0
2332,106869,75725,0
2338,106936,75672,0
2342,106910,75739,0
2337,106977,75703,0
2340,106922,75737,0
2336,106943,75701,0
2324,106926,75720,0
2328,106948,75700,0
1808,106914,75680,0
2340,106862,75696,0
2344,106926,75656,0
2284,106898,75591,0
2282,106874,75651,0
2290,106906,75602,0
2346,106862,75592,0
2341,106882,75609,0
2386,106896,75590,0
2386,106857,75603,0
2376,106884,75564,0
2368,106867,75533,0
2360,106797,75579,0
2354,106897,75567,0
2346,106847,75616,0
2340,106892,75588,0
2338,106850,75594,0
2325,106878,75574,0
2440,106855,75571,0
2328,106837,75545,0
2326,106845,75508,0
2324,106818,75572,0
2324,106865,75535,0
2336,106840,75597,0
2336,106889,75557,0
2330,106843,75580,0
2330,106856,75529,0
2330,106822,75566,0
2322,106837,75541,0
2328,106832,75496,0
2296,106795,75559,0
2293,106876,75537,0
2298,106823,75594,0
1698,106885,75531,0
2296,106838,75566,0
2252,106813,75563,0
2252,106841,75525,0
2320,106804,75530,0
2352,106850,75519,0
2344,106812,75560,0
2354,106830,75533,0
2345,106791,75488,0
2336,106767,75571,0
2338,106852,75519,0
2336,106808,75570,0
2336,106863,75555,0
2336,106816,75562,0
2336,106842,75531,0
2328,106835,75567,0
2338,106802,75519,0
2336,106825,75490,0
2336,106790,75577,0
2338,106859,75541,0
2332,106815,75574,0
2337,106856,75543,0
2336,106830,75575,0
2328,106846,75539,0
2330,106827,75551,0
2328,106815,75536,0
2324,106822,75507,0
2320,106779,75563,0
2300,106853,75541,0
2292,106826,75582,0
2300,106862,75565,0
1788,106825,75580,0
2314,106847,75564,0
2293,106876,75596,0
2298,106839,75608,0
2300,106850,75562,0
2332,106844,75564,0
2332,106833,75600,0
2376,106856,75564,0
2360,106819,75536,0
2362,106794,75592,0
2360,106864,75570,0
2362,106810,75618,0
2364,106865,75583,0
2368,106820,75591,0
2368,106839,75572,0
2370,106847,75525,0
2368,106769,75591,0
2356,106849,75551,0
2352,106823,75612,0
2348,106871,75574,0
2346,106831,75607,0
2340,106870,75586,0
2344,106828,75583,0
2329,106804,75583,0
2325,106832,75550,0
2324,106815,75633,0
2320,106881,75570,0
2328,106839,75623,0
2316,106865,75577,0
2304,106820,75607,0
2304,106844,75574,0
2308,106835,75542,0
1800,106785,75603,0
2338,106884,75570,0
2290,106870,75617,0
2308,106838,75638,0
2300,106849,75598,0
2336,106842,75649,0
2338,106831,75650,0
2392,106841,75616,0
2384,106815,75604,0
2385,106765,75617,0
2400,106846,75599,0
2400,106820,75657,0
2392,106869,75607,0
2388,106827,75639,0
2392,106869,75599,0
2385,106818,75630,0
2376,106808,75627,0
2372,106825,75543,0
2376,106798,75649,0
2360,106878,75605,0
2368,106829,75646,0
2364,106847,75601,0
2354,106820,75629,0
2346,106861,75611,0
2344,106816,75563,0
2348,106800,75632,0
2340,106870,75621,0
2346,106823,75638,0
2346,106865,75608,0
2332,106817,75615,0
2336,106862,75620,0
2338,106817,75599,0
1760,106784,75609,0
2354,106848,75598,0
2320,106855,75609,0
2312,106826,75645,0
2316,106856,75614,0
2330,106814,75619,0
2336,106812,75562,0
2386,106820,75648,0
2376,106870,75616,0
2378,106830,75653,0
2380,106851,75631,0
2388,106829,75639,0
2380,106867,75606,0
2370,106842,75604,0
2368,106773,75632,0
2358,106845,75607,0
2353,106833,75675,0
2346,106874,75624,0
2352,106850,75643,0
2336,106848,75603,0
2344,106822,75630,0
2338,106801,75599,0
2328,106823,75568,0
2340,106798,75646,0
2340,106866,75615,0
2346,106824,75638,0
2344,106849,75623,0
2340,106816,75653,0
2344,106829,75626,0
2328,106825,75541,0
2322,106786,75642,0
2316,106871,75614,0
1721,106828,75657,0
2325,106852,75601,0
2272,106881,75649,0
2272,106816,75669,0
2364,106859,75644,0
2408,106836,75634,0
2416,106777,75638,0
2396,106854,75600,0
2388,106823,75691,0
2372,106878,75631,0
2372,106831,75685,0
2368,106884,75645,0
2356,106839,75667,0
2352,106834,75651,0
2344,106846,75583,0
2344,106829,75689,0
2352,106885,75650,0
2348,106829,75676,0
2352,106880,75656,0
2348,106849,75663,0
2352,106872,75628,0
2352,106842,75618,0
2352,106779,75681,0
2352,106881,75635,0
2352,106825,75693,0
2348,106888,75671,0
2350,106849,75702,0
2344,106885,75661,0
2320,106845,75659,0
2320,106811,75662,0
2312,106857,75628,0
1724,106847,75711,0
2324,106896,75680,0
2336,106846,75699,0
2284,106937,75708,0
2288,106863,75762,0
2296,106927,75715,0
2336,106859,75709,0
2330,106867,75749,0
2368,106921,75719,0
2356,106877,75761,0
2360,106918,75714,0
2352,106869,75723,0
2358,106875,75709,0
2354,106894,75682,0
2344,106881,75762,0
2353,106932,75736,0
2344,106891,75755,0
2354,106926,75729,0
2352,106883,75751,0
2349,106879,75731,0
2349,106887,75675,0
2346,106879,75774,0
2348,106940,75729,0
2340,106889,75769,0
2344,106944,75738,0
2340,106892,75757,0
2332,106923,75734,0
2330,106890,75746,0
2322,106848,75741,0
2324,106896,75692,0
2296,106879,75782,0
2296,106930,75752,0
2294,106891,75783,0
1786,106931,75748,0
2292,106918,75814,0
2300,106945,75777,0
2578,106932,75783,0
2672,106946,75771,0
2720,106924,75815,0
2772,106954,75779,0
2824,106928,75749,0
2880,106863,75815,0
2936,106960,75758,0
2996,106899,75818,0
3048,106963,75791,0
3110,106915,75815,0
3152,106948,75771,0
3192,106929,75814,0
3216,106940,75807,0
3232,106921,75738,0
3240,106865,75809,0
3224,106942,75774,0
3204,106925,75842,0
3178,106956,75799,0
3124,106910,75815,0
3080,106953,75790,0
3040,106923,75804,0
2984,106895,75795,0
2920,106916,75756,0
2857,106884,75818,0
2762,106966,75793,0
2702,106928,75827,0
2644,106943,75809,0
2064,106917,75837,0
2548,106952,75806,0
2498,106902,75796,0
2304,106935,75822,0
2262,106924,75784,0
2228,106890,75859,0
2188,106975,75829,0
2046,106947,75831,0
2060,106981,75814,0
2068,106922,75847,0
2112,106964,75837,0
2120,106915,75861,0
2138,106929,75821,0
2144,106919,75780,0
2162,106880,75851,0
2160,106957,75835,0
2172,106919,75871,0
2176,106957,75846,0
2180,106921,75870,0
2178,106932,75839,0
2186,106912,75809,0
2184,106860,75831,0
2186,106933,75812,0
2184,106914,75868,0
2192,106988,75839,0
2204,106916,75868,0
2193,106973,75833,0
2202,106919,75854,0
2209,106886,75829,0
2214,106931,75789,0
2220,106909,75897,0
2196,106986,75832,0
2212,106924,75866,0
2224,106954,75854,0
1636,106918,75864,0
2208,106927,75901,0
2204,106960,75845,0
2248,106957,75870,0
2288,106965,75842,0
2288,106922,75867,0
2284,106913,75860,0
2280,106906,75808,0
2277,106898,75876,0
2274,106979,75866,0
2273,106923,75890,0
2264,106953,75857,0
2254,106885,75892,0
2256,106939,75850,0
2252,106912,75851,0
2244,106879,75848,0
2240,106931,75854,0
2248,106904,75916,0
2242,106966,75875,0
2248,106938,75889,0
2252,106946,75870,0
2264,106924,75872,0
2258,106890,75873,0
2261,106910,75828,0
2268,106910,75924,0
2260,106960,75874,0
2266,106927,75890,0
2240,106953,75887,0
2242,106928,75889,0
2244,106909,75867,0
1654,106954,75842,0
2252,106898,75918,0
2260,106963,75874,0
2212,106957,75878,0
2208,106975,75960,0
2216,107023,75921,0
2288,106946,75896,0
2288,106955,75956,0
2320,107002,75916,0
2336,106952,75940,0
2328,106975,75914,0
2308,106949,75913,0
2304,106915,75923,0
2306,106964,75870,0
2312,106934,75954,0
2308,106998,75900,0
2306,106945,75926,0
2305,106999,75899,0
2304,106940,75921,0
2316,106970,75910,0
2316,106960,75890,0
2314,106908,75883,0
2325,106973,75875,0
2312,106944,75939,0
2314,106987,75904,0
2320,106938,75903,0
2316,106971,75887,0
2312,106940,75866,0
2298,106907,75875,0
2304,106960,75865,0
2276,106947,75922,0
2264,106971,75875,0
2260,106943,75884,0
1672,106954,75860,0
2244,106881,75795,0
2256,106898,75757,0
2293,106862,75789,0
2320,106899,75767,0
2298,106863,75789,0
2308,106884,75749,0
2304,106857,75717,0
2304,106834,75762,0
2304,106909,75737,0
2296,106854,75787,0
2293,106907,75763,0
2293,106862,75760,0
2296,106892,75744,0
2304,106854,75756,0
2290,106806,75744,0
2294,106874,75712,0
2288,106842,75786,0
2277,106901,75736,0
2280,106845,75772,0
2284,106866,75749,0
2281,106841,75747,0
2272,106856,75716,0
2268,106842,75707,0
2260,106797,75728,0
2256,106864,75723,0
2240,106835,75768,0
2220,106858,75726,0
2220,106838,75741,0
2216,106858,75726,0
1634,106834,75751,0
2242,106799,75716,0
2249,106852,75690,0
2208,106829,75672,0
2213,106797,75714,0
2212,106834,75699,0
2224,106805,75680,0
2248,106782,75727,0
2238,106823,75695,0
2236,106797,75733,0
2288,106841,75692,0
2288,106804,75717,0
2288,106834,75681,0
2288,106799,75692,0
2288,106770,75695,0
2292,106811,75660,0
2304,106790,75733,0
2304,106849,75696,0
2296,106787,75709,0
2296,106822,75684,0
2298,106789,75699,0
2288,106823,75686,0
2288,106795,75633,0
2282,106763,75710,0
2280,106832,75677,0
2264,106796,75722,0
2256,106830,75682,0
2260,106807,75715,0
2256,106848,75688,0
2246,106799,75703,0
2249,106766,75691,0
2226,106786,75644,0
2232,106801,75747,0
2232,106837,75679,0
1724,106783,75710,0
2228,106822,75685,0
2232,106797,75713,0
2226,106755,75694,0
2264,106787,75706,0
2258,106811,75677,0
2274,106774,75651,0
2276,106730,75701,0
2264,106810,75668,0
2268,106790,75742,0
2264,106833,75687,0
2264,106793,75718,0
2260,106821,75687,0
2253,106794,75727,0
2256,106770,75692,0
2245,106790,75644,0
2250,106785,75734,0
2240,106855,75696,0
2244,106769,75720,0
2232,106831,75695,0
2228,106786,75727,0
2234,106803,75695,0
2228,106783,75637,0
2228,106755,75737,0
2232,106825,75709,0
2230,106790,75739,0
2233,106828,75711,0
2216,106788,75725,0
2216,106825,75690,0
2216,106784,75682,0
1705,106745,75715,0
2232,106837,75697,0
2228,106789,75736,0
2180,106864,75737,0
2188,106822,75778,0
2185,106863,75734,0
2220,106822,75741,0
2224,106828,75766,0
2264,106847,75743,0
2260,106812,75761,0
2260,106758,75721,0
2258,106848,75730,0
2258,106804,75778,0
2232,106866,75741,0
2240,106809,75779,0
2224,106855,75750,0
2226,106809,75761,0
2232,106831,75747,0
2226,106812,75703,0
2216,106791,75770,0
2212,106855,75746,0
2212,106812,75799,0
2220,106859,75765,0
2224,106837,75777,0
2229,106850,75730,0
2236,106819,75714,0
2240,106786,75746,0
2241,106852,75744,0
2304,106807,75806,0
2248,106861,75758,0
2220,106810,75761,0
2220,106848,75744,0
2226,106821,75735,0
1628,106776,75741,0
2234,106833,75708,0
2208,106781,75797,0
2196,106825,75752,0
2276,106804,75745,0
2312,106821,75747,0
2304,106809,75686,0
2309,106750,75762,0
2292,106842,75733,0
2282,106801,75783,0
2280,106847,75737,0
2282,106803,75765,0
2276,106821,75732,0
2284,106792,75715,0
2264,106745,75739,0
2272,106825,75728,0
2276,106785,75786,0
2272,106837,75726,0
2272,106779,75775,0
2272,106829,75746,0
2280,106780,75753,0
2272,106770,75731,0
2272,106794,75694,0
2280,106763,75800,0
2274,106831,75733,0
2276,106781,75765,0
2260,106825,75726,0
2264,106795,75761,0
2240,106839,75741,0
2224,106791,75724,0
2226,106758,75736,0
1639,106806,75720,0
2240,106783,75786,0
2208,106800,75752,0
2224,106791,75724,0
2228,106749,75786,0
2264,106807,75751,0
2262,106805,75718,0
2304,106806,75808,0
2304,106839,75771,0
2288,106820,75808,0
2298,106844,75767,0
2298,106805,75780,0
2294,106845,75768,0
2308,106811,75757,0
2304,106783,75766,0
2306,106825,75750,0
2305,106801,75814,0
2308,106871,75772,0
2306,106817,75795,0
2304,106843,75768,0
2306,106802,75792,0
2298,106805,75785,0
2292,106803,75734,0
2281,106808,75827,0
2288,106865,75746,0
2276,106814,75805,0
2268,106839,75780,0
2264,106812,75803,0
2256,106802,75794,0
2248,106821,75745,0
2240,106782,75803,0
2240,106866,75786,0
1724,106816,75833,0
2264,106869,75794,0
2232,106909,75826,0
2232,106840,75866,0
2236,106890,75844,0
2240,106827,75795,0
2236,106861,75860,0
2281,106891,75835,0
2276,106858,75857,0
2274,106828,75837,0
2284,106863,75790,0
2288,106829,75875,0
2288,106896,75850,0
2298,106855,75884,0
2294,106905,75847,0
2296,106862,75867,0
2292,106890,75847,0
2282,106864,75831,0
2278,106804,75850,0
2274,106866,75833,0
2260,106853,75909,0
2260,106907,75867,0
2252,106874,75874,0
2256,106880,75856,0
2232,106868,75864,0
2232,106847,75853,0
2224,106853,75827,0
2226,106845,75905,0
2226,106920,75866,0
2208,106860,75888,0
2208,106895,75856,0
2216,106867,75891,0
1636,106886,75859,0
2234,106870,75837,0
2172,106895,75880,0
2168,106844,75905,0
2162,106872,75875,0
2898,106873,75911,0
2936,106869,75842,0
3032,106855,75913,0
3064,106898,75869,0
3084,106852,75914,0
3096,106881,75872,0
3096,106860,75930,0
3072,106867,75877,0
3036,106862,75895,0
3010,106818,75878,0
2960,106867,75821,0
2908,106834,75918,0
2856,106904,75875,0
2804,106874,75895,0
2746,106891,75899,0
2684,106850,75920,0
2618,106890,75862,0
2562,106850,75841,0
2508,106801,75903,0
2452,106902,75873,0
2394,106855,75912,0
2352,106891,75887,0
2310,106863,75911,0
2276,106893,75890,0
2220,106847,75848,0
2200,106806,75886,0
2161,106899,75886,0
1554,106872,75926,0
2144,106894,75891,0
2004,106851,75937,0
1980,106885,75886,0
2040,106844,75843,0
2090,106898,75902,0
2092,106839,75920,0
2053,106865,75891,0
2104,106857,75851,0
2106,106820,75951,0
2108,106918,75897,0
2108,106838,75918,0
2112,106879,75912,0
2105,106854,75908,0
2112,106863,75902,0
2108,106861,75848,0
2120,106817,75937,0
2116,106884,75903,0
2132,106866,75932,0
2134,106898,75907,0
2140,106850,75924,0
2144,106883,75903,0
2156,106833,75916,0
2164,106819,75893,0
2168,106845,75865,0
2168,106838,75935,0
2170,106900,75921,0
2176,106840,75930,0
2160,106877,75879,0
2156,106844,75938,0
2160,106877,75913,0
1650,106834,75867,0
2180,106795,75912,0
2186,106866,75880,0
2156,106835,75959,0
2148,106882,75910,0
2162,106846,75938,0
2242,106876,75891,0
2250,106870,75916,0
2288,106848,75940,0
2280,106864,75908,0
2272,106846,75879,0
2272,106803,75912,0
2272,106864,75902,0
2268,106823,75972,0
2266,106897,75913,0
2272,106828,75938,0
2264,106865,75896,0
2269,106839,75954,0
2276,106823,75915,0
2274,106844,75893,0
2272,106823,75982,0
2276,106872,75931,0
2276,106834,75967,0
2276,106865,75923,0
2274,106837,75946,0
2272,106833,75923,0
2268,106844,75880,0
2264,106823,75966,0
2264,106891,75941,0
2264,106836,75968,0
2237,106878,75917,0
2224,106841,75974,0
2226,106882,75933,0
1716,106849,75903,0
2218,106876,75929,0
2226,106860,75901,0
2312,106842,75949,0
2328,106881,75924,0
2330,106846,75983,0
2328,106884,75938,0
2332,106861,75959,0
2320,106882,75941,0
2328,106853,75951,0
2320,106812,75925,0
2320,106858,75913,0
2325,106840,75967,0
2336,106898,75949,0
2337,106863,75946,0
2332,106866,75933,0
2336,106846,75946,0
2340,106831,75909,0
2324,106833,75869,0
2336,106817,75975,0
2320,106903,75909,0
2316,106836,75943,0
2312,106846,75893,0
2308,106834,75934,0
2306,106847,75893,0
2305,106840,75859,0
2304,106813,75938,0
2284,106897,75889,0
2284,106845,75939,0
2294,106857,75913,0
1784,106831,75910,0
2324,106861,75865,0
2322,106818,75857,0
2280,106818,75814,0
2284,106785,75840,0
2281,106820,75820,0
2284,106781,75829,0
2285,106785,75796,0
2296,106816,75826,0
2296,106825,75801,0
2296,106775,75824,0
2288,106807,75784,0
2328,106775,75743,0
2340,106731,75815,0
2328,106806,75780,0
2328,106798,75820,0
2332,106811,75808,0
2320,106779,75805,0
2320,106795,75770,0
2320,106792,75733,0
2316,106736,75819,0
2306,106825,75788,0
2304,106773,75796,0
2289,106796,75780,0
2281,106754,75803,0
2282,106802,75773,0
2274,106776,75760,0
2272,106709,75782,0
2272,106786,75755,0
2268,106763,75814,0
2274,106801,75779,0
2272,106752,75792,0
2248,106783,75768,0
2258,106755,75757,0
2256,106712,75775,0
1669,106783,75742,0
2240,106760,75750,0
2224,106733,75714,0
2300,106759,75796,0
2336,106787,75772,0
2340,106744,75803,0
2340,106793,75775,0
2344,106759,75792,0
2341,106774,75775,0
2338,106751,75702,0
2337,106700,75784,0
2330,106798,75774,0
2336,106770,75808,0
2320,106782,75765,0
2332,106776,75814,0
2324,106794,75777,0
2320,106755,75749,0
2304,106711,75777,0
2314,106775,75788,0
2304,106758,75808,0
2316,106791,75760,0
2314,106739,75798,0
2317,106792,75754,0
2320,106760,75751,0
2328,106710,75800,0
2324,106782,75779,0
2338,106755,75831,0
2312,106804,75781,0
2304,106763,75803,0
2312,106789,75768,0
1720,106771,75754,0
2328,106711,75793,0
2328,106788,75784,0
2290,106758,75799,0
2282,106731,75772,0
2296,106773,75766,0
2356,106758,75800,0
2352,106724,75836,0
2388,106807,75781,0
2384,106757,75841,0
2384,106808,75811,0
2372,106756,75815,0
2368,106802,75795,0
2370,106759,75804,0
2360,106710,75798,0
2356,106783,75776,0
2356,106745,75843,0
2356,106804,75820,0
2356,106746,75834,0
2360,106784,75799,0
2356,106767,75842,0
2356,106748,75807,0
2354,106787,75770,0
2354,106745,75859,0
2370,106823,75808,0
2368,106783,75837,0
2372,106796,75806,0
2368,106756,75820,0
2363,106762,75813,0
2364,106766,75786,0
2336,106750,75872,0
2330,106819,75816,0
2324,106762,75848,0
1742,106802,75810,0
2340,106763,75844,0
2306,106758,75799,0
2308,106737,75766,0
2392,106697,75798,0
2420,106785,75801,0
2424,106756,75847,0
2421,106768,75799,0
2416,106731,75838,0
2408,106759,75806,0
2408,106730,75776,0
2404,106719,75823,0
2400,106799,75793,0
2402,106751,75828,0
2408,106771,75812,0
2424,106739,75836,0
2416,106774,75809,0
2424,106734,75791,0
2417,106716,75807,0
2420,106732,75760,0
2424,106714,75859,0
2418,106800,75813,0
2420,106752,75834,0
2412,106764,75811,0
2408,106753,75841,0
2408,106769,75803,0
2404,106738,75775,0
2394,106696,75832,0
2376,106785,75824,0
2368,106753,75858,0
2378,106785,75817,0
1852,106755,75847,0
2402,106772,75822,0
2372,106781,75796,0
2378,106754,75862,0
2378,106795,75808,0
2376,106733,75824,0
2370,106735,75860,0
2412,106776,75835,0
2404,106753,75851,0
2412,106723,75822,0
2416,106761,75776,0
2412,106738,75875,0
2416,106780,75829,0
2412,106770,75874,0
2417,106792,75839,0
2412,106762,75845,0
2410,106766,75831,0
2408,106748,75780,0
2400,106743,75867,0
2400,106809,75830,0
2392,106752,75888,0
2384,106815,75837,0
2376,106768,75870,0
2368,106783,75849,0
2358,106762,75833,0
2352,106699,75827,0
2354,106764,75810,0
2352,106735,75888,0
2356,106802,75838,0
2336,106770,75858,0
2336,106784,75835,0
2352,106763,75841,0
1768,106744,75825,0
2370,106756,75812,0
2342,106768,75896,0
2352,106820,75869,0
2356,106783,75882,0
2384,106779,75958,0
2388,106743,75879,0
2432,106797,75868,0
2433,106789,75931,0
2437,106845,75874,0
2436,106796,75905,0
2444,106829,75881,0
2440,106801,75911,0
2440,106802,75875,0
2432,106798,75844,0
2426,106749,75923,0
2428,106856,75887,0
2422,106799,75937,0
2412,106820,75894,0
2408,106778,75912,0
2400,106825,75887,0
2384,106812,75865,0
2389,106738,75887,0
2392,106852,75897,0
2380,106822,75943,0
2385,106829,75925,0
2380,106819,75922,0
2381,106835,75903,0
2384,106816,75888,0
2372,106782,75943,0
2368,106850,75909,0
2378,106798,75950,0
1860,106825,75904,0
2400,106796,75945,0
2344,106899,75980,0
2338,106852,75996,0
2342,106875,75974,0
2376,106855,75961,0
2378,106853,75990,0
2424,106847,75971,0
2408,106862,75924,0
2412,106856,76022,0
2413,106906,75974,0
2408,106875,76020,0
2400,106911,75991,0
2392,106851,76008,0
2401,106921,75995,0
2386,106857,75985,0
2377,106831,75998,0
2372,106879,75953,0
2376,106858,76026,0
2364,106927,75986,0
2368,106899,76026,0
2364,106913,76000,0
2373,106893,76018,0
2377,106868,76012,0
2384,106882,75974,0
2376,106874,76047,0
2380,106932,76019,0
2384,106896,76021,0
2380,106929,76016,0
2356,106893,76029,0
2360,106925,76010,0
2353,106894,75971,0
1762,106866,76045,0
2372,106952,76021,0
2310,106985,76089,0
2302,106940,76105,0
2920,106970,76101,0
3024,106940,76099,0
3080,106977,76075,0
3114,106942,76103,0
3164,106920,76074,0
3196,106952,76041,0
3232,106913,76142,0
3256,106986,76097,0
3252,106952,76121,0
3256,106990,76113,0
3240,106948,76114,0
3212,106990,76110,0
3178,106944,76065,0
3144,106906,76135,0
3096,107000,76113,0
3056,106971,76139,0
3010,107011,76103,0
2948,106950,76142,0
2888,106991,76128,0
2824,106970,76132,0
2756,106929,76117,0
2688,106958,76069,0
2609,106937,76152,0
2552,107009,76119,0
2476,106981,76149,0
2425,106986,76125,0
2385,106961,76151,0
1746,107000,76114,0
2316,106975,76112,0
2162,107032,76180,0
2148,106987,76145,0
2136,106975,76182,0
2176,107079,76174,0
2180,106990,76180,0
2218,106953,76190,0
2220,107011,76165,0
2232,107005,76231,0
2228,107068,76187,0
2240,107001,76232,0
2244,107051,76208,0
2252,107008,76212,0
2264,106981,76178,0
2272,107017,76160,0
2288,107000,76247,0
2284,107055,76195,0
2290,107007,76220,0
2292,107027,76203,0
2290,107017,76228,0
2297,107021,76195,0
2298,106999,76163,0
2304,106986,76221,0
2306,107036,76198,0
2304,107011,76258,0
2298,107062,76198,0
2304,107031,76250,0
2292,107040,76208,0
2280,107008,76214,0
2280,106988,76213,0
2284,107004,76160,0
1764,107002,76253,0
2314,107060,76201,0
2296,107069,76225,0
2322,107035,76213,0
2304,106983,76239,0
2368,107020,76232,0
2362,107033,76188,0
2408,106978,76263,0
2406,107084,76238,0
2408,107038,76274,0
2416,107088,76235,0
2412,107011,76268,0
2420,107049,76226,0
2420,107048,76187,0
2416,106994,76266,0
2420,107073,76232,0
2422,107010,76290,0
2416,107079,76242,0
2410,107036,76273,0
2408,107056,76245,0
2420,107046,76224,0
2408,106990,76259,0
2408,107080,76237,0
2400,107040,76280,0
2392,107086,76255,0
2392,107052,76266,0
2392,107075,76248,0
2394,107063,76228,0
2394,106980,76264,0
2372,107065,76252,0
2376,107032,76314,0
2381,107099,76269,0
1794,107038,76272,0
2408,107097,76263,0
2380,107129,76267,0
2368,107059,76303,0
2364,107097,76263,0
2408,107029,76261,0
2416,107077,76282,0
2464,107006,76267,0
2456,107040,76201,0
2469,107035,76302,0
2466,107082,76223,0
2460,107027,76266,0
2466,107074,76237,0
2458,107026,76254,0
2464,107015,76229,0
2449,107040,76199,0
2448,107012,76260,0
2448,107083,76230,0
2428,107019,76254,0
2432,107056,76238,0
2432,107007,76240,0
2420,106999,76194,0
2424,107027,76166,0
2425,106994,76242,0
2422,107042,76195,0
2432,107022,76222,0
2428,107023,76187,0
2434,106999,76218,0
2436,107017,76184,0
2416,107007,76156,0
2420,106920,76181,0
2418,107020,76174,0
1908,106993,76210,0
2436,107038,76174,0
2386,106952,76057,0
2388,106909,76030,0
2392,106880,76025,0
2432,106892,76020,0
2424,106855,76028,0
2432,106933,75988,0
2420,106897,76074,0
2412,106953,76024,0
2409,106885,76058,0
2396,106916,76016,0
2392,106900,76013,0
2388,106853,76024,0
2376,106909,75993,0
2362,106886,76052,0
2364,106925,76018,0
2360,106888,76036,0
2354,106900,76009,0
2362,106875,76028,0
2352,106904,75996,0
2356,106857,75986,0
2362,106816,76004,0
2356,106923,75985,0
2356,106883,76033,0
2354,106899,75981,0
2356,106871,76002,0
2352,106895,75969,0
2332,106858,75939,0
2332,106818,76000,0
2324,106903,75973,0
1740,106856,76018,0
2336,106898,75967,0
2340,106853,75998,0
2284,106788,75941,0
2284,106831,75914,0
2284,106790,75880,0
2338,106744,75897,0
2340,106755,75897,0
2376,106798,75868,0
2378,106777,75951,0
2372,106837,75900,0
2373,106783,75937,0
2364,106828,75898,0
2368,106772,75915,0
2368,106784,75910,0
2368,106797,75862,0
2368,106775,75952,0
2374,106834,75906,0
2376,106763,75918,0
2376,106805,75894,0
2386,106780,75932,0
2386,106783,75891,0
2386,106774,75856,0
2388,106730,75922,0
2392,106798,75886,0
2388,106766,75922,0
2386,106810,75907,0
2396,106764,75915,0
2388,106801,75893,0
2373,106785,75877,0
2360,106729,75898,0
2352,106794,75862,0
2344,106764,75938,0
1834,106828,75886,0
2344,106784,75895,0
2345,106738,75906,0
2330,106830,75882,0
2404,106754,75904,0
2404,106778,75864,0
2400,106757,75939,0
2396,106812,75900,0
2402,106804,75959,0
2400,106832,75912,0
2396,106812,75940,0
2400,106821,75896,0
2404,106775,75866,0
2400,106728,75929,0
2408,106834,75907,0
2408,106793,75948,0
2404,106849,75907,0
2408,106797,75956,0
2408,106828,75914,0
2402,106792,75941,0
2392,106791,75913,0
2384,106802,75863,0
2392,106777,75951,0
2384,106857,75917,0
2368,106805,75959,0
2364,106849,75936,0
2368,106803,75943,0
2344,106840,75931,0
2346,106832,75932,0
2352,106749,75931,0
1837,106821,75932,0
2378,106806,75975,0
2384,106865,75939,0
2352,106815,75925,0
2346,106763,75948,0
2356,106835,75931,0
2348,106810,76014,0
2372,106817,75965,0
2372,106805,75953,0
2372,106835,75921,0
2410,106818,75997,0
2418,106871,75931,0
2418,106832,75981,0
2416,106850,75957,0
2417,106826,75988,0
2416,106835,75946,0
2418,106814,75890,0
2416,106775,75976,0
2421,106862,75941,0
2408,106819,75984,0
2408,106845,75942,0
2400,106811,75957,0
2392,106830,75941,0
2392,106798,75893,0
2384,106779,75977,0
2384,106852,75943,0
2377,106800,75979,0
2376,106827,75927,0
2376,106816,75955,0
2376,106822,75942,0
2384,106802,75896,0
2356,106778,75977,0
2366,106843,75934,0
2372,106801,75973,0
1782,106832,75940,0
2341,106795,75904,0
2348,106785,75938,0
2376,106776,75928,0
2416,106774,75859,0
2412,106744,75943,0
2417,106816,75909,0
2416,106767,75941,0
2413,106802,75905,0
2416,106778,75936,0
2412,106800,75903,0
2406,106761,75872,0
2408,106721,75928,0
2402,106800,75921,0
2394,106756,75948,0
2388,106794,75903,0
2381,106772,75922,0
2376,106801,75922,0
2372,106779,75890,0
2368,106719,75923,0
2370,106810,75900,0
2368,106756,75962,0
2376,106800,75917,0
2376,106771,75943,0
2372,106820,75917,0
2373,106784,75899,0
2388,106749,75939,0
2354,106829,75922,0
2360,106784,75958,0
2368,106832,75940,0
1856,106761,75943,0
2384,106806,75923,0
2374,106794,75886,0
2324,106813,75991,0
2328,106842,75980,0
2325,106801,75973,0
2368,106790,75972,0
2364,106840,75980,0
2400,106808,75957,0
2401,106779,75984,0
2390,106842,75960,0
2386,106802,76021,0
2368,106853,75975,0
2364,106825,75995,0
2364,106837,75978,0
2354,106806,75974,0
2346,106789,75966,0
2341,106836,75969,0
2338,106820,76045,0
2340,106883,76002,0
2344,106836,76008,0
2345,106843,75982,0
2352,106819,75999,0
2354,106832,75991,0
2356,106828,75962,0
2360,106814,76036,0
2368,106865,75983,0
2373,106824,76027,0
2370,106856,75990,0
2364,106835,76017,0
2336,106848,75972,0
2328,106833,75966,0
2330,106795,76007,0
1748,106848,75978,0
2340,106838,76030,0
2289,106834,76061,0
2296,106893,76029,0
2308,106837,76044,0
2344,106877,76033,0
2336,106845,75992,0
2328,106799,76031,0
2324,106878,76044,0
2316,106850,76069,0
2312,106884,76025,0
2312,106847,76049,0
2314,106869,76026,0
2312,106847,76040,0
2312,106799,76026,0
2312,106862,76021,0
2320,106838,76093,0
2324,106893,76030,0
2312,106851,76067,0
2324,106879,76032,0
2316,106855,76026,0
2320,106808,76048,0
2326,106851,76005,0
2316,106816,76088,0
2316,106891,76020,0
2308,106847,76075,0
2304,106882,76032,0
2296,106864,76072,0
2276,106860,76047,0
2274,106860,75995,0
2266,106818,76082,0
1765,106908,76058,0
2289,106852,76100,0
2276,106860,76086,0
2272,106813,76080,0
2276,106869,76048,0
2296,106864,76099,0
2304,106853,76074,0
2336,106850,76012,0
2340,106837,76107,0
2330,106918,76073,0
2328,106876,76105,0
2324,106894,76069,0
2322,106846,76088,0
2326,106874,76065,0
2320,106847,76021,0
2316,106815,76095,0
2304,106895,76069,0
2304,106855,76100,0
2300,106911,76083,0
2292,106850,76084,0
2288,106871,76066,0
2288,106857,76024,0
2272,106828,76114,0
2268,106901,76079,0
2262,106881,76099,0
2260,106891,76071,0
2258,106857,76094,0
2260,106889,76081,0
2272,106852,76037,0
2256,106804,76087,0
2268,106888,76071,0
2285,106873,76096,0
1724,106906,76061,0
2344,106853,76093,0
2436,106840,76078,0
2472,106851,76135,0
2528,106929,76092,0
2436,106851,76177,0
2378,106872,76159,0
2384,106910,76127,0
2328,106878,76152,0
2288,106909,76116,0
2250,106865,76107,0
2212,106822,76103,0
2180,106883,76093,0
2162,106874,76157,0
2118,106928,76124,0
2104,106860,76164,0
2072,106908,76113,0
2048,106863,76131,0
2022,106878,76106,0
2002,106880,76069,0
1996,106884,76150,0
1976,106941,76136,0
1960,106898,76161,0
1952,106921,76133,0
1953,106882,76160,0
1944,106908,76130,0
1944,106880,76075,0
1956,106863,76161,0
1948,106934,76128,0
1936,106901,76164,0
1938,106916,76131,0
1953,106898,76139,0
1371,106866,76122,0
1972,106895,76083,0
1960,106932,76143,0
1968,106893,76173,0
1968,106868,76157,0
2220,106888,76136,0
2228,106886,76105,0
2272,106841,76167,0
2285,106928,76147,0
2280,106896,76202,0
2288,106916,76167,0
2288,106886,76192,0
2280,106920,76140,0
2272,106898,76132,0
2272,106836,76163,0
2265,106895,76131,0
2272,106893,76211,0
2264,106946,76159,0
2252,106917,76188,0
2256,106940,76149,0
2256,106897,76191,0
2252,106926,76171,0
2256,106901,76126,0
2256,106845,76196,0
2272,106933,76163,0
2260,106914,76208,0
2264,106951,76180,0
2268,106895,76196,0
2268,106949,76174,0
2236,106903,76208,0
2250,106916,76173,0
2246,106904,76120,0
1664,106863,76201,0
2264,106971,76174,0
2220,106950,76197,0
2232,106907,76211,0
2289,106888,76213,0
2332,106911,76184,0
2332,106868,76185,0
2325,106930,76169,0
2320,106922,76246,0
2317,106968,76201,0
2308,106923,76246,0
2312,106946,76205,0
2308,106925,76223,0
2304,106923,76201,0
2297,106919,76163,0
2300,106859,76236,0
2312,106959,76183,0
2296,106911,76250,0
2304,106965,76225,0
2306,106923,76237,0
2304,106964,76215,0
2320,106915,76204,0
2320,106934,76211,0
2320,106923,76156,0
2320,106877,76229,0
2316,106967,76197,0
2314,106914,76259,0
2320,106973,76185,0
2292,106928,76242,0
2290,106948,76204,0
2284,106915,76212,0
1758,106920,76202,0
2304,106913,76167,0
2296,106891,76253,0
2245,106908,76122,0
2264,106883,76219,0
2260,106942,76141,0
2312,106890,76117,0
2320,106915,76199,0
2352,106947,76140,0
2349,106925,76183,0
2340,106909,76125,0
2344,106890,76161,0
2340,106877,76131,0
2332,106907,76091,0
2336,106875,76193,0
2332,106955,76131,0
2336,106909,76167,0
2340,106936,76097,0
2340,106888,76168,0
2353,106924,76128,0
2346,106903,76061,0
2337,106871,76144,0
2340,106946,76133,0
2340,106891,76157,0
2338,106927,76104,0
2328,106895,76121,0
2321,106922,76117,0
2320,106889,76087,0
2309,106843,76122,0
2322,106898,76080,0
2280,106877,76168,0
2282,106931,76088,0
2296,106866,76123,0
1688,106902,76082,0
2268,106835,76056,0
2244,106854,76002,0
2304,106844,76007,0
2344,106865,75993,0
2342,106830,76019,0
2332,106850,75979,0
2332,106819,75966,0
2332,106757,75997,0
2330,106848,75974,0
2336,106813,76020,0
2332,106863,75987,0
2332,106799,76004,0
2336,106836,75995,0
2330,106800,76003,0
2328,106806,75959,0
2326,106798,75931,0
2313,106772,76017,0
2308,106858,75970,0
2308,106800,76007,0
2294,106837,75998,0
2294,106809,75995,0
2290,106812,75962,0
2292,106776,75953,0
2281,106738,75985,0
2292,106820,75969,0
2290,106791,76026,0
2260,106840,75971,0
2268,106812,75995,0
2280,106820,75961,0
1774,106787,75967,0
2304,106737,75965,0
2320,106811,75944,0
2282,106735,75985,0
2280,106801,75948,0
2284,106796,76017,0
2289,106832,75972,0
2346,106763,76000,0
2348,106827,75969,0
2356,106800,76001,0
2400,106820,75961,0
2401,106781,75981,0
2408,106776,75959,0
2418,106785,75901,0
2406,106769,76004,0
2406,106824,75985,0
2402,106778,75998,0
2404,106825,75985,0
2389,106777,75978,0
2372,106792,75973,0
2384,106795,75938,0
2368,106758,76010,0
2362,106845,75979,0
2368,106785,76007,0
2348,106811,75961,0
2352,106788,76006,0
2348,106750,75978,0
2344,106794,75949,0
2344,106780,76036,0
2344,106823,75974,0
2352,106789,76007,0
2324,106804,75972,0
2330,106790,75963,0
2330,106733,75978,0
1746,106801,75950,0
2312,106792,76007,0
2312,106787,76000,0
2356,106776,75977,0
2400,106795,76032,0
2396,106845,76006,0
2393,106792,76043,0
2396,106814,75984,0
2388,106799,75976,0
2388,106759,76012,0
2377,106810,75965,0
2378,106783,76049,0
2372,106862,75989,0
2364,106810,76014,0
2360,106819,75996,0
2356,106784,76021,0
2344,106772,75994,0
2352,106795,75948,0
2348,106776,76045,0
2352,106844,76012,0
2352,106796,76048,0
2352,106837,76005,0
2368,106802,76016,0
2361,106769,76009,0
2364,106806,75954,0
2368,106789,76045,0
2368,106855,76002,0
2338,106814,76032,0
2344,106836,76004,0
2348,106813,76035,0
1830,106807,76010,0
2356,106820,75955,0
2360,106762,76042,0
2304,106831,76015,0
2312,106793,76023,0
2308,106816,75995,0
2360,106771,76013,0
2364,106780,76026,0
2400,106794,75975,0
2386,106776,75959,0
2386,106729,76024,0
2384,106821,76012,0
2384,106773,76037,0
2392,106813,75990,0
2376,106780,76015,0
2376,106803,75977,0
2376,106776,75961,0
2376,106735,76009,0
2372,106804,76002,0
2370,106758,76044,0
2372,106795,75993,0
2377,106776,76017,0
2380,106775,76008,0
2376,106767,75972,0
2369,106717,75994,0
2373,106794,75976,0
2370,106776,76047,0
2362,106805,75998,0
2352,106754,76039,0
2352,106791,75995,0
2336,106765,75998,0
2320,106762,75997,0
2332,106773,75945,0
1802,106762,76031,0
2344,106814,76001,0
2304,106806,75997,0
2310,106772,76025,0
2340,106735,75983,0
2376,106758,75956,0
2368,106731,76022,0
2360,106798,75996,0
2356,106768,76009,0
2364,106795,75988,0
2345,106771,76030,0
2354,106751,76005,0
2352,106785,75960,0
2362,106750,76049,0
2354,106836,76006,0
2356,106771,76048,0
2357,106789,76014,0
2356,106786,76049,0
2360,106800,76025,0
2352,106781,75968,0
2352,106759,76023,0
2348,106833,76010,0
2338,106781,76057,0
2348,106824,76027,0
2328,106791,76046,0
2336,106821,76009,0
2320,106802,76009,0
2320,106744,76021,0
2289,106817,75994,0
2290,106794,76065,0
2300,106835,76030,0
1708,106804,76049,0
2320,106835,76039,0
2320,106836,76120,0
2312,106867,76083,0
2324,106822,76109,0
2312,106840,76079,0
2324,106843,76090,0
2354,106824,76082,0
2352,106780,76086,0
2352,106833,76059,0
2362,106814,76152,0
2357,106878,76092,0
2360,106838,76097,0
2364,106857,76076,0
2358,106816,76094,0
2362,106769,76080,0
2360,106852,76070,0
2368,106841,76131,0
2354,106880,76088,0
2348,106825,76092,0
2340,106882,76064,0
2336,106841,76098,0
2324,106828,76086,0
2328,106817,76045,0
2320,106821,76121,0
2324,106884,76087,0
2316,106819,76115,0
2312,106871,76091,0
2324,106847,76101,0
2304,106861,76088,0
2296,106838,76048,0
2304,106802,76095,0
1810,106866,76088,0
2337,106823,76120,0
2300,106839,76099,0
2300,106816,76144,0
2292,106873,76122,0
2288,106845,76131,0
2296,106832,76123,0
2336,106855,76097,0
2320,106821,76118,0
2328,106803,76106,0
2322,106819,76062,0
2328,106791,76146,0
2324,106883,76109,0
2314,106828,76132,0
2312,106861,76090,0
2308,106823,76140,0
2304,106838,76103,0
2297,106826,76056,0
2293,106815,76140,0
2288,106882,76114,0
2293,106826,76154,0
2289,106874,76120,0
2288,106820,76139,0
2280,106867,76103,0
2285,106833,76062,0
2290,106809,76152,0
2290,106888,76124,0
2288,106825,76170,0
2296,106881,76127,0
2276,106852,76158,0
2270,106867,76125,0
2272,106835,76076,0
1764,106793,76167,0
2284,106895,76124,0
2234,106889,76163,0
2220,106855,76203,0
2224,106888,76163,0
3124,106878,76152,0
3128,106859,76185,0
3180,106890,76170,0
3148,106856,76171,0
3112,106814,76169,0
3082,106869,76146,0
3024,106838,76216,0
2981,106926,76148,0
2920,106853,76191,0
2858,106886,76160,0
2800,106846,76189,0
2724,106848,76171,0
2656,106872,76127,0
2592,106849,76230,0
2524,106907,76177,0
2468,106873,76197,0
2420,106887,76174,0
2374,106872,76166,0
2332,106825,76186,0
2304,106888,76158,0
2260,106864,76229,0
2232,106924,76195,0
2200,106893,76204,0
2168,106885,76181,0
2120,106875,76210,0
2098,106827,76184,0
2076,106879,76144,0
1480,106859,76228,0
2042,106916,76199,0
1952,106906,76207,0
1940,106861,76239,0
2128,106901,76236,0
2160,106879,76222,0
2164,106904,76208,0
2176,106844,76202,0
2176,106829,76241,0
2162,106898,76186,0
2176,106867,76257,0
2176,106903,76205,0
2184,106864,76229,0
2177,106904,76204,0
2180,106859,76176,0
2184,106812,76217,0
2197,106877,76194,0
2204,106858,76248,0
2216,106903,76200,0
2220,106863,76242,0
2232,106867,76201,0
2234,106860,76174,0
2236,106822,76214,0
2240,106892,76199,0
2240,106856,76230,0
2240,106897,76199,0
2240,106858,76222,0
2242,106875,76222,0
2216,106881,76184,0
2220,106822,76214,0
2216,106877,76198,0
1712,106841,76261,0
2248,106899,76198,0
2217,106867,76206,0
2220,106858,76195,0
2228,106811,76236,0
2288,106906,76227,0
2282,106844,76162,0
2316,106839,76265,0
2320,106888,76242,0
2312,106854,76259,0
2324,106883,76218,0
2324,106847,76249,0
2314,106880,76214,0
2316,106858,76186,0
2321,106826,76222,0
2320,106887,76217,0
2324,106864,76260,0
2324,106909,76230,0
2322,106858,76242,0
2320,106876,76245,0
2322,106885,76238,0
2314,106847,76233,0
2316,106866,76209,0
2312,106846,76278,0
2308,106928,76247,0
2296,106866,76294,0
2290,106899,76248,0
2292,106880,76273,0
2290,106917,76242,0
2266,106888,76255,0
2264,106845,76257,0
2272,106899,76214,0
1748,106864,76301,0
2292,106951,76259,0
2272,106907,76230,0
2280,106880,76278,0
2273,106911,76249,0
2284,106907,76210,0
2288,106863,76262,0
2328,106893,76235,0
2336,106853,76207,0
2336,106805,76222,0
2338,106895,76202,0
2340,106855,76279,0
2336,106899,76228,0
2340,106839,76247,0
2344,106886,76202,0
2336,106844,76240,0
2338,106834,76193,0
2340,106847,76153,0
2328,106802,76233,0
2325,106896,76184,0
2316,106843,76212,0
2316,106868,76196,0
2304,106834,76190,0
2308,106803,76166,0
2293,106825,76130,0
2296,106813,76220,0
2296,106889,76168,0
2304,106824,76189,0
2294,106841,76156,0
2282,106812,76179,0
2288,106821,76134,0
2289,106816,76114,0
1707,106797,76170,0
2313,106851,76139,0
2280,106781,76031,0
2272,106730,76066,0
2274,106740,76048,0
2272,106754,76042,0
2266,106745,75996,0
2304,106707,76071,0
2304,106772,76036,0
2298,106722,76050,0
2308,106768,76021,0
2296,106724,76036,0
2288,106758,76022,0
2292,106743,75982,0
2272,106694,76018,0
2280,106768,76005,0
2264,106729,76056,0
2256,106767,76016,0
2256,106724,76040,0
2253,106745,76005,0
2253,106732,76014,0
2242,106668,76019,0
2240,106729,75992,0
2232,106718,76036,0
2240,106754,76008,0
2244,106725,76044,0
2242,106753,75994,0
2250,106718,75961,0
2244,106669,76015,0
2232,106741,75978,0
2225,106710,76028,0
2228,106756,76011,0
1648,106710,76023,0
2244,106730,75985,0
2208,106721,76019,0
2208,106682,75978,0
2264,106726,75970,0
2293,106692,76075,0
2296,106772,76015,0
2292,106721,76058,0
2288,106751,76000,0
2290,106723,76044,0
2280,106722,76008,0
2272,106730,75973,0
2266,106699,76064,0
2264,106765,76018,0
2250,106719,76041,0
2256,106767,76002,0
2260,106739,76041,0
2256,106747,76017,0
2256,106713,75968,0
2264,106689,76046,0
2264,106767,76032,0
2268,106720,76045,0
2264,106749,76010,0
2268,106715,76027,0
2272,106736,76016,0
2276,106725,75971,0
2280,106695,76030,0
2268,106773,76023,0
2254,106713,76060,0
2244,106735,76024,0
2242,106710,76038,0
1736,106743,76026,0
2256,106715,76001,0
2268,106659,76025,0
2216,106694,76041,0
2224,106740,76024,0
2220,106702,76059,0
2261,106779,76000,0
2260,106768,76040,0
2288,106729,76082,0
2282,106759,76040,0
2280,106728,76067,0
2284,106747,76022,0
2276,106713,76043,0
2277,106704,76048,0
2268,106746,76030,0
2274,106746,76091,0
2280,106783,76045,0
2274,106737,76077,0
2284,106751,76045,0
2280,106752,76049,0
2281,106677,76057,0
2280,106750,76009,0
2292,106710,76088,0
2280,106774,76048,0
2280,106716,76082,0
2280,106767,76048,0
2280,106729,76054,0
2248,106708,76068,0
2272,106747,76016,0
2266,106690,76102,0
2242,106777,76069,0
2234,106728,76065,0
2242,106766,76043,0
1732,106745,76060,0
2216,106711,76077,0
2228,106754,76054,0
2226,106708,76065,0
2272,106743,76035,0
2260,106722,76029,0
2260,106638,76083,0
2258,106740,76033,0
2252,106704,76112,0
2256,106761,76062,0
2261,106698,76071,0
2264,106733,76065,0
2264,106703,76067,0
2264,106671,76057,0
2257,106720,76009,0
2261,106699,76090,0
2258,106763,76045,0
2256,106697,76069,0
2257,106728,76059,0
2256,106720,76054,0
2256,106653,76057,0
2236,106723,76033,0
2232,106693,76092,0
2240,106743,76043,0
2230,106709,76087,0
2216,106721,76044,0
2218,106702,76086,0
2200,106725,76061,0
2208,106697,76012,0
2210,106659,76094,0
1692,106752,76063,0
2226,106713,76074,0
2228,106752,76040,0
2208,106716,76053,0
2208,106704,76117,0
2208,106764,76070,0
2209,106714,76109,0
2236,106733,76079,0
2240,106709,76108,0
2236,106733,76067,0
2280,106725,76025,0
2276,106690,76101,0
2284,106780,76069,0
2285,106740,76121,0
2296,106755,76079,0
2292,106705,76108,0
2292,106756,76072,0
2290,106707,76054,0
2288,106657,76096,0
2292,106755,76078,0
2272,106736,76109,0
2273,106770,76067,0
2268,106723,76104,0
2264,106753,76084,0
2258,106739,76077,0
2258,106676,76078,0
2256,106742,76049,0
2244,106715,76126,0
2248,106782,76087,0
2244,106707,76111,0
2250,106743,76078,0
2240,106712,76108,0
2234,106713,76105,0
2232,106719,76049,0
1730,106733,76141,0
2224,106748,76166,0
2220,106801,76112,0
2252,106761,76089,0
2304,106707,76124,0
2292,106775,76097,0
2288,106746,76183,0
2298,106801,76140,0
2288,106769,76162,0
2288,106791,76148,0
2284,106766,76129,0
2280,106702,76146,0
2272,106773,76109,0
2266,106770,76205,0
2256,106801,76150,0
2245,106770,76178,0
2256,106802,76157,0
2232,106776,76169,0
2233,106781,76152,0
2234,106775,76119,0
2240,106763,76192,0
2246,106822,76155,0
2240,106791,76187,0
2240,106812,76163,0
2240,106765,76188,0
2241,106797,76170,0
2244,106798,76117,0
2228,106757,76200,0
2224,106825,76153,0
2224,106767,76205,0
1720,106830,76161,0
2232,106800,76193,0
2240,106815,76175,0
2188,106778,76198,0
2200,106809,76153,0
2192,106780,76242,0
2250,106859,76188,0
2256,106809,76171,0
2296,106788,76244,0
2300,106860,76213,0
2288,106795,76255,0
2284,106845,76208,0
2276,106781,76231,0
2280,106839,76208,0
2276,106793,76180,0
2276,106760,76228,0
2260,106845,76200,0
2258,106797,76239,0
2252,106859,76232,0
2256,106794,76242,0
2256,106818,76211,0
2262,106806,76188,0
2252,106775,76248,0
2250,106866,76220,0
2260,106805,76257,0
2253,106836,76232,0
2244,106808,76246,0
2240,106805,76211,0
2240,106816,76188,0
2232,106794,76280,0
2208,106855,76217,0
2208,106810,76238,0
2208,106845,76225,0
1608,106806,76264,0
2196,106830,76230,0
2152,106807,76281,0
2148,106831,76252,0
2866,106798,76274,0
2956,106840,76236,0
3000,106829,76261,0
3025,106808,76224,0
3036,106812,76216,0
3056,106775,76292,0
3056,106871,76248,0
3044,106825,76282,0
3024,106830,76252,0
2992,106812,76271,0
2964,106837,76235,0
2916,106819,76211,0
2880,106768,76273,0
2836,106839,76233,0
2784,106821,76291,0
2728,106854,76230,0
2668,106793,76277,0
2604,106833,76254,0
2530,106798,76230,0
2476,106754,76257,0
2410,106861,76242,0
2360,106795,76276,0
2304,106842,76247,0
2256,106802,76281,0
2204,106825,76276,0
2160,106784,76276,0
2138,106790,76253,0
1526,106804,76243,0
2088,106801,76315,0
1976,106836,76247,0
1965,106816,76346,0
1948,106886,76296,0
1978,106845,76295,0
1980,106839,76327,0
2024,106866,76289,0
2028,106828,76289,0
2033,106838,76301,0
2040,106837,76263,0
2040,106817,76334,0
2050,106881,76306,0
2052,106831,76348,0
2066,106872,76286,0
2070,106807,76328,0
2073,106855,76304,0
2080,106831,76266,0
2088,106819,76327,0
2082,106870,76301,0
2084,106831,76344,0
2088,106865,76316,0
2085,106830,76331,0
2084,106868,76312,0
2085,106839,76326,0
2090,106800,76318,0
2104,106867,76283,0
2098,106834,76346,0
2104,106904,76324,0
2096,106854,76348,0
2104,106891,76305,0
2118,106847,76331,0
1624,106844,76325,0
2144,106849,76266,0
2156,106851,76366,0
2145,106843,76346,0
2146,106849,76293,0
2212,106854,76342,0
2210,106834,76379,0
2256,106915,76347,0
2253,106867,76379,0
2264,106879,76335,0
2266,106857,76364,0
2256,106849,76335,0
2261,106863,76313,0
2272,106832,76381,0
2256,106911,76335,0
2252,106850,76365,0
2248,106882,76349,0
2240,106852,76358,0
2240,106845,76336,0
2234,106849,76294,0
2240,106813,76364,0
2221,106898,76357,0
2216,106841,76373,0
2220,106883,76356,0
2220,106855,76369,0
2224,106882,76342,0
2232,106861,76326,0
2234,106791,76366,0
2244,106881,76349,0
2220,106853,76384,0
2222,106871,76354,0
2225,106856,76388,0
1649,106874,76346,0
2256,106836,76339,0
2208,106865,76300,0
2210,106824,76377,0
2209,106871,76323,0
2273,106837,76325,0
2272,106818,76348,0
2312,106850,76317,0
2312,106823,76275,0
2308,106779,76324,0
2304,106860,76315,0
2306,106821,76331,0
2297,106854,76311,0
2292,106823,76312,0
2280,106833,76300,0
2288,106809,76236,0
2272,106780,76309,0
2273,106856,76264,0
2278,106784,76306,0
2276,106852,76285,0
2268,106801,76313,0
2261,106824,76266,0
2272,106811,76243,0
2264,106742,76263,0
2264,106831,76250,0
2278,106795,76310,0
2272,106831,76244,0
2266,106788,76281,0
2274,106798,76252,0
2256,106758,76236,0
2254,106729,76242,0
2256,106783,76213,0
1738,106767,76283,0
2272,106799,76228,0
2204,106719,76162,0
2204,106782,76144,0
2252,106727,76078,0
2280,106750,76142,0
2288,106736,76096,0
2274,106679,76145,0
2266,106757,76104,0
2272,106710,76161,0
2256,106758,76135,0
2256,106704,76146,0
2256,106766,76117,0
2240,106720,76104,0
2244,106662,76106,0
2242,106736,76100,0
2240,106701,76167,0
2240,106736,76099,0
2252,106701,76119,0
2240,106720,76095,0
2246,106701,76106,0
2249,106673,76117,0
2244,106719,76070,0
2248,106689,76129,0
2234,106731,76095,0
2234,106689,76115,0
2240,106708,76068,0
2226,106687,76090,0
2204,106646,76079,0
2197,106717,76069,0
2196,106683,76152,0
1608,106718,76086,0
2216,106670,76110,0
2212,106718,76090,0
2178,106690,76023,0
2184,106656,76115,0
2186,106722,76080,0
2236,106672,76080,0
2236,106665,76099,0
2272,106707,76061,0
2262,106669,76088,0
2262,106702,76053,0
2260,106666,76045,0
2260,106598,76071,0
2256,106676,76042,0
2252,106662,76120,0
2260,106705,76080,0
2261,106680,76096,0
2265,106700,76057,0
2276,106653,76072,0
2272,106611,76069,0
2272,106684,76037,0
2272,106665,76107,0
2268,106713,76066,0
2272,106670,76091,0
2266,106688,76057,0
2272,106676,76077,0
2257,106654,76071,0
2256,106659,76035,0
2264,106650,76115,0
2253,106733,76064,0
2226,106679,76083,0
2240,106687,76072,0
2240,106652,76082,0
1724,106677,76062,0
2240,106668,76069,0
2248,106644,76042,0
2264,106639,76074,0
2304,106651,76031,0
2296,106602,76077,0
2298,106683,76065,0
2304,106648,76110,0
2304,106687,76068,0
2304,106649,76091,0
2306,106683,76088,0
2304,106642,76053,0
2306,106606,76090,0
2304,106684,76060,0
2304,106653,76101,0
2304,106705,76084,0
2296,106651,76100,0
2288,106689,76073,0
2282,106653,76047,0
2276,106611,76083,0
2272,106675,76072,0
2264,106659,76118,0
2265,106719,76080,0
2264,106642,76107,0
2260,106673,76085,0
2258,106656,76054,0
2264,106609,76087,0
2234,106671,76064,0
2240,106656,76132,0
2248,106702,76096,0
1666,106673,76089,0
2276,106685,76085,0
2272,106653,76042,0
2246,106648,76110,0
2228,106659,76072,0
2232,106647,76034,0
2232,106646,76130,0
2284,106659,76085,0
2282,106664,76112,0
2284,106667,76081,0
2336,106632,76102,0
2330,106621,76079,0
2336,106652,76061,0
2336,106632,76130,0
2338,106709,76079,0
2336,106642,76116,0
2336,106661,76078,0
2320,106632,76131,0
2317,106635,76076,0
2312,106640,76029,0
2304,106614,76094,0
2304,106678,76075,0
2296,106641,76121,0
2296,106672,76076,0
2289,106645,76105,0
2288,106673,76070,0
2288,106650,76052,0
2284,106596,76104,0
2285,106655,76068,0
2292,106636,76115,0
2298,106668,76084,0
2274,106649,76080,0
2282,106668,76061,0
2284,106632,76046,0
1774,106578,76090,0
2240,106639,76078,0
2256,106638,76065,0
2282,106674,76073,0
2322,106635,76042,0
2329,106586,76093,0
2320,106664,76072,0
2322,106623,76110,0
2320,106674,76080,0
2312,106632,76105,0
2309,106666,76073,0
2308,106645,76058,0
2304,106575,76083,0
2304,106668,76051,0
2304,106647,76127,0
2296,106688,76090,0
2285,106628,76112,0
2292,106665,76086,0
2290,106631,76087,0
2292,106583,76072,0
2297,106645,76063,0
2288,106646,76133,0
2304,106686,76080,0
2294,106632,76110,0
2304,106637,76080,0
2300,106628,76085,0
2304,106594,76091,0
2272,106660,76071,0
2285,106639,76134,0
2274,106694,76084,0
1756,106641,76117,0
2292,106672,76087,0
2282,106636,76027,0
2228,106694,76103,0
2232,106643,76142,0
2240,106668,76101,0
2346,106662,76106,0
2332,106658,76127,0
2376,106628,76113,0
2364,106655,76071,0
2360,106643,76174,0
2368,106701,76111,0
2354,106628,76144,0
2346,106686,76113,0
2341,106654,76138,0
2338,106661,76113,0
2338,106663,76083,0
2336,106625,76158,0
2332,106737,76104,0
2332,106659,76160,0
2340,106686,76124,0
2340,106662,76145,0
2336,106642,76114,0
2336,106663,76084,0
2348,106626,76158,0
2332,106712,76118,0
2328,106648,76145,0
2328,106690,76123,0
2328,106670,76130,0
2284,106604,76128,0
2288,106699,76120,0
2285,106664,76179,0
2288,106725,76143,0
1697,106668,76151,0
2260,106694,76168,0
2280,106675,76161,0
2312,106633,76161,0
2341,106697,76141,0
2342,106669,76221,0
2348,106720,76171,0
2330,106661,76178,0
2336,106697,76166,0
2336,106666,76167,0
2329,106608,76169,0
2336,106683,76138,0
2344,106669,76206,0
2348,106717,76173,0
2348,106677,76192,0
2348,106705,76155,0
2356,106678,76200,0
2344,106689,76165,0
2348,106669,76119,0
2341,106657,76187,0
2332,106723,76193,0
2326,106680,76208,0
2316,106716,76179,0
2314,106676,76192,0
2304,106668,76175,0
2306,106682,76138,0
2296,106649,76209,0
2272,106715,76178,0
2282,106679,76194,0
2277,106712,76177,0
1746,106671,76199,0
2296,106703,76165,0
2304,106687,76114,0
2268,106684,76161,0
2272,106645,76187,0
2276,106647,76171,0
2268,106657,76120,0
2304,106632,76188,0
2337,106702,76165,0
2340,106643,76212,0
2416,106692,76172,0
2448,106650,76208,0
2484,106665,76179,0
2530,106648,76139,0
2576,106606,76200,0
2624,106690,76161,0
2688,106635,76215,0
2736,106696,76172,0
2784,106652,76188,0
2836,106684,76178,0
2888,106652,76158,0
2940,106605,76204,0
2996,106682,76167,0
3040,106671,76209,0
3093,106694,76188,0
3130,106656,76215,0
3164,106677,76182,0
3194,106647,76175,0
3200,106596,76183,0
3200,106677,76168,0
3184,106655,76212,0
3144,106700,76188,0
3092,106661,76194,0
3066,106691,76185,0
2544,106661,76190,0
2724,106651,76200,0
2656,106667,76171,0
1986,106629,76203,0
2017,106685,76184,0
2032,106634,76203,0
2040,106672,76173,0
2037,106644,76117,0
2056,106620,76197,0
2052,106695,76184,0
2060,106652,76212,0
2080,106668,76171,0
2070,106636,76203,0
2068,106664,76178,0
2074,106632,76164,0
2076,106599,76190,0
2088,106668,76162,0
2082,106632,76208,0
2088,106665,76179,0
2096,106649,76214,0
2098,106665,76144,0
2098,106631,76190,0
2098,106618,76173,0
2124,106648,76145,0
2128,106607,76213,0
2144,106677,76178,0
2145,106629,76206,0
2136,106668,76176,0
2142,106632,76202,0
2154,106640,76178,0
1654,106639,76144,0
2184,106597,76210,0
2188,106677,76166,0
2160,106617,76194,0
2162,106609,76153,0
2165,106611,76108,0
2232,106576,76239,0
2272,106619,76220,0
2312,106644,76164,0
2310,106621,76194,0
2304,106652,76170,0
2304,106600,76182,0
2304,106561,76182,0
2304,106621,76137,0
2290,106600,76205,0
2296,106658,76168,0
2293,106615,76192,0
2288,106626,76156,0
2288,106605,76163,0
2288,106566,76173,0
2284,106613,76123,0
2292,106574,76201,0
2282,106641,76172,0
2304,106587,76202,0
2304,106633,76159,0
2306,106588,76161,0
2296,106545,76152,0
2292,106612,76131,0
2304,106590,76211,0
2304,106653,76169,0
2268,106596,76187,0
2258,106618,76151,0
2258,106594,76169,0
1740,106578,76146,0
2272,106620,76141,0
2245,106635,76178,0
2240,106600,76186,0
2332,106569,76188,0
2368,106618,76146,0
2368,106551,76177,0
2360,106644,76159,0
2360,106613,76197,0
2356,106643,76169,0
2360,106613,76191,0
2352,106612,76169,0
2352,106606,76120,0
2354,106581,76211,0
2354,106649,76172,0
2356,106620,76207,0
2360,106644,76161,0
2360,106618,76194,0
2362,106630,76168,0
2354,106605,76121,0
2360,106551,76170,0
2356,106634,76151,0
2354,106595,76195,0
2360,106653,76160,0
2348,106597,76197,0
2344,106621,76144,0
2346,106598,76164,0
2340,106576,76137,0
2320,106612,76103,0
2320,106605,76173,0
2316,106641,76138,0
1730,106592,76165,0
2322,106637,76139,0
2294,106545,76064,0
2304,106578,76047,0
2308,106540,76038,0
2316,106547,76024,0
2306,106528,76065,0
2340,106594,76047,0
2338,106538,76049,0
2342,106560,76016,0
2332,106536,76042,0
2336,106553,76020,0
2336,106524,75957,0
2328,106515,76047,0
2328,106579,76018,0
2332,106538,76053,0
2328,106546,75999,0
2332,106537,76045,0
2328,106546,76009,0
2324,106543,75949,0
2316,106510,76047,0
2316,106578,75991,0
2304,106510,76007,0
2296,106559,75984,0
2290,106504,76013,0
2292,106505,75976,0
2282,106538,75926,0
2282,106516,76003,0
2284,106576,75977,0
2264,106511,76011,0
2258,106532,75961,0
2265,106513,75985,0
1674,106517,75956,0
2288,106510,75915,0
2208,106482,75940,0
2256,106495,75905,0
2261,106473,75931,0
2290,106505,75910,0
2300,106512,75904,0
2336,106471,75936,0
2336,106498,75912,0
2338,106468,75868,0
2344,106425,75935,0
2344,106507,75901,0
2353,106463,75946,0
2352,106499,75899,0
2354,106458,75941,0
2352,106493,75914,0
2352,106468,75892,0
2346,106415,75903,0
2348,106488,75899,0
2349,106476,75962,0
2338,106507,75911,0
2332,106467,75922,0
2332,106502,75916,0
2328,106473,75906,0
2340,106428,75916,0
2332,106481,75878,0
2328,106460,75962,0
2340,106529,75911,0
2338,106454,75925,0
2320,106508,75907,0
2324,106479,75900,0
2320,106419,75910,0
1820,106489,75867,0
2344,106467,75954,0
2308,106467,75940,0
2310,106500,75921,0
2298,106482,75932,0
2328,106502,75940,0
2336,106467,75911,0
2376,106480,75869,0
2376,106455,75952,0
2377,106525,75931,0
2380,106461,75945,0
2380,106505,75911,0
2370,106462,75935,0
2372,106494,75925,0
2368,106451,75860,0
2362,106448,75947,0
2360,106509,75924,0
2352,106477,75958,0
2354,106509,75940,0
2340,106469,75947,0
2345,106469,75922,0
2360,106472,75879,0
2345,106457,75949,0
2356,106498,75937,0
2357,106462,75954,0
2353,106492,75924,0
2368,106480,75965,0
2362,106482,75908,0
2368,106458,75884,0
2344,106460,75941,0
2348,106513,75926,0
2352,106483,75955,0
1836,106527,75931,0
2376,106477,75948,0
2300,106482,75955,0
2312,106441,75961,0
2344,106508,75950,0
2384,106529,75944,0
2392,106504,75923,0
2392,106474,75969,0
2389,106543,75951,0
2400,106507,75981,0
2392,106524,75962,0
2384,106476,75960,0
2384,106467,75953,0
2376,106500,75937,0
2373,106488,76016,0
2376,106551,75952,0
2370,106499,75985,0
2370,106525,75960,0
2373,106495,75987,0
2374,106478,75950,0
2378,106485,75895,0
2372,106481,76011,0
2370,106548,75963,0
2372,106504,75986,0
2370,106527,75960,0
2368,106490,75994,0
2368,106509,75952,0
2368,106502,75919,0
2336,106462,75997,0
2328,106553,75945,0
2328,106490,76003,0
1745,106530,75980,0
2336,106489,75976,0
2336,106530,75970,0
2292,106443,75974,0
2298,106518,75946,0
2308,106498,75999,0
2360,106553,75961,0
2356,106549,75960,0
2394,106499,75997,0
2392,106535,75977,0
2388,106495,75992,0
2384,106514,75967,0
2377,106494,75942,0
2376,106442,75982,0
2369,106533,75958,0
2377,106476,76018,0
2380,106517,75979,0
2378,106503,75999,0
2372,106511,75964,0
2378,106507,75934,0
2374,106462,75986,0
2376,106544,75964,0
2377,106517,76003,0
2368,106533,75958,0
2362,106495,75988,0
2352,106505,75965,0
2353,106502,75941,0
2348,106446,75994,0
2330,106541,75978,0
2328,106495,75991,0
2308,106527,75986,0
2296,106505,75997,0
2296,106506,75966,0
1777,106490,75916,0
2285,106501,76008,0
2284,106535,75985,0
2349,106516,76030,0
2388,106543,75991,0
2384,106503,75964,0
2390,106473,76014,0
2381,106548,75988,0
2392,106483,76024,0
2384,106548,75992,0
2384,106517,76024,0
2386,106553,75978,0
2392,106513,75961,0
2388,106484,76039,0
2385,106565,76005,0
2388,106514,76019,0
2385,106532,75992,0
2368,106509,76030,0
2360,106482,75977,0
2354,106531,75972,0
2340,106519,76042,0
2336,106563,76006,0
2328,106518,76030,0
2324,106551,76000,0
2320,106515,76011,0
2314,106493,75993,0
2320,106547,75970,0
2296,106514,76064,0
2300,106577,76011,0
2300,106519,76035,0
2412,106556,76013,0
2332,106519,76013,0
2336,106463,76041,0
2312,106520,76078,0
2312,106586,76048,0
2408,106539,76077,0
2314,106588,76049,0
2300,106568,76018,0
2304,106571,76054,0
2304,106527,76068,0
2345,106525,76035,0
2356,106557,76020,0
2356,106543,76092,0
2364,106599,76052,0
2357,106556,76089,0
2354,106563,76049,0
2352,106556,76093,0
2360,106560,76034,0
2356,106545,76020,0
2353,106533,76118,0
2336,106620,76059,0
2332,106553,76095,0
2324,106575,76059,0
2336,106556,76063,0
2329,106508,76080,0
2316,106572,76037,0
2320,106554,76118,0
2312,106621,76073,0
2320,106553,76105,0
2321,106583,76059,0
2312,106550,76054,0
2294,106516,76095,0
2298,106597,76054,0
2305,106566,76113,0
1722,106598,76084,0
2277,106589,76076,0
2273,106551,76138,0
2316,106554,76058,0
2372,106554,76136,0
2404,106617,76113,0
2416,106554,76133,0
2442,106600,76089,0
2480,106564,76135,0
2514,106521,76122,0
2560,106594,76096,0
2606,106560,76159,0
2648,106607,76109,0
2696,106561,76135,0
2752,106597,76098,0
2788,106552,76089,0
2844,106535,76117,0
2896,106602,76104,0
2948,106571,76177,0
3008,106609,76113,0
3056,106556,76145,0
3106,106610,76108,0
3144,106583,76137,0
3180,106533,76127,0
3202,106606,76116,0
3212,106565,76177,0
3208,106623,76115,0
3168,106575,76165,0
3128,106598,76128,0
3096,106560,76107,0
2482,106536,76132,0
3032,106614,76134,0
2980,106571,76166,0
2745,106618,76143,0
2676,106618,76230,0
2610,106652,76163,0
1998,106604,76177,0
1994,106610,76192,0
2032,106645,76176,0
2024,106619,76219,0
2028,106622,76168,0
2022,106622,76146,0
2028,106571,76209,0
2033,106666,76201,0
2032,106601,76244,0
2042,106631,76191,0
2040,106615,76227,0
2048,106619,76186,0
2058,106601,76138,0
2068,106582,76228,0
2072,106668,76189,0
2084,106623,76230,0
2090,106650,76190,0
2112,106630,76213,0
2112,106590,76203,0
2116,106643,76171,0
2125,106603,76237,0
2130,106679,76213,0
2134,106613,76234,0
2138,106631,76202,0
2122,106609,76199,0
2128,106593,76192,0
2134,106636,76175,0
1612,106627,76257,0
2148,106668,76204,0
2132,106620,76260,0
2152,106649,76205,0
2278,106606,76195,0
2308,106595,76201,0
2305,106629,76186,0
2304,106610,76270,0
2304,106676,76222,0
2304,106616,76248,0
2304,106662,76219,0
2298,106616,76229,0
2304,106605,76224,0
2298,106615,76182,0
2304,106598,76276,0
2312,106672,76231,0
2324,106622,76258,0
2328,106643,76205,0
2320,106631,76255,0
2322,106652,76220,0
2328,106631,76187,0
2328,106590,76259,0
2326,106678,76218,0
2320,106621,76248,0
2312,106649,76231,0
2306,106625,76267,0
2296,106598,76218,0
2294,106615,76191,0
2280,106590,76289,0
2276,106665,76239,0
2269,106617,76254,0
1687,106654,76216,0
2296,106617,76261,0
2258,106686,76263,0
2264,106631,76298,0
2260,106645,76257,0
2278,106629,76274,0
2240,106653,76213,0
2320,106617,76299,0
2328,106684,76255,0
2312,106642,76308,0
2322,106653,76260,0
2320,106622,76258,0
2316,106650,76252,0
2324,106637,76195,0
2320,106620,76267,0
2312,106673,76250,0
2320,106641,76284,0
2312,106679,76246,0
2308,106634,76270,0
2304,106638,76250,0
2299,106639,76218,0
2293,106612,76284,0
2288,106668,76243,0
2284,106619,76273,0
2277,106665,76241,0
2277,106623,76255,0
2280,106641,76230,0
2276,106607,76189,0
2276,106575,76248,0
2256,106647,76220,0
2261,106611,76256,0
2266,106665,76224,0
1681,106630,76229,0
2292,106640,76216,0
2272,106571,76085,0
2276,106534,76086,0
2278,106491,76094,0
2285,106571,76095,0
2296,106552,76052,0
2338,106476,76097,0
2332,106569,76074,0
2332,106523,76123,0
2336,106567,76074,0
2341,106539,76095,0
2328,106542,76052,0
2324,106537,76019,0
2324,106510,76112,0
2312,106552,76042,0
2316,106507,76088,0
2305,106559,76039,0
2304,106528,76068,0
2296,106500,76042,0
2281,106520,76009,0
2280,106510,76080,0
2282,106575,76048,0
2272,106511,76063,0
2276,106534,76025,0
2272,106510,76065,0
2276,106518,76039,0
2272,106496,75993,0
2280,106470,76040,0
2264,106555,75999,0
2264,106505,76043,0
2264,106514,76035,0
1756,106501,76046,0
2290,106510,76004,0
2234,106451,75939,0
2228,106414,75991,0
2228,106486,75973,0
2260,106424,75948,0
2272,106448,76031,0
2312,106504,75979,0
2309,106457,76003,0
2312,106475,75963,0
2304,106465,75982,0
2304,106422,75968,0
2294,106463,75948,0
2288,106435,76021,0
2298,106500,75970,0
2292,106462,76010,0
2288,106488,75966,0
2278,106463,75990,0
2284,106475,75966,0
2282,106453,75938,0
2280,106402,75996,0
2278,106498,75976,0
2284,106453,76022,0
2282,106478,75953,0
2292,106449,75992,0
2282,106454,75968,0
2284,106468,75925,0
2289,106432,76019,0
2281,106517,75984,0
2264,106446,76009,0
2264,106478,75985,0
2264,106448,75999,0
1664,106454,75980,0
2272,106444,75930,0
2218,106474,75996,0
2224,106439,75985,0
2258,106459,75983,0
2308,106480,75985,0
2296,106446,76003,0
2292,106417,75981,0
2284,106466,75981,0
2282,106430,76031,0
2276,106497,75975,0
2268,106473,76034,0
2266,106479,75996,0
2264,106452,76018,0
2264,106441,75990,0
2266,106442,75964,0
2272,106428,76031,0
2272,106500,75988,0
2268,106454,76018,0
2266,106466,75978,0
2265,106456,76028,0
2272,106429,75995,0
2272,106465,75960,0
2276,106444,76043,0
2284,106496,75999,0
2272,106450,76031,0
2274,106472,75995,0
2264,106460,75997,0
2242,106416,76007,0
2245,106459,75966,0
2249,106451,76053,0
1740,106507,75994,0
2260,106453,76021,0
2224,106414,76021,0
2224,106479,75984,0
2228,106454,76068,0
2256,106509,75995,0
2260,106482,75980,0
2296,106460,76037,0
2286,106501,76002,0
2296,106448,76032,0
2284,106442,76017,0
2304,106449,75967,0
2288,106442,76047,0
2290,106500,76011,0
2294,106449,76035,0
2298,106489,76004,0
2286,106460,76005,0
2292,106415,76027,0
2296,106484,76001,0
2284,106460,76059,0
2290,106498,76018,0
2278,106462,76040,0
2274,106480,76012,0
2268,106455,75991,0
2262,106426,75996,0
2261,106474,75992,0
2256,106456,76037,0
2245,106495,76003,0
2244,106446,76059,0
2224,106474,76007,0
2225,106443,76037,0
2224,106415,75999,0
1644,106467,76000,0
2248,106429,76063,0
2216,106444,76037,0
2232,106481,75995,0
2236,106435,76026,0
2250,106471,76020,0
2256,106476,75998,0
2289,106439,76042,0
2288,106451,75999,0
2300,106431,75969,0
2304,106392,76012,0
2304,106469,75990,0
2312,106442,76035,0
2304,106488,75999,0
2322,106428,76034,0
2312,106455,75978,0
2320,106437,75956,0
2308,106424,76012,0
2312,106473,76005,0
2296,106422,76039,0
2296,106472,76016,0
2288,106419,76016,0
2288,106422,76014,0
2277,106452,75977,0
2284,106413,76061,0
2280,106491,76009,0
2261,106431,76038,0
2277,106472,76010,0
2272,106430,76007,0
2248,106441,76002,0
2253,106445,75970,0
2264,106420,76042,0
1756,106490,76000,0
2284,106441,76046,0
2252,106415,76006,0
2256,106451,76000,0
2244,106440,76064,0
2304,106448,76060,0
2312,106482,76014,0
2346,106446,76043,0
2346,106476,76014,0
2344,106457,76027,0
2348,106430,76007,0
2348,106453,75983,0
2345,106422,76046,0
2344,106497,76002,0
2336,106453,76043,0
2336,106484,76016,0
2324,106441,76072,0
2316,106460,76022,0
2324,106464,75966,0
2312,106431,76078,0
2320,106514,76029,0
2316,106446,76051,0
2316,106481,76022,0
2304,106467,76055,0
2308,106451,76043,0
2308,106463,75998,0
2308,106443,76079,0
2320,106520,76039,0
2314,106451,76077,0
2289,106488,76047,0
2301,106464,76076,0
2308,106473,76048,0
1796,106472,75991,0
2330,106437,76093,0
2266,106513,76068,0
2272,106478,76027,0
2336,106463,76114,0
2380,106487,76052,0
2384,106435,76108,0
2380,106518,76075,0
2370,106500,76124,0
2362,106531,76084,0
2361,106486,76110,0
2368,106507,76082,0
2352,106508,76048,0
2344,106451,76109,0
2345,106534,76091,0
2324,106491,76133,0
2330,106535,76109,0
2326,106498,76119,0
2328,106504,76091,0
2320,106496,76047,0
2322,106481,76127,0
2328,106553,76097,0
2320,106509,76144,0
2336,106539,76109,0
2330,106500,76133,0
2320,106514,76104,0
2328,106516,76045,0
2322,106466,76151,0
2300,106548,76111,0
2302,106511,76125,0
2300,106544,76098,0
1710,106515,76141,0
2312,106529,76116,0
2316,106495,76066,0
2264,106503,76124,0
2276,106466,76128,0
2272,106535,76130,0
2420,106512,76122,0
2452,106497,76177,0
2528,106571,76124,0
2560,106524,76161,0
2592,106535,76133,0
2648,106516,76146,0
2688,106482,76147,0
2738,106522,76111,0
2784,106505,76182,0
2824,106556,76134,0
2886,106518,76165,0
2936,106536,76143,0
2992,106513,76161,0
3040,106502,76141,0
3084,106518,76097,0
3120,106495,76181,0
3154,106567,76134,0
3173,106511,76169,0
3188,106550,76136,0
3178,106513,76163,0
3168,106482,76147,0
3136,106515,76109,0
3092,106513,76191,0
3050,106559,76146,0
2972,106511,76158,0
2920,106547,76152,0
2872,106506,76171,0
2328,106530,76147,0
2506,106558,76160,0
2456,106513,76204,0
2104,106514,76141,0
2144,106531,76203,0
2148,106572,76165,0
2140,106530,76175,0
2148,106481,76171,0
2160,106554,76149,0
2160,106516,76235,0
2168,106570,76178,0
2176,106527,76203,0
2176,106564,76175,0
2192,106529,76163,0
2204,106482,76199,0
2212,106585,76180,0
2220,106535,76212,0
2212,106552,76180,0
2216,106534,76200,0
2218,106532,76200,0
2220,106522,76147,0
2224,106510,76221,0
2216,106584,76189,0
2218,106551,76220,0
2218,106549,76188,0
2232,106530,76199,0
2217,106475,76212,0
2208,106559,76174,0
2216,106531,76234,0
2218,106577,76192,0
1717,106532,76219,0
2256,106551,76182,0
2260,106539,76176,0
2234,106546,76248,0
2246,106565,76209,0
2252,106549,76179,0
2252,106533,76269,0
2296,106580,76189,0
2296,106555,76234,0
2306,106543,76177,0
2354,106526,76259,0
2356,106606,76233,0
2352,106567,76249,0
2360,106593,76233,0
2357,106563,76249,0
2356,106572,76216,0
2368,106569,76202,0
2356,106558,76271,0
2352,106615,76248,0
2353,106564,76264,0
2346,106590,76245,0
2340,106556,76268,0
2329,106551,76247,0
2325,106587,76217,0
2320,106543,76283,0
2322,106599,76233,0
2320,106564,76272,0
2316,106606,76249,0
2316,106561,76254,0
2316,106525,76252,0
2312,106606,76225,0
2296,106574,76289,0
2306,106619,76240,0
2304,106599,76274,0
1730,106627,76255,0
2298,106620,76262,0
2297,106579,76332,0
2341,106642,76298,0
2378,106612,76324,0
2380,106661,76300,0
2380,106619,76306,0
2384,106610,76296,0
2386,106630,76254,0
2380,106601,76332,0
2388,106678,76283,0
2380,106637,76341,0
2384,106645,76310,0
2368,106618,76329,0
2372,106629,76284,0
2361,106609,76239,0
2360,106581,76311,0
2360,106646,76284,0
2364,106617,76301,0
2357,106646,76278,0
2356,106599,76285,0
2352,106622,76273,0
2368,106619,76218,0
2360,106593,76301,0
2360,106645,76273,0
2362,106609,76287,0
2368,106634,76251,0
2346,106583,76278,0
2344,106544,76238,0
2352,106596,76227,0
1760,106585,76306,0
2362,106640,76238,0
2368,106596,76264,0
2314,106513,76101,0
2312,106498,76073,0
2312,106475,76156,0
2348,106542,76101,0
2354,106553,76118,0
2384,106478,76111,0
2388,106511,76090,0
2374,106471,76060,0
2384,106435,76076,0
2368,106500,76060,0
2360,106464,76120,0
2356,106521,76055,0
2346,106457,76083,0
2342,106487,76053,0
2338,106463,76029,0
2338,106410,76048,0
2338,106491,76029,0
2336,106433,76100,0
2332,106488,76055,0
2336,106456,76063,0
2336,106480,76029,0
2332,106454,76050,0
2340,106407,76037,0
2332,106474,76012,0
2332,106423,76065,0
2328,106490,76025,0
2320,106431,76040,0
2296,106443,75993,0
2288,106413,75982,0
2292,106379,75999,0
1704,106458,75979,0
2304,106424,76051,0
2264,106419,75954,0
2260,106393,75975,0
2308,106410,75968,0
2336,106379,75978,0
2338,106384,75947,0
2340,106369,75919,0
2330,106341,75975,0
2328,106403,75957,0
2324,106388,76000,0
2330,106415,75955,0
2324,106379,75991,0
2320,106396,75951,0
2324,106382,75934,0
2324,106320,75956,0
2324,106417,75946,0
2330,106384,75996,0
2328,106406,75950,0
2326,106379,75984,0
2328,106382,75963,0
2336,106372,75928,0
2322,106361,75983,0
2329,106429,75945,0
2321,106383,76005,0
2308,106407,75944,0
2308,106360,75998,0
2304,106395,75965,0
2280,106366,75916,0
2282,106354,76004,0
2279,106439,75971,0
2273,106383,75992,0
2306,106421,75973,0
2273,106376,75973,0
2277,106404,75941,0
2280,106390,76020,0
2280,106382,75991,0
2288,106389,75961,0
2320,106354,76012,0
2304,106435,75969,0
2304,106393,76050,0
2298,106423,75984,0
2304,106402,76018,0
2298,106415,75977,0
2296,106402,75959,0
2304,106354,76009,0
2305,106421,75972,0
2310,106388,76041,0
2306,106436,76005,0
2304,106393,76029,0
2296,106426,76014,0
2292,106396,75941,0
2288,106365,76024,0
2272,106455,75980,0
2288,106406,76028,0
2274,106422,76008,0
2264,106391,76029,0
2261,106417,75996,0
2261,106395,75955,0
2261,106370,76047,0
2244,106454,75994,0
2240,106398,76042,0
2248,106426,75986,0
1666,106406,76023,0
2272,106436,76002,0
2253,106452,76019,0
2248,106402,76047,0
2244,106434,76020,0
2256,106383,76040,0
2245,106399,76054,0
2288,106424,76013,0
2288,106400,75984,0
2290,106381,76038,0
2296,106438,76012,0
2296,106399,76039,0
2304,106435,75998,0
2308,106392,76038,0
2304,106401,75977,0
2306,106397,75961,0
2292,106379,76053,0
2288,106443,76001,0
2282,106375,76044,0
2280,106430,76009,0
2276,106402,76012,0
2282,106401,75993,0
2272,106391,75963,0
2272,106356,76044,0
2272,106427,76002,0
2273,106397,76027,0
2266,106433,76004,0
2272,106386,76033,0
2272,106390,75998,0
2252,106399,75927,0
2260,106360,76018,0
2264,106429,75985,0
1682,106377,76019,0
2282,106391,75997,0
2252,106344,75989,0
2241,106384,75975,0
2240,106347,75984,0
2296,106363,75988,0
2288,106366,75970,0
2328,106346,75919,0
2330,106329,76001,0
2336,106400,75972,0
2336,106351,75983,0
2328,106400,75973,0
2324,106364,75986,0
2312,106359,75964,0
2309,106337,75938,0
2297,106333,76007,0
2296,106400,75975,0
2290,106351,75992,0
2282,106368,75963,0
2274,106341,75975,0
2272,106297,75973,0
2261,106366,75945,0
2265,106336,76009,0
2266,106382,75956,0
2260,106355,75991,0
2256,106371,75967,0
2257,106341,75978,0
2258,106306,75956,0
2260,106364,75947,0
2240,106346,76024,0
2236,106399,75954,0
2240,106338,75978,0
1658,106374,75970,0
2248,106342,75921,0
2200,106382,75982,0
2208,106359,76032,0
2302,106388,75978,0
2340,106372,76037,0
2338,106409,75988,0
2338,106358,76008,0
2336,106387,75989,0
2324,106373,75969,0
2324,106310,75987,0
2316,106372,75985,0
2305,106356,76030,0
2304,106415,75998,0
2296,106361,76022,0
2304,106396,75989,0
2304,106363,75978,0
2292,106301,75986,0
2292,106406,75985,0
2292,106370,76043,0
2288,106402,76013,0
2288,106365,76016,0
2292,106385,76007,0
2292,106376,75960,0
2290,106353,76036,0
2289,106409,75999,0
2280,106378,76035,0
2280,106416,76003,0
2252,106366,76024,0
2248,106367,75988,0
2246,106396,75957,0
1725,106368,76057,0
2268,106425,76019,0
2260,106386,76024,0
2220,106412,76046,0
2224,106392,75984,0
2224,106369,76068,0
2266,106441,76034,0
2248,106440,76041,0
2290,106375,76071,0
2288,106377,76059,0
2280,106406,75994,0
2281,106362,76088,0
2272,106440,76029,0
2272,106401,76064,0
2268,106404,76037,0
2268,106385,76058,0
2272,106345,76035,0
2272,106408,76003,0
2276,106390,76089,0
2272,106431,76044,0
2278,106405,76066,0
2272,106427,76053,0
2272,106394,76047,0
2266,106365,76066,0
2276,106399,76018,0
2265,106386,76109,0
2264,106447,76059,0
2264,106400,76082,0
2248,106431,76065,0
2250,106396,76054,0
2226,106341,76053,0
2228,106433,76054,0
2224,106389,76107,0
1645,106427,76042,0
2217,106399,76076,0
2209,106360,76070,0
2256,106392,76083,0
2316,106356,76082,0
2344,106438,76064,0
2368,106413,76124,0
2392,106435,76078,0
2432,106417,76107,0
2474,106447,76068,0
2528,106401,76048,0
2570,106363,76095,0
2620,106464,76071,0
2672,106416,76128,0
2716,106453,76079,0
2776,106410,76108,0
2824,106414,76082,0
2880,106420,76034,0
2930,106372,76139,0
2980,106451,76081,0
3032,106405,76101,0
3080,106437,76087,0
3108,106402,76086,0
3137,106366,76095,0
3148,106425,76057,0
3144,106419,76119,0
3128,106450,76101,0
3076,106414,76125,0
3044,106445,76090,0
3016,106398,76073,0
2492,106378,76104,0
2952,106467,76095,0
2908,106396,76128,0
2696,106414,76071,0
2620,106410,76138,0
2558,106456,76094,0
2488,106407,76111,0
1944,106411,76131,0
1928,106418,76117,0
1940,106428,76085,0
1976,106396,76095,0
1992,106341,76102,0
2004,106435,76070,0
2008,106400,76123,0
2022,106426,76097,0
2020,106396,76118,0
2026,106437,76093,0
2048,106404,76088,0
2042,106376,76119,0
2052,106409,76082,0
2056,106397,76150,0
2059,106447,76103,0
2060,106391,76126,0
2064,106426,76098,0
2080,106394,76083,0
2076,106357,76106,0
2084,106430,76081,0
2098,106401,76128,0
2098,106445,76090,0
2112,106418,76121,0
2120,106414,76100,0
2112,106408,76057,0
2128,106362,76139,0
2144,106457,76091,0
1636,106414,76133,0
2152,106428,76121,0
2160,106401,76133,0
2296,106431,76111,0
2336,106414,76098,0
2352,106358,76124,0
2356,106415,76084,0
2354,106420,76136,0
2340,106453,76106,0
2353,106405,76145,0
2338,106418,76106,0
2338,106406,76087,0
2328,106352,76135,0
2324,106449,76104,0
2316,106389,76152,0
2320,106439,76125,0
2316,106406,76116,0
2320,106406,76096,0
2317,106392,76076,0
2320,106352,76138,0
2322,106455,76109,0
2320,106392,76154,0
2322,106444,76118,0
2328,106401,76120,0
2338,106319,76127,0
2336,106406,76110,0
2336,106405,76178,0
2296,106435,76127,0
2300,106390,76152,0
2296,106413,76115,0
1712,106395,76113,0
2308,106361,76147,0
2308,106423,76117,0
2274,106397,76165,0
2266,106437,76135,0
2272,106404,76129,0
2362,106392,76138,0
2360,106434,76130,0
2400,106419,76090,0
2408,106374,76172,0
2402,106456,76123,0
2394,106404,76186,0
2394,106443,76121,0
2378,106393,76156,0
2378,106392,76146,0
2374,106406,76082,0
2377,106387,76155,0
2368,106461,76133,0
2368,106402,76160,0
2373,106433,76108,0
2368,106389,76146,0
2370,106418,76112,0
2372,106395,76058,0
2368,106374,76141,0
2368,106440,76090,0
2384,106386,76143,0
2364,106440,76115,0
2368,106391,76118,0
2372,106416,76088,0
2360,106396,76059,0
2336,106335,76119,0
2332,106419,76076,0
2328,106380,76130,0
1744,106414,76090,0
2312,106310,75934,0
2312,106263,75973,0
2368,106332,75980,0
2404,106319,75941,0
2400,106310,75906,0
2388,106308,75988,0
2388,106364,75940,0
2393,106304,75955,0
2386,106309,75948,0
2380,106296,75968,0
2376,106251,75932,0
2372,106320,75908,0
2368,106271,75971,0
2372,106330,75924,0
2372,106285,75949,0
2368,106309,75907,0
2368,106283,75892,0
2368,106219,75925,0
2362,106305,75871,0
2354,106271,75927,0
2368,106318,75891,0
2348,106260,75919,0
2348,106296,75888,0
2340,106269,75832,0
2330,106234,75912,0
2329,106336,75873,0
2304,106272,75915,0
2304,106289,75883,0
2307,106257,75900,0
1728,106276,75855,0
2328,106255,75817,0
2330,106233,75901,0
2298,106244,75798,0
2306,106205,75758,0
2304,106182,75845,0
2306,106236,75795,0
2300,106190,75759,0
2296,106246,75792,0
2302,106211,75857,0
2344,106226,75797,0
2352,106191,75836,0
2352,106233,75791,0
2348,106207,75769,0
2352,106151,75827,0
2356,106246,75798,0
2356,106196,75831,0
2350,106248,75798,0
2352,106195,75826,0
2356,106213,75793,0
2352,106208,75761,0
2336,106172,75840,0
2328,106258,75799,0
2324,106195,75818,0
2320,106228,75793,0
2304,106198,75774,0
2304,106163,75777,0
2304,106193,75770,0
2304,106189,75837,0
2304,106240,75809,0
2304,106203,75821,0
2280,106220,75793,0
2278,106191,75786,0
2288,106132,75807,0
1778,106223,75775,0
2276,106231,75791,0
2280,106192,75814,0
2278,106209,75786,0
2300,106213,75812,0
2296,106170,75741,0
2336,106158,75825,0
2329,106231,75791,0
2336,106184,75832,0
2336,106228,75791,0
2336,106174,75807,0
2337,106203,75798,0
2336,106192,75744,0
2328,106158,75808,0
2328,106227,75795,0
2324,106190,75834,0
2316,106210,75776,0
2312,106172,75830,0
2304,106180,75805,0
2292,106173,75741,0
2296,106168,75849,0
2292,106245,75800,0
2296,106186,75843,0
2296,106222,75801,0
2297,106200,75817,0
2304,106184,75805,0
2304,106203,75766,0
2298,106167,75860,0
2288,106237,75799,0
2284,106190,75842,0
2289,106234,75801,0
1786,106176,75818,0
2304,106157,75791,0
2312,106194,75756,0
2260,106242,75816,0
2264,106187,75850,0
2264,106236,75830,0
2288,106190,75807,0
2282,106193,75839,0
2312,106218,75820,0
2320,106190,75818,0
2316,106151,75821,0
2312,106198,75808,0
2304,106193,75844,0
2304,106230,75813,0
2312,106203,75844,0
2296,106228,75819,0
2304,106186,75810,0
2288,106150,75835,0
2288,106209,75816,0
2280,106186,75852,0
2281,106232,75802,0
2280,106198,75836,0
2280,106179,75803,0
2280,106186,75776,0
2272,106198,75846,0
2274,106250,75821,0
2274,106189,75836,0
2266,106207,75814,0
2269,106195,75776,0
2264,106130,75803,0
2248,106231,75804,0
2240,106194,75845,0
2245,106225,75830,0
1720,106192,75832,0
2256,106223,75816,0
2204,106164,75817,0
2208,106182,75777,0
2248,106177,75791,0
2280,106120,75812,0
2272,106214,75797,0
2276,106166,75831,0
2260,106201,75792,0
2260,106168,75809,0
2257,106140,75792,0
2260,106168,75738,0
2248,106150,75836,0
2260,106187,75781,0
2252,106164,75816,0
2261,106182,75781,0
2256,106154,75808,0
2264,106144,75792,0
2252,106162,75747,0
2258,106132,75818,0
2258,106206,75777,0
2258,106165,75808,0
2260,106176,75772,0
2258,106167,75762,0
2261,106102,75790,0
2252,106178,75779,0
2248,106161,75799,0
2246,106187,75764,0
2224,106148,75797,0
2226,106183,75774,0
2224,106138,75734,0
1652,106136,75799,0
2244,106213,75765,0
2216,106150,75816,0
2212,106178,75771,0
2218,106131,75785,0
2281,106138,75735,0
2289,106201,75775,0
2316,106146,75738,0
2314,106085,75776,0
2312,106176,75768,0
2308,106156,75811,0
2308,106187,75756,0
2304,106142,75799,0
2304,106174,75783,0
2304,106139,75738,0
2304,106117,75804,0
2294,106177,75780,0
2304,106141,75798,0
2293,106184,75788,0
2288,106144,75784,0
2292,106152,75770,0
2288,106142,75729,0
2276,106114,75821,0
2265,106193,75779,0
2264,106169,75804,0
2256,106153,75779,0
2248,106143,75801,0
2252,106178,75770,0
2241,106133,75736,0
2220,106134,75832,0
2228,106203,75777,0
2236,106163,75818,0
1720,106186,75780,0
2250,106156,75796,0
2232,106174,75788,0
2228,106156,75865,0
2228,106205,75829,0
2224,106159,75775,0
2218,106155,75864,0
2260,106208,75830,0
2260,106174,75853,0
2252,106175,75823,0
2256,106163,75764,0
2252,106156,75863,0
2252,106229,75822,0
2252,106195,75855,0
2244,106212,75808,0
2248,106169,75834,0
2248,106136,75823,0
2244,106161,75792,0
2240,106161,75868,0
2232,106203,75843,0
2218,106180,75837,0
2220,106208,75839,0
2212,106178,75813,0
2212,106132,75852,0
2208,106208,75828,0
2197,106180,75864,0
2200,106203,75853,0
2208,106181,75850,0
2202,106194,75828,0
2184,106170,75771,0
2186,106127,75863,0
2178,106231,75827,0
1691,106197,75867,0
2208,106200,75831,0
2176,106237,75884,0
2197,106184,75867,0
2168,106159,75895,0
2220,106206,75881,0
2229,106196,75837,0
2289,106159,75895,0
2304,106245,75885,0
2336,106200,75903,0
2354,106222,75895,0
2392,106194,75899,0
2418,106218,75867,0
2468,106204,75830,0
2500,106163,75899,0
2548,106252,75887,0
2597,106199,75902,0
2632,106244,75880,0
2680,106207,75907,0
2729,106211,75888,0
2780,106190,75849,0
2834,106168,75911,0
2885,106250,75882,0
2948,106205,75914,0
3001,106231,75896,0
3034,106203,75930,0
3080,106210,75883,0
3112,106205,75845,0
3136,106181,75919,0
3104,106255,75890,0
3096,106220,75924,0
3076,106232,75885,0
2488,106206,75890,0
3040,106171,75899,0
2792,106214,75973,0
2732,106275,75919,0
1976,106227,75936,0
2016,106251,75926,0
2020,106216,75965,0
2024,106267,75931,0
2018,106229,75887,0
2016,106198,75965,0
2022,106287,75929,0
2024,106230,75968,0
2026,106266,75944,0
2032,106208,75947,0
2028,106197,75921,0
2048,106261,75920,0
2048,106225,75983,0
2048,106269,75944,0
2064,106230,75972,0
2056,106256,75942,0
2068,106249,75900,0
2076,106208,75977,0
2088,106271,75946,0
2090,106220,75973,0
2096,106269,75943,0
2104,106239,75969,0
2112,106273,75964,0
2117,106230,75912,0
2102,106178,75944,0
2108,106267,75918,0
2114,106247,75989,0
1544,106269,75952,0
2138,106226,75975,0
2138,106248,75964,0
2118,106239,75923,0
2124,106224,76009,0
2132,106286,75970,0
2252,106222,75968,0
2260,106234,75996,0
2296,106269,75969,0
2288,106221,75986,0
2288,106218,75968,0
2284,106240,75933,0
2282,106215,76001,0
2274,106285,75942,0
2272,106232,76001,0
2274,106258,75932,0
2268,106237,75989,0
2260,106207,75961,0
2261,106236,75949,0
2258,106246,76008,0
2262,106265,75975,0
2266,106222,75997,0
2264,106254,75969,0
2258,106251,75933,0
2252,106194,75991,0
2256,106276,75969,0
2248,106227,76011,0
2240,106288,75974,0
2232,106247,76001,0
2224,106262,75986,0
2200,106227,75926,0
2202,106194,76005,0
2202,106297,75981,0
1628,106254,76033,0
2196,106295,76030,0
2202,106285,75976,0
2260,106290,76002,0
2292,106307,75989,0
2304,106273,76064,0
2306,106320,76041,0
2305,106282,76060,0
2304,106304,76032,0
2308,106279,76002,0
2308,106252,76033,0
2308,106318,76019,0
2314,106262,76060,0
2316,106313,76028,0
2322,106270,76066,0
2324,106285,76019,0
2324,106275,75996,0
2313,106249,76060,0
2312,106326,76003,0
2306,106267,76049,0
2298,106310,76019,0
2304,106262,76032,0
2288,106254,75998,0
2289,106284,75979,0
2276,106272,76063,0
2273,106334,76012,0
2280,106287,76037,0
2252,106304,76005,0
2248,106271,75981,0
2257,106216,75998,0
1680,106305,76004,0
2284,106271,76026,0
2277,106308,75989,0
2260,106245,75928,0
2268,106257,75890,0
2252,106222,75924,0
2250,106213,75901,0
2200,106250,75936,0
2240,106184,75884,0
2248,106222,75862,0
2284,106232,75924,0
2274,106262,75887,0
2288,106212,75916,0
2292,106238,75887,0
2296,106205,75874,0
2296,106156,75875,0
2288,106213,75829,0
2292,106201,75908,0
2288,106245,75846,0
2285,106213,75870,0
2280,106217,75843,0
2268,106210,75858,0
2264,106150,75860,0
2256,106209,75835,0
2252,106197,75883,0
2252,106253,75834,0
2240,106191,75852,0
2240,106205,75847,0
2241,106182,75816,0
2249,106129,75836,0
2240,106225,75820,0
2216,106192,75869,0
2224,106229,75837,0
2226,106170,75849,0
1644,106207,75839,0
2192,106182,75770,0
2188,106139,75728,0
2250,106148,75778,0
2284,106146,75744,0
2288,106092,75767,0
2292,106184,75764,0
2282,106135,75823,0
2298,106171,75763,0
2298,106137,75803,0
2304,106180,75753,0
2304,106137,75728,0
2300,106117,75796,0
2296,106180,75772,0
2296,106136,75789,0
2296,106184,75761,0
2294,106153,75790,0
2304,106147,75792,0
2296,106167,75736,0
2304,106121,75825,0
2296,106202,75780,0
2296,106151,75799,0
2297,106188,75779,0
2298,106135,75767,0
2304,106082,75794,0
2306,106183,75777,0
2308,106135,75803,0
2284,106184,75758,0
2288,106132,75791,0
2284,106177,75773,0
1704,106138,75734,0
2296,106111,75767,0
2292,106186,75778,0
2248,106112,75801,0
2248,106191,75793,0
2249,106165,75820,0
2324,106176,75822,0
2332,106168,75795,0
2368,106145,75801,0
2368,106100,75807,0
2356,106190,75791,0
2352,106160,75845,0
2348,106190,75787,0
2346,106146,75840,0
2336,106188,75798,0
2328,106154,75744,0
2328,106115,75820,0
2322,106203,75805,0
2320,106147,75824,0
2322,106177,75795,0
2322,106153,75803,0
2320,106125,75816,0
2328,106166,75769,0
2328,106140,75839,0
2322,106205,75805,0
2328,106157,75848,0
2328,106184,75811,0
2328,106164,75772,0
2328,106152,75852,0
2330,106203,75823,0
2306,106161,75834,0
2296,106189,75802,0
2291,106158,75793,0
1774,106122,75816,0
2304,106189,75797,0
2265,106215,75828,0
2276,106175,75848,0
2328,106112,75830,0
2360,106171,75862,0
2368,106192,75852,0
2356,106179,75810,0
2360,106139,75848,0
2356,106223,75830,0
2344,106170,75865,0
2344,106208,75844,0
2340,106188,75869,0
2338,106205,75850,0
2340,106158,75794,0
2350,106145,75865,0
2338,106230,75832,0
2332,106171,75871,0
2336,106200,75828,0
2352,106168,75851,0
2330,106168,75826,0
2336,106184,75806,0
2328,106151,75865,0
2324,106206,75845,0
2324,106154,75858,0
2320,106169,75834,0
2308,106160,75797,0
2313,106131,75836,0
2274,106198,75825,0
2272,106161,75868,0
2277,106166,75833,0
1760,106161,75850,0
2288,106127,75834,0
2264,106151,75853,0
2264,106158,75829,0
2268,106132,75813,0
2314,106143,75796,0
2352,106132,75835,0
2356,106135,75779,0
2358,106135,75858,0
2358,106196,75818,0
2362,106148,75831,0
2362,106164,75809,0
2364,106147,75844,0
2360,106097,75828,0
2374,106143,75797,0
2357,106140,75862,0
2364,106188,75815,0
2357,106152,75857,0
2352,106177,75819,0
2352,106156,75782,0
2342,106095,75833,0
2336,106201,75825,0
2328,106139,75856,0
2320,106172,75822,0
2306,106159,75852,0
2304,106166,75831,0
2312,106142,75769,0
2312,106098,75830,0
2312,106203,75808,0
2290,106145,75846,0
2286,106162,75818,0
2288,106134,75852,0
1722,106149,75805,0
2312,106134,75777,0
2296,106162,75876,0
2290,106200,75847,0
2288,106152,75866,0
2312,106162,75887,0
2313,106188,75841,0
2356,106167,75838,0
2354,106125,75858,0
2354,106212,75841,0
2354,106167,75893,0
2352,106201,75837,0
2352,106168,75877,0
2352,106168,75846,0
2348,106165,75807,0
2349,106139,75882,0
2336,106202,75845,0
2332,106167,75869,0
2336,106211,75846,0
2320,106166,75870,0
2312,106118,75859,0
2324,106176,75832,0
2304,106177,75906,0
2306,106212,75862,0
2304,106176,75874,0
2316,106187,75867,0
2304,106172,75811,0
2309,106159,75924,0
2316,106231,75857,0
2290,106160,75885,0
2296,106194,75855,0
2294,106181,75876,0
1726,106153,75871,0
2328,106166,75805,0
2302,106160,75932,0
2284,106240,75894,0
2273,106177,75936,0
2328,106213,75927,0
2314,106170,75915,0
2356,106203,75862,0
2352,106199,75935,0
2352,106230,75904,0
2356,106194,75918,0
2354,106221,75899,0
2347,106190,75892,0
2352,106140,75899,0
2340,106200,75896,0
2336,106200,75951,0
2328,106252,75921,0
2326,106203,75924,0
2314,106232,75903,0
2326,106210,75906,0
2328,106147,75907,0
2312,106203,75887,0
2317,106193,75959,0
2324,106236,75908,0
2320,106194,75941,0
2321,106228,75919,0
2330,106193,75945,0
2322,106168,75906,0
2326,106205,75878,0
2308,106189,75938,0
2312,106245,75921,0
2312,106191,75966,0
1801,106232,75924,0
2328,106189,75951,0
2280,106238,75943,0
2280,106211,75956,0
2432,106167,75939,0
2508,106203,75973,0
2532,106225,75930,0
2568,106219,75904,0
2612,106172,75966,0
2658,106258,75933,0
2697,106208,75969,0
2742,106235,75928,0
2776,106199,75970,0
2832,106205,75948,0
2882,106211,75896,0
2936,106167,75986,0
2978,106257,75956,0
3028,106202,75980,0
3058,106251,75949,0
3088,106194,75963,0
3120,106219,75937,0
3124,106217,75891,0
3120,106199,75979,0
3120,106251,75961,0
3092,106228,75984,0
3072,106244,75948,0
3016,106191,75961,0
2968,106194,75942,0
2896,106222,75928,0
2840,106208,75984,0
2789,106247,75961,0
2232,106219,75998,0
2700,106229,75957,0
2416,106173,75975,0
2368,106217,75942,0
2328,106221,76031,0
2044,106235,75968,0
2053,106271,75977,0
2096,106213,76002,0
2090,106249,75969,0
2096,106232,75980,0
2104,106185,75984,0
2118,106240,75958,0
2112,106205,76021,0
2113,106256,75982,0
2132,106229,76003,0
2146,106236,75981,0
2152,106222,75975,0
2160,106173,75984,0
2166,106254,75972,0
2165,106224,76012,0
2176,106260,75970,0
2176,106220,75996,0
2180,106265,75986,0
2188,106228,75949,0
2188,106206,76039,0
2198,106289,75983,0
2188,106218,76035,0
2188,106254,75976,0
2196,106212,75985,0
2169,106188,75980,0
2184,106230,75970,0
2188,106225,76035,0
1680,106292,75993,0
2210,106219,76012,0
2212,106233,76047,0
2217,106270,75996,0
2224,106228,75989,0
2268,106246,75998,0
2268,106270,76007,0
2304,106224,76031,0
2310,106259,76010,0
2305,106240,75964,0
2320,106186,76027,0
2320,106275,75997,0
2320,106227,76052,0
2332,106283,76021,0
2320,106237,76024,0
2322,106256,76000,0
2328,106227,75991,0
2324,106188,76005,0
2324,106275,76004,0
2322,106240,76049,0
2320,106259,76008,0
2304,106223,76028,0
2310,106251,76007,0
2308,106241,75977,0
2296,106177,76045,0
2292,106292,75995,0
2288,106238,76053,0
2292,106282,76013,0
2288,106239,76062,0
2264,106249,76025,0
2268,106216,75988,0
2262,106227,76073,0
1776,106283,76016,0
2304,106220,76068,0
2269,106246,76010,0
2236,106257,76072,0
2274,106299,76069,0
2328,106272,76046,0
2328,106271,76090,0
2372,106306,76046,0
2377,106251,76069,0
2376,106221,76042,0
2390,106268,76013,0
2378,106260,76100,0
2370,106294,76049,0
2373,106261,76048,0
2374,106267,76030,0
2368,106251,76026,0
2369,106179,76049,0
2362,106283,76015,0
2358,106248,76053,0
2345,106274,76017,0
2341,106241,76046,0
2340,106268,76019,0
2344,106246,75977,0
2336,106232,76055,0
2340,106273,76018,0
2332,106228,76038,0
2336,106268,76024,0
2344,106248,75995,0
2344,106187,76024,0
2320,106254,75982,0
2320,106227,76053,0
2324,106269,76002,0
1748,106238,76028,0
2340,106237,75990,0
2292,106176,75890,0
2288,106189,75869,0
2292,106158,75829,0
2328,106140,75858,0
2328,106176,75834,0
2336,106155,75919,0
2328,106217,75851,0
2325,106137,75895,0
2322,106161,75830,0
2320,106143,75813,0
2320,106100,75845,0
2306,106171,75820,0
2304,106147,75889,0
2298,106183,75845,0
2296,106141,75873,0
2304,106170,75828,0
2290,106138,75790,0
2290,106117,75868,0
2288,106181,75825,0
2284,106133,75852,0
2285,106178,75820,0
2296,106135,75828,0
2296,106130,75810,0
2296,106128,75761,0
2284,106097,75848,0
2285,106165,75810,0
2266,106130,75833,0
2266,106157,75810,0
2257,106112,75840,0
1688,106134,75793,0
2264,106118,75761,0
2264,106094,75824,0
2216,106066,75792,0
2212,106145,75756,0
2204,106109,75817,0
2241,106122,75762,0
2244,106129,75765,0
2272,106085,75780,0
2276,106114,75762,0
2272,106099,75767,0
2268,106044,75754,0
2272,106103,75740,0
2256,106095,75802,0
2260,106140,75776,0
2256,106097,75793,0
2268,106126,75764,0
2266,106087,75767,0
2264,106053,75773,0
2268,106122,75768,0
2272,106095,75820,0
2282,106141,75778,0
2280,106094,75798,0
2278,106090,75786,0
2284,106104,75731,0
2273,106068,75811,0
2284,106144,75774,0
2282,106094,75804,0
2280,106130,75765,0
2280,106110,75785,0
2256,106077,75759,0
2252,106110,75759,0
2257,106088,75832,0
1756,106136,75771,0
2248,106098,75836,0
2261,106105,75788,0
2320,106106,75784,0
2344,106122,75787,0
2352,106091,75789,0
2340,106094,75781,0
2336,106113,75746,0
2336,106063,75832,0
2324,106143,75801,0
2328,106105,75829,0
2322,106119,75791,0
2324,106082,75791,0
2336,106046,75795,0
2328,106141,75782,0
2324,106075,75852,0
2324,106139,75794,0
2329,106100,75820,0
2336,106121,75789,0
2336,106112,75769,0
2326,106055,75813,0
2312,106135,75781,0
2310,106105,75841,0
2314,106132,75802,0
2306,106097,75831,0
2309,106108,75789,0
2316,106101,75757,0
2280,106092,75832,0
2276,106145,75820,0
2280,106100,75828,0
1776,106125,75805,0
2304,106108,75827,0
2308,106103,75789,0
2288,106147,75819,0
2294,106090,75866,0
2292,106096,75807,0
2296,106088,75775,0
2292,106111,75826,0
2290,106092,75826,0
2301,106131,75812,0
2332,106091,75788,0
2332,106052,75848,0
2332,106151,75826,0
2332,106096,75838,0
2336,106129,75815,0
2336,106084,75830,0
2332,106056,75825,0
2336,106112,75805,0
2336,106080,75881,0
2336,106136,75810,0
2328,106096,75828,0
2324,106127,75807,0
2314,106096,75773,0
2320,106089,75840,0
2296,106145,75811,0
2298,106086,75830,0
2294,106111,75805,0
2304,106084,75807,0
2296,106038,75808,0
2296,106102,75774,0
2280,106084,75855,0
2272,106137,75803,0
2260,106078,75828,0
2268,106108,75799,0
1767,106068,75773,0
2245,106060,75754,0
2256,106058,75808,0
2268,106108,75775,0
2304,106076,75841,0
2298,106111,75789,0
2298,106072,75817,0
2297,106098,75778,0
2306,106079,75760,0
2304,106019,75797,0
2304,106118,75784,0
2292,106092,75851,0
2304,106106,75797,0
2284,106082,75830,0
2276,106119,75788,0
2272,106071,75767,0
2266,106020,75817,0
2264,106116,75797,0
2260,106087,75834,0
2257,106103,75810,0
2252,106073,75825,0
2260,106070,75793,0
2256,106088,75773,0
2260,106074,75840,0
2260,106123,75805,0
2264,106103,75825,0
2268,106105,75799,0
2256,106091,75761,0
2256,106011,75807,0
2258,106131,75796,0
1752,106087,75834,0
2273,106105,75789,0
2272,106090,75835,0
2240,106085,75863,0
2240,106133,75840,0
2240,106085,75834,0
2296,106070,75856,0
2292,106042,75834,0
2332,106124,75800,0
2336,106116,75869,0
2321,106156,75823,0
