ECG,RED,IR,PCG
2300,108838,75421,0
2302,108838,75421,0
2303,108838,75421,0
2298,108838,75421,0
2256,108838,75475,0
2298,108815,75443,0
2312,108815,75443,0
2314,108815,75443,0
2322,108815,75443,0
2352,108815,75443,0
2356,108815,75443,0
2332,108815,75511,0
2336,108802,75455,0
2324,108802,75455,0
2344,108802,75455,0
2338,108802,75455,0
2340,108802,75455,0
2332,108802,75455,0
2300,108802,75455,0
2325,108804,75424,0
2312,108804,75424,0
2332,108804,75424,0
2720,108804,75424,0
2314,108804,75424,0
2432,108804,75424,0
2320,108804,75424,0
2322,108807,75491,0
2348,108807,75491,0
2345,108807,75491,0
2352,108807,75491,0
2960,108857,75472,0
2913,108788,75480,0
2312,108753,75494,0
2312,108841,75461,0
2308,108798,75517,0
2300,108860,75477,0
2301,108796,75511,0
2312,108821,75484,0
2320,108820,75452,0
2344,108800,75527,0
2348,108845,75481,0
2384,108814,75515,0
2432,108823,75489,0
2448,108800,75494,0
2480,108760,75490,0
2514,108839,75491,0
2560,108819,75525,0
2598,108857,75490,0
2656,108802,75515,0
2676,108817,75504,0
2728,108814,75453,0
2768,108803,75539,0
2816,108849,75512,0
2884,108805,75528,0
2908,108847,75492,0
3082,108833,75489,0
2912,108756,75522,0
3025,108856,75505,0
2988,108822,75536,0
3028,108848,75509,0
3072,108810,75529,0
2986,108782,75508,0
2960,108845,75589,0
2913,108869,75540,0
2047,108825,75503,0
2060,108774,75539,0
2088,108847,75542,0
2096,108818,75608,0
2096,108866,75559,0
2104,108817,75585,0
2108,108851,75561,0
2112,108830,75528,0
2128,108839,75601,0
2113,108873,75563,0
2138,108816,75586,0
2124,108864,75556,0
2145,108829,75548,0
2144,108790,75574,0
2160,108855,75563,0
2166,108817,75614,0
2181,108861,75571,0
2178,108821,75547,0
2192,108776,75568,0
2240,108868,75557,0
2192,108825,75605,0
2208,108835,75567,0
2244,108835,75585,0
2209,108812,75562,0
2216,108828,75595,0
2209,108828,75574,0
2228,108816,75569,0
2228,108816,75569,0
2228,108816,75569,0
2224,108816,75569,0
2226,108816,75569,0
2216,108816,75569,0
2244,108816,75569,0
2240,108825,75571,0
2256,108825,75571,0
2244,108825,75571,0
2264,108825,75571,0
2256,108825,75571,0
2264,108825,75571,0
2258,108825,75571,0
2277,108852,75548,0
2274,108852,75548,0
2300,108852,75548,0
2280,108852,75548,0
2281,108852,75548,0
2284,108852,75548,0
2330,108852,75548,0
2324,108852,75581,0
2312,108841,75551,0
2364,108841,75551,0
2322,108841,75551,0
2472,108841,75551,0
2346,108841,75551,0
2330,108841,75551,0
2336,108841,75551,0
2356,108817,75604,0
2288,108820,75644,0
2330,108814,75642,0
2368,108859,75617,0
2361,108815,75578,0
2344,108779,75664,0
2346,108884,75629,0
2328,108815,75662,0
2340,108850,75631,0
2328,108811,75650,0
2336,108766,75640,0
2324,108863,75617,0
2328,108824,75659,0
2316,108875,75616,0
2312,108831,75660,0
2308,108820,75640,0
2288,108829,75613,0
2296,108821,75677,0
2308,108888,75639,0
2304,108814,75678,0
2304,108866,75644,0
2320,108828,75604,0
2320,108805,75689,0
2312,108885,75641,0
2328,108838,75676,0
2320,108864,75646,0
2304,108844,75625,0
2266,108790,75682,0
2272,108823,75641,0
2258,108823,75641,0
2282,108823,75641,0
2284,108823,75641,0
2276,108839,75671,0
2284,108839,75671,0
2288,108839,75671,0
2424,108839,75671,0
2296,108839,75671,0
2308,108839,75671,0
2304,108839,75671,0
2296,108839,75656,0
2336,108855,75648,0
2312,108855,75648,0
2308,108855,75648,0
2312,108855,75648,0
2308,108855,75648,0
2358,108855,75648,0
2316,108855,75657,0
2316,108826,75640,0
2296,108826,75640,0
2328,108826,75640,0
2324,108826,75640,0
2370,108826,75640,0
2362,108826,75640,0
2360,108826,75640,0
2356,108841,75652,0
2368,108841,75652,0
2376,108841,75652,0
2370,108841,75652,0
2368,108841,75652,0
2376,108841,75652,0
2324,108783,75540,0
2308,108746,75549,0
2356,108711,75554,0
2360,108787,75527,0
2372,108742,75557,0
2356,108773,75507,0
2346,108734,75542,0
2348,108723,75507,0
2352,108761,75490,0
2354,108739,75541,0
2344,108765,75520,0
2340,108736,75507,0
2344,108674,75493,0
2328,108732,75468,0
2330,108712,75543,0
2338,108752,75476,0
2320,108718,75502,0
2320,108731,75478,0
2328,108712,75433,0
2292,108692,75513,0
2309,108765,75463,0
2297,108705,75497,0
2304,108726,75466,0
2316,108702,75407,0
2316,108684,75480,0
2292,108748,75441,0
2252,108700,75481,0
2294,108716,75444,0
2264,108692,75368,0
2258,108694,75424,0
2248,108694,75424,0
2258,108694,75424,0
2252,108694,75424,0
2236,108694,75424,0
2249,108694,75424,0
2253,108706,75447,0
2256,108706,75447,0
2260,108706,75447,0
2261,108706,75447,0
2258,108706,75447,0
2280,108706,75447,0
2248,108706,75447,0
2248,108706,75319,0
2244,108700,75469,0
2244,108700,75469,0
2242,108700,75469,0
2244,108700,75469,0
2238,108700,75469,0
2246,108700,75469,0
2240,108700,75389,0
2286,108688,75477,0
2282,108688,75477,0
2274,108688,75477,0
2264,108688,75477,0
2294,108688,75477,0
2292,108688,75477,0
2280,108688,75477,0
2324,108718,75442,0
2328,108718,75442,0
2321,108718,75442,0
2312,108698,75359,0
2262,108641,75393,0
2284,108655,75362,0
2308,108632,75339,0
2280,108584,75382,0
2273,108657,75356,0
2262,108629,75408,0
2296,108639,75351,0
2258,108629,75365,0
2256,108615,75359,0
2258,108630,75321,0
2260,108619,75418,0
2276,108650,75364,0
2264,108632,75395,0
2272,108644,75359,0
2272,108637,75325,0
2284,108592,75390,0
2280,108662,75350,0
2274,108614,75413,0
2272,108654,75355,0
2276,108610,75386,0
2276,108611,75359,0
2274,108636,75318,0
2337,108601,75407,0
2260,108664,75359,0
2262,108632,75375,0
2264,108653,75346,0
2268,108617,75346,0
2264,108575,75364,0
2360,108671,75340,0
2288,108612,75404,0
2288,108653,75354,0
2312,108600,75370,0
2262,108661,75343,0
2281,108650,75326,0
2272,108689,75380,0
2304,108647,75409,0
2316,108655,75386,0
2314,108638,75379,0
2313,108600,75374,0
2304,108659,75372,0
2296,108631,75407,0
2344,108670,75383,0
2281,108632,75407,0
2272,108645,75375,0
2277,108645,75342,0
2264,108628,75419,0
2280,108671,75373,0
2280,108646,75405,0
2280,108649,75355,0
2288,108637,75336,0
2280,108616,75436,0
2272,108690,75381,0
2280,108638,75400,0
2266,108676,75382,0
2272,108642,75362,0
2272,108578,75393,0
2272,108694,75372,0
2224,108615,75387,0
2232,108615,75387,0
2228,108615,75413,0
2220,108645,75345,0
2212,108645,75345,0
2224,108645,75345,0
2229,108645,75345,0
2228,108645,75345,0
2232,108645,75345,0
2270,108645,75419,0
2236,108641,75440,0
2234,108641,75440,0
2256,108641,75440,0
2228,108641,75440,0
2248,108641,75440,0
2248,108641,75440,0
2258,108641,75440,0
2264,108667,75375,0
2268,108667,75375,0
2268,108667,75375,0
2280,108667,75375,0
2282,108667,75375,0
2313,108667,75375,0
2320,108667,75375,0
2300,108657,75420,0
2352,108657,75420,0
2301,108657,75420,0
2445,108657,75420,0
2312,108657,75420,0
2310,108657,75420,0
2308,108657,75420,0
2289,108657,75396,0
2302,108640,75439,0
2305,108622,75442,0
2264,108699,75412,0
2284,108648,75440,0
2244,108654,75424,0
2268,108640,75411,0
2264,108610,75407,0
2272,108658,75414,0
2274,108660,75471,0
2280,108697,75412,0
2288,108643,75443,0
2288,108633,75417,0
2284,108645,75383,0
2292,108634,75461,0
2288,108682,75433,0
2296,108639,75435,0
2280,108702,75425,0
2280,108646,75366,0
2289,108638,75463,0
2284,108683,75413,0
2272,108643,75446,0
2276,108673,75439,0
2268,108640,75378,0
2296,108610,75444,0
2276,108704,75425,0
2288,108648,75435,0
2288,108675,75412,0
2284,108650,75403,0
2272,108601,75440,0
2304,108689,75425,0
2308,108660,75463,0
2298,108657,75442,0
2302,108598,75442,0
2305,108679,75416,0
2288,108640,75469,0
2240,108642,75451,0
2272,108671,75420,0
2252,108659,75491,0
2288,108691,75440,0
2296,108643,75480,0
2304,108657,75447,0
2296,108644,75414,0
2304,108639,75472,0
2294,108680,75462,0
2296,108658,75482,0
2292,108656,75434,0
2264,108648,75407,0
2282,108637,75484,0
2296,108684,75442,0
2284,108644,75472,0
2297,108678,75430,0
2304,108637,75396,0
2308,108594,75460,0
2332,108696,75451,0
2312,108642,75466,0
2312,108693,75455,0
2313,108634,75457,0
2308,108601,75444,0
2316,108667,75433,0
2256,108661,75433,0
2240,108661,75433,0
2240,108661,75433,0
2116,108661,75433,0
2248,108661,75433,0
2200,108661,75452,0
2232,108631,75439,0
2224,108631,75439,0
2232,108631,75439,0
2224,108631,75439,0
2240,108631,75439,0
2252,108631,75439,0
2252,108631,75439,0
2242,108651,75465,0
2244,108651,75465,0
2232,108651,75465,0
2228,108651,75465,0
2236,108651,75465,0
2240,108651,75465,0
2248,108651,75465,0
2250,108642,75451,0
2250,108642,75451,0
2282,108642,75451,0
2280,108642,75451,0
2280,108642,75451,0
2324,108642,75451,0
2269,108642,75451,0
2412,108642,75461,0
2288,108632,75402,0
2282,108632,75402,0
2297,108632,75402,0
2284,108632,75402,0
2248,108645,75451,0
2290,108655,75446,0
2260,108637,75472,0
2304,108604,75452,0
2284,108630,75424,0
2289,108627,75509,0
2293,108660,75451,0
2300,108633,75480,0
2296,108660,75456,0
2292,108612,75451,0
2304,108576,75469,0
2292,108673,75456,0
2304,108644,75524,0
2289,108661,75462,0
2306,108624,75477,0
2285,108603,75461,0
2292,108657,75444,0
2273,108633,75508,0
2266,108661,75462,0
2260,108633,75503,0
2264,108654,75468,0
2266,108624,75416,0
2256,108614,75516,0
2258,108677,75473,0
2248,108637,75500,0
2228,108664,75477,0
2192,108633,75460,0
2218,108584,75465,0
2216,108611,75493,0
2212,108611,75493,0
2217,108611,75493,0
2226,108611,75493,0
2224,108611,75493,0
2210,108611,75493,0
2228,108611,75493,0
2228,108645,75474,0
2236,108645,75474,0
2264,108645,75474,0
2237,108645,75474,0
2256,108645,75474,0
2240,108645,75474,0
2248,108645,75474,0
2242,108595,75468,0
2238,108595,75468,0
2248,108595,75468,0
2248,108595,75468,0
2216,108595,75468,0
2218,108595,75468,0
2242,108595,75468,0
2232,108595,75512,0
2271,108675,75507,0
2249,108675,75507,0
2251,108675,75507,0
2252,108675,75507,0
2256,108675,75507,0
2296,108675,75507,0
2297,108675,75523,0
2300,108675,75461,0
2326,108675,75461,0
2290,108654,75491,0
2416,108662,75515,0
2432,108661,75561,0
2376,108702,75543,0
2328,108667,75553,0
2272,108684,75525,0
2240,108660,75481,0
2240,108655,75579,0
2178,108712,75546,0
2156,108657,75574,0
2124,108685,75528,0
2112,108638,75489,0
2088,108602,75561,0
2073,108709,75527,0
2056,108653,75561,0
2034,108663,75546,0
2020,108658,75554,0
2008,108612,75542,0
2000,108682,75526,0
1988,108647,75567,0
1976,108695,75542,0
1972,108630,75568,0
1964,108676,75545,0
1978,108662,75495,0
1960,108641,75584,0
1944,108690,75557,0
1912,108639,75584,0
1970,108670,75555,0
1962,108670,75555,0
1989,108670,75555,0
1973,108657,75579,0
1978,108657,75579,0
1978,108657,75579,0
2032,108657,75579,0
1986,108657,75579,0
2000,108657,75579,0
2072,108657,75579,0
2022,108677,75539,0
2034,108677,75539,0
2116,108677,75539,0
2112,108677,75539,0
2068,108677,75539,0
2068,108677,75539,0
2084,108677,75539,0
2176,108677,75584,0
2128,108601,75520,0
2196,108601,75520,0
2146,108601,75520,0
2210,108601,75520,0
2156,108601,75520,0
2218,108601,75520,0
2242,108601,75520,0
2194,108659,75582,0
2200,108659,75582,0
2264,108659,75582,0
2240,108659,75582,0
2240,108659,75582,0
2240,108659,75582,0
2244,108659,75582,0
2336,108680,75624,0
2288,108657,75630,0
2256,108707,75590,0
2196,108662,75602,0
2192,108692,75585,0
2185,108655,75554,0
2188,108610,75608,0
2188,108727,75578,0
2220,108668,75614,0
2170,108690,75580,0
2188,108672,75615,0
2198,108684,75598,0
2216,108664,75556,0
2172,108660,75636,0
2208,108708,75615,0
2264,108670,75626,0
2208,108695,75579,0
2242,108676,75533,0
2208,108643,75637,0
2232,108730,75598,0
2280,108665,75620,0
2218,108701,75591,0
2234,108658,75582,0
2276,108624,75603,0
2248,108729,75602,0
2308,108669,75639,0
2250,108684,75607,0
2264,108677,75602,0
2278,108625,75597,0
2296,108687,75588,0
1638,108664,75635,0
2289,108717,75593,0
2336,108709,75656,0
2288,108670,75654,0
2308,108652,75648,0
2260,108660,75654,0
2269,108683,75621,0
2272,108687,75682,0
2309,108724,75645,0
2308,108679,75678,0
2306,108716,75642,0
2304,108697,75619,0
2304,108646,75677,0
2298,108725,75658,0
2292,108694,75672,0
2290,108715,75651,0
2285,108677,75673,0
2284,108640,75660,0
2258,108723,75650,0
2272,108682,75713,0
2274,108741,75666,0
2272,108699,75683,0
2268,108708,75646,0
2272,108690,75618,0
2272,108672,75714,0
2264,108747,75668,0
2268,108688,75693,0
2264,108711,75669,0
2264,108703,75643,0
2228,108708,75662,0
2232,108708,75662,0
2226,108708,75662,0
2232,108708,75662,0
2238,108708,75662,0
2244,108708,75662,0
2244,108656,75676,0
2256,108656,75676,0
2264,108656,75676,0
2284,108656,75676,0
2280,108656,75676,0
2264,108656,75676,0
2278,108656,75676,0
2264,108656,75546,0
2256,108687,75608,0
2280,108687,75608,0
2253,108687,75608,0
2288,108687,75608,0
2284,108687,75608,0
2282,108687,75608,0
2282,108687,75623,0
2284,108703,75650,0
2320,108703,75650,0
2314,108703,75650,0
2292,108703,75650,0
2336,108703,75650,0
2296,108703,75650,0
2445,108703,75650,0
2309,108687,75676,0
2308,108687,75676,0
2314,108687,75676,0
2320,108687,75676,0
2268,108566,75470,0
2272,108483,75410,0
2310,108485,75479,0
2308,108558,75471,0
2304,108503,75466,0
2304,108523,75446,0
2298,108512,75419,0
2306,108474,75457,0
2312,108525,75427,0
2306,108498,75464,0
2304,108521,75434,0
2304,108499,75439,0
2306,108464,75407,0
2314,108501,75398,0
2294,108494,75463,0
2289,108517,75397,0
2290,108479,75420,0
2288,108500,75417,0
2280,108473,75362,0
2280,108438,75424,0
2280,108533,75401,0
2276,108459,75415,0
2274,108507,75370,0
2288,108461,75396,0
2282,108411,75383,0
2264,108482,75367,0
2228,108443,75403,0
2288,108481,75404,0
2244,108453,75378,0
2240,108453,75378,0
2228,108453,75378,0
2216,108453,75378,0
2224,108453,75378,0
2224,108453,75378,0
2227,108453,75378,0
2226,108453,75319,0
2226,108450,75353,0
2232,108450,75353,0
2228,108450,75353,0
2249,108450,75353,0
2234,108450,75353,0
2248,108450,75353,0
2244,108450,75353,0
2246,108427,75356,0
2248,108427,75356,0
2248,108427,75356,0
2304,108427,75356,0
2244,108427,75356,0
2244,108427,75356,0
2250,108427,75356,0
2292,108429,75309,0
2267,108429,75309,0
2276,108429,75309,0
2281,108429,75309,0
2284,108429,75309,0
2304,108429,75309,0
2304,108429,75309,0
2294,108429,75326,0
2304,108398,75363,0
2276,108369,75314,0
2282,108370,75292,0
2340,108316,75297,0
2309,108394,75268,0
2317,108387,75337,0
2320,108401,75286,0
2322,108384,75317,0
2317,108390,75278,0
2308,108371,75239,0
2320,108335,75334,0
2317,108417,75288,0
2320,108355,75291,0
2324,108389,75278,0
2312,108383,75259,0
2320,108314,75294,0
2312,108408,75283,0
2312,108374,75317,0
2296,108392,75289,0
2304,108368,75292,0
2296,108333,75300,0
2276,108405,75288,0
2288,108361,75319,0
2266,108386,75280,0
2265,108370,75281,0
2272,108322,75290,0
2228,108380,75272,0
2192,108357,75327,0
2221,108344,75281,0
2217,108344,75281,0
2225,108344,75281,0
2276,108344,75272,0
2210,108359,75256,0
2224,108359,75256,0
2248,108359,75256,0
2250,108359,75256,0
2249,108359,75256,0
2248,108359,75256,0
2260,108359,75256,0
2264,108385,75272,0
2292,108385,75272,0
2272,108385,75272,0
2280,108385,75272,0
2288,108385,75272,0
2294,108385,75272,0
2300,108385,75272,0
2306,108373,75297,0
2309,108373,75297,0
2297,108373,75297,0
2308,108373,75297,0
2336,108373,75297,0
2386,108373,75297,0
2304,108373,75297,0
2337,108373,75299,0
2336,108405,75296,0
2320,108405,75296,0
2338,108405,75296,0
2336,108405,75296,0
2336,108405,75296,0
2322,108405,75296,0
2288,108377,75355,0
2290,108407,75318,0
2328,108410,75315,0
2320,108369,75330,0
2324,108413,75327,0
2312,108363,75293,0
2304,108326,75321,0
2304,108426,75347,0
2290,108379,75341,0
2305,108417,75327,0
2309,108375,75323,0
2308,108352,75303,0
2292,108372,75275,0
2312,108364,75365,0
2308,108411,75314,0
2322,108379,75337,0
2308,108402,75327,0
2306,108364,75277,0
2320,108367,75363,0
2306,108426,75310,0
2306,108367,75353,0
2312,108394,75314,0
2309,108367,75329,0
2314,108323,75325,0
2304,108388,75286,0
2284,108361,75355,0
2246,108395,75318,0
2285,108356,75343,0
2258,108384,75319,0
2252,108397,75288,0
2256,108397,75288,0
2248,108397,75288,0
2384,108397,75288,0
2256,108397,75288,0
2264,108397,75304,0
2252,108333,75307,0
2276,108333,75307,0
2272,108333,75307,0
2268,108333,75307,0
2276,108333,75307,0
2282,108333,75307,0
2256,108333,75307,0
2272,108360,75318,0
2274,108360,75318,0
2276,108360,75318,0
2284,108360,75318,0
2285,108360,75318,0
2300,108360,75318,0
2306,108360,75318,0
2312,108358,75353,0
2320,108358,75353,0
2388,108358,75353,0
2150,108358,75353,0
2360,108358,75353,0
2359,108358,75353,0
2419,108358,75353,0
2352,108358,75319,0
2392,108386,75320,0
2400,108386,75320,0
2374,108386,75320,0
2320,108335,75277,0
2358,108288,75331,0
2328,108362,75288,0
2328,108326,75355,0
2316,108380,75290,0
2312,108322,75295,0
2308,108288,75316,0
2298,108357,75310,0
2296,108322,75321,0
2296,108341,75301,0
2284,108330,75316,0
2296,108337,75309,0
2312,108336,75278,0
2296,108326,75359,0
2296,108375,75312,0
2296,108315,75312,0
2296,108347,75275,0
2280,108323,75260,0
2289,108293,75340,0
2288,108369,75296,0
2290,108340,75329,0
2294,108358,75287,0
2298,108319,75293,0
2338,108287,75308,0
2272,108367,75267,0
2348,108316,75321,0
2308,108349,75296,0
2304,108328,75311,0
2310,108293,75296,0
2336,108324,75264,0
2332,108328,75346,0
2344,108378,75305,0
2320,108337,75351,0
2358,108376,75313,0
2325,108350,75262,0
2348,108372,75320,0
2368,108318,75333,0
2368,108344,75297,0
2362,108333,75250,0
2362,108295,75338,0
2344,108396,75305,0
2356,108339,75344,0
2360,108389,75301,0
2364,108332,75314,0
2356,108301,75302,0
2353,108388,75295,0
2344,108344,75348,0
2354,108388,75313,0
2320,108340,75327,0
2336,108332,75317,0
2336,108359,75287,0
2324,108357,75356,0
2316,108388,75322,0
2328,108337,75343,0
2312,108392,75326,0
2304,108360,75273,0
2290,108342,75349,0
2284,108387,75335,0
2258,108346,75338,0
2252,108346,75338,0
2260,108353,75341,0
2256,108353,75341,0
2252,108353,75341,0
2249,108353,75341,0
2248,108353,75341,0
2258,108353,75341,0
2272,108353,75341,0
2265,108353,75355,0
2280,108340,75278,0
2288,108340,75278,0
2312,108340,75278,0
2272,108340,75278,0
2316,108340,75278,0
2320,108340,75278,0
2320,108340,75365,0
2320,108362,75337,0
2328,108362,75337,0
2329,108362,75337,0
2336,108362,75337,0
2340,108362,75337,0
2384,108362,75337,0
2374,108362,75337,0
2360,108348,75352,0
2406,108348,75352,0
2368,108348,75352,0
2578,108348,75352,0
2396,108348,75352,0
2388,108348,75352,0
2438,108348,75352,0
2392,108386,75329,0
2308,108362,75356,0
2336,108346,75388,0
2336,108409,75345,0
2348,108378,75399,0
2336,108395,75352,0
2332,108380,75367,0
2330,108329,75341,0
2325,108399,75326,0
2332,108379,75385,0
2346,108396,75362,0
2320,108387,75376,0
2312,108396,75359,0
2328,108388,75310,0
2312,108390,75399,0
2305,108411,75350,0
2312,108350,75371,0
2306,108418,75355,0
2280,108380,75319,0
2472,108336,75395,0
2304,108426,75362,0
2312,108369,75398,0
2320,108422,75351,0
2318,108377,75356,0
2340,108323,75354,0
2332,108380,75350,0
2336,108370,75397,0
2332,108393,75359,0
2340,108390,75372,0
2336,108352,75341,0
2360,108386,75335,0
2353,108371,75399,0
2341,108398,75353,0
2308,108382,75370,0
2336,108369,75326,0
2324,108342,75417,0
2628,108382,75406,0
2685,108426,75390,0
2722,108391,75402,0
2808,108393,75365,0
2848,108371,75369,0
2896,108336,75396,0
2924,108406,75381,0
2948,108386,75443,0
2992,108416,75396,0
3000,108368,75398,0
3024,108352,75378,0
3029,108399,75353,0
3024,108387,75433,0
2992,108406,75391,0
2960,108397,75417,0
2920,108421,75393,0
2868,108376,75346,0
2832,108382,75444,0
2788,108420,75393,0
2740,108386,75422,0
2688,108417,75391,0
2629,108384,75366,0
2572,108336,75428,0
2490,108418,75395,0
2116,108386,75418,0
2074,108386,75418,0
2036,108386,75418,0
2056,108386,75418,0
2047,108386,75418,0
2036,108400,75405,0
2046,108400,75405,0
2032,108400,75405,0
2032,108400,75405,0
1922,108400,75405,0
2033,108400,75405,0
2032,108400,75405,0
2044,108400,75426,0
2020,108332,75410,0
2034,108332,75410,0
2030,108332,75410,0
2024,108332,75410,0
2034,108332,75410,0
2045,108332,75410,0
2046,108332,75408,0
2037,108400,75393,0
2064,108400,75393,0
2113,108400,75393,0
2106,108400,75393,0
2100,108400,75393,0
2153,108400,75393,0
2129,108400,75393,0
2258,108382,75436,0
2162,108382,75436,0
2184,108382,75436,0
2168,108382,75436,0
2180,108382,75436,0
2152,108438,75436,0
2272,108434,75448,0
2320,108396,75470,0
2324,108388,75437,0
2336,108397,75426,0
2320,108406,75499,0
2384,108440,75464,0
2348,108385,75481,0
2344,108413,75434,0
2338,108378,75411,0
2340,108385,75515,0
2336,108446,75446,0
2340,108408,75480,0
2336,108428,75457,0
2316,108400,75413,0
2292,108357,75513,0
2292,108432,75454,0
2348,108388,75484,0
2332,108431,75455,0
2266,108395,75445,0
2308,108351,75467,0
2292,108426,75466,0
2284,108392,75491,0
2308,108419,75460,0
2282,108390,75509,0
2256,108393,75457,0
2240,108396,75425,0
2120,108407,75488,0
2240,108406,75471,0
2236,108406,75471,0
2244,108406,75471,0
2284,108406,75471,0
2268,108406,75471,0
2252,108406,75471,0
2256,108406,75496,0
2260,108392,75440,0
2296,108392,75440,0
2296,108392,75440,0
2290,108392,75440,0
2304,108392,75440,0
2306,108392,75440,0
2296,108392,75440,0
2300,108407,75485,0
2320,108407,75485,0
2284,108407,75485,0
2301,108407,75485,0
2352,108407,75485,0
2284,108407,75485,0
2276,108407,75485,0
2288,108396,75476,0
2336,108396,75476,0
2344,108396,75476,0
2298,108396,75476,0
2322,108396,75476,0
2370,108396,75476,0
2352,108396,75476,0
2352,108396,75507,0
2352,108433,75469,0
2348,108433,75469,0
2312,108438,75462,0
2316,108422,75506,0
2344,108422,75533,0
2356,108458,75501,0
2356,108435,75533,0
2352,108434,75485,0
2337,108409,75473,0
2339,108407,75532,0
2330,108453,75487,0
2332,108420,75507,0
2336,108440,75484,0
2344,108384,75475,0
2336,108367,75502,0
2312,108453,75462,0
2336,108399,75521,0
2332,108434,75462,0
2328,108378,75477,0
2325,108390,75447,0
2324,108386,75413,0
2328,108389,75494,0
2320,108424,75442,0
2324,108368,75473,0
2322,108404,75445,0
2356,108377,75400,0
2352,108334,75452,0
2312,108424,75436,0
2293,108352,75453,0
2320,108296,75414,0
2302,108296,75414,0
2308,108296,75232,0
2316,108333,75414,0
2308,108333,75414,0
2308,108333,75414,0
2302,108333,75414,0
2304,108333,75414,0
2312,108333,75414,0
2292,108333,75414,0
2302,108320,75415,0
2296,108320,75415,0
2328,108320,75415,0
2312,108320,75415,0
2312,108320,75415,0
2316,108320,75415,0
2316,108320,75415,0
2320,108344,75437,0
2320,108344,75437,0
2328,108344,75437,0
2324,108344,75437,0
2332,108344,75437,0
2320,108344,75437,0
2352,108344,75437,0
2612,108344,75277,0
2660,108347,75364,0
2350,108347,75364,0
2328,108347,75364,0
2360,108347,75364,0
2360,108347,75364,0
2352,108347,75364,0
2360,108347,75290,0
2328,108155,75142,0
2314,108183,75264,0
2328,108284,75246,0
2322,108230,75277,0
2324,108272,75266,0
2320,108243,75264,0
2313,108187,75243,0
2302,108231,75215,0
2312,108226,75270,0
2296,108249,75246,0
2289,108212,75259,0
2328,108230,75209,0
2304,108197,75177,0
2288,108165,75248,0
2292,108253,75194,0
2281,108193,75247,0
2300,108234,75202,0
2300,108198,75205,0
2302,108150,75189,0
2304,108214,75172,0
2312,108182,75219,0
2306,108237,75186,0
2308,108162,75204,0
2328,108184,75183,0
2300,108181,75143,0
2308,108157,75216,0
2304,108221,75170,0
2288,108188,75189,0
2288,108194,75162,0
2312,108183,75118,0
2324,108135,75174,0
2592,108204,75169,0
2328,108133,75096,0
2314,108119,75178,0
2296,108185,75119,0
2300,108127,75127,0
2300,108133,75133,0
2290,108091,75139,0
2328,108174,75113,0
2321,108123,75168,0
2324,108174,75123,0
2336,108124,75162,0
2320,108154,75119,0
2325,108132,75070,0
2332,108127,75178,0
2328,108177,75114,0
2336,108135,75145,0
2340,108159,75112,0
2336,108135,75116,0
2337,108088,75112,0
2354,108177,75111,0
2344,108126,75159,0
2340,108171,75125,0
2344,108166,75137,0
2340,108089,75136,0
2320,108140,75103,0
2325,108143,75155,0
2328,108193,75128,0
2306,108154,75155,0
2256,108146,75156,0
2252,108146,75156,0
2249,108146,75156,0
2252,108146,75156,0
2264,108146,75156,0
2266,108146,75140,0
2268,108170,75138,0
2272,108170,75138,0
2274,108170,75138,0
2276,108170,75138,0
2286,108170,75138,0
2278,108170,75138,0
2302,108170,75138,0
2280,108151,75133,0
2292,108151,75133,0
2276,108151,75133,0
2274,108151,75133,0
2288,108151,75133,0
2285,108151,75133,0
2288,108151,75133,0
2292,108157,75148,0
2301,108157,75148,0
2345,108157,75148,0
2352,108157,75148,0
2344,108157,75148,0
2384,108157,75148,0
2353,108157,75148,0
2517,108157,75135,0
2372,108167,75141,0
2412,108167,75141,0
2370,108167,75141,0
2368,108167,75141,0
2320,108177,75196,0
2348,108150,75222,0
2368,108224,75184,0
2352,108165,75220,0
2368,108211,75160,0
2356,108170,75133,0
2361,108119,75202,0
2376,108219,75191,0
2376,108180,75207,0
2330,108201,75183,0
2368,108173,75192,0
2360,108142,75187,0
2356,108216,75169,0
2348,108178,75212,0
2348,108211,75169,0
2348,108190,75203,0
2344,108182,75164,0
2340,108180,75120,0
2392,108174,75238,0
2332,108208,75172,0
2346,108173,75202,0
2336,108212,75195,0
2320,108175,75181,0
2328,108125,75204,0
2324,108224,75180,0
2304,108182,75223,0
2276,108202,75194,0
2262,108191,75250,0
2264,108223,75203,0
2256,108223,75203,0
2264,108223,75203,0
2268,108223,75203,0
2274,108223,75203,0
2282,108223,75203,0
2300,108223,75203,0
2298,108115,75181,0
2324,108115,75181,0
2312,108115,75181,0
2314,108115,75181,0
2332,108115,75181,0
2324,108115,75181,0
2324,108115,75181,0
2321,108215,75203,0
2328,108215,75203,0
2322,108215,75203,0
2336,108215,75203,0
2316,108215,75203,0
2340,108215,75203,0
2332,108215,75203,0
2344,108215,75217,0
2392,108192,75216,0
2368,108192,75216,0
2418,108192,75216,0
2372,108192,75216,0
2354,108192,75216,0
2384,108192,75216,0
2372,108192,75216,0
2370,108202,75190,0
2364,108202,75190,0
2330,108104,75193,0
2352,108087,75167,0
2376,108168,75158,0
2384,108140,75181,0
2392,108174,75145,0
2388,108130,75159,0
2378,108067,75169,0
2394,108151,75137,0
2384,108113,75200,0
2384,108174,75154,0
2380,108108,75161,0
2360,108127,75153,0
2362,108115,75108,0
2384,108105,75194,0
2354,108159,75140,0
2336,108105,75182,0
2352,108142,75150,0
2344,108102,75098,0
2336,108089,75158,0
2330,108159,75133,0
2329,108107,75162,0
2320,108142,75143,0
2320,108088,75138,0
2312,108047,75161,0
2314,108134,75139,0
2304,108093,75173,0
2252,108143,75130,0
2272,108117,75141,0
2274,108117,75141,0
2264,108117,75141,0
2264,108062,75130,0
2260,108062,75130,0
2252,108062,75130,0
2256,108062,75130,0
2284,108062,75130,0
2288,108062,75130,0
2282,108062,75130,0
2280,108121,75162,0
2292,108121,75162,0
2320,108121,75162,0
2312,108121,75162,0
2316,108121,75162,0
2320,108121,75162,0
2314,108121,75162,0
2320,108121,75100,0
2328,108117,75095,0
2474,108117,75095,0
2330,108117,75095,0
2336,108117,75095,0
2330,108117,75095,0
2372,108117,75095,0
2368,108117,75095,0
2372,108141,75145,0
2290,108141,75145,0
2408,108141,75145,0
2368,108141,75145,0
2384,108141,75145,0
2368,108141,75145,0
2358,108141,75145,0
2714,108114,75160,0
2344,108093,75085,0
2324,108040,75133,0
2324,108128,75127,0
2328,108082,75159,0
2312,108127,75125,0
2296,108068,75130,0
2304,108035,75144,0
2310,108120,75111,0
2312,108087,75166,0
2320,108105,75131,0
2322,108061,75122,0
2320,108040,75122,0
2308,108114,75120,0
2308,108083,75164,0
2306,108122,75130,0
2308,108071,75131,0
2308,108050,75140,0
2320,108099,75120,0
2326,108101,75181,0
2320,108131,75130,0
2324,108065,75141,0
2330,108068,75117,0
2340,108099,75090,0
2336,108080,75179,0
2328,108128,75112,0
2336,108079,75162,0
2342,108077,75147,0
2329,108080,75102,0
2336,108103,75181,0
2348,108116,75132,0
2640,108091,75157,0
2714,108143,75163,0
2344,108115,75186,0
2328,108077,75175,0
2316,108111,75157,0
2296,108108,75158,0
2292,108080,75170,0
2332,108160,75158,0
2320,108110,75198,0
2312,108153,75154,0
2312,108133,75187,0
2320,108117,75172,0
2320,108128,75132,0
2312,108117,75221,0
2304,108159,75171,0
2310,108123,75214,0
2316,108156,75166,0
2308,108123,75136,0
2324,108093,75234,0
2340,108175,75186,0
2341,108146,75223,0
2352,108153,75185,0
2368,108139,75158,0
2405,108088,75212,0
2416,108178,75181,0
2432,108121,75227,0
2466,108176,75200,0
2496,108134,75166,0
2804,108156,75185,0
2849,108156,75185,0
2880,108156,75185,0
2905,108156,75185,0
2984,108156,75185,0
2932,108156,75185,0
2936,108152,75221,0
2922,108152,75221,0
2908,108152,75221,0
2896,108152,75221,0
2844,108152,75221,0
2840,108152,75221,0
2776,108152,75221,0
2704,108152,75218,0
2658,108140,75210,0
2600,108140,75210,0
2554,108140,75210,0
2504,108140,75210,0
2444,108140,75210,0
2384,108140,75210,0
2336,108140,75229,0
2300,108140,75214,0
2304,108140,75214,0
2278,108140,75214,0
2216,108140,75214,0
2249,108140,75214,0
2181,108140,75214,0
2360,108140,75214,0
2154,108144,75189,0
2148,108144,75189,0
2136,108144,75189,0
2125,108144,75189,0
2084,108137,75174,0
2224,108199,75226,0
2282,108133,75227,0
2312,108143,75196,0
2304,108150,75283,0
2294,108217,75228,0
2296,108130,75255,0
2304,108170,75216,0
2294,108162,75180,0
2306,108116,75285,0
2316,108212,75240,0
2304,108141,75258,0
2304,108184,75228,0
2304,108140,75249,0
2296,108122,75244,0
2305,108167,75208,0
2296,108152,75273,0
2312,108178,75225,0
2312,108118,75276,0
2320,108150,75228,0
2326,108147,75227,0
2328,108142,75294,0
2330,108212,75226,0
2330,108146,75266,0
2344,108150,75242,0
2312,108163,75200,0
2284,108142,75299,0
2274,108194,75271,0
2276,108185,75268,0
2288,108185,75268,0
2272,108185,75268,0
2268,108185,75268,0
2268,108185,75268,0
2272,108185,75268,0
2264,108185,75268,0
2278,108185,75198,0
2284,108128,75196,0
2290,108128,75196,0
2292,108128,75196,0
2304,108128,75196,0
2296,108128,75196,0
2345,108128,75196,0
2257,108128,75303,0
2292,108137,75254,0
2293,108137,75254,0
2285,108137,75254,0
2288,108137,75254,0
2286,108137,75254,0
2254,108137,75254,0
2288,108137,75254,0
2323,108166,75237,0
2308,108166,75237,0
2332,108166,75237,0
2312,108166,75237,0
2320,108166,75237,0
2352,108166,75237,0
2348,108166,75237,0
2357,108166,75268,0
2404,108155,75285,0
2320,108181,75283,0
2316,108138,75289,0
2368,108177,75269,0
2404,108165,75324,0
2360,108210,75295,0
2364,108152,75319,0
2368,108192,75298,0
2368,108163,75254,0
2368,108171,75330,0
2372,108225,75303,0
2374,108162,75338,0
2370,108188,75291,0
2368,108163,75253,0
2354,108136,75346,0
2358,108221,75289,0
2361,108182,75326,0
2360,108212,75301,0
2352,108160,75262,0
2354,108126,75304,0
2344,108232,75302,0
2408,108191,75337,0
2338,108208,75289,0
2336,108172,75316,0
2332,108146,75300,0
2316,108173,75269,0
2312,108169,75355,0
2296,108198,75289,0
2292,108163,75286,0
2292,108163,75286,0
2272,108163,75286,0
2266,108163,75214,0
2270,108179,75326,0
2288,108179,75326,0
2288,108179,75326,0
2288,108179,75326,0
2290,108179,75326,0
2304,108179,75326,0
2294,108179,75195,0
2309,108165,75283,0
2328,108165,75283,0
2322,108165,75283,0
2316,108165,75283,0
2320,108165,75283,0
2330,108165,75283,0
2326,108165,75283,0
2380,108173,75306,0
2324,108173,75306,0
2328,108173,75306,0
2354,108173,75306,0
2340,108173,75306,0
2385,108173,75306,0
2372,108173,75306,0
2324,108173,75185,0
2356,108183,75272,0
2354,108183,75272,0
2373,108183,75272,0
2384,108183,75272,0
2377,108183,75272,0
2378,108183,75272,0
2344,108066,75054,0
2324,108007,75051,0
2354,107999,75085,0
2353,108015,75034,0
2352,107979,75002,0
2346,107958,75074,0
2388,108037,75030,0
2324,107987,75055,0
2348,108026,75023,0
2344,107982,75001,0
2344,107915,75029,0
2342,108014,75020,0
2336,107989,75043,0
2332,107994,75026,0
2336,107951,75000,0
2332,107916,75015,0
2321,108000,74987,0
2320,107977,75042,0
2320,107980,75012,0
2316,107955,75012,0
2308,107912,74994,0
2313,107984,74999,0
2314,107951,75015,0
2360,107965,74983,0
2313,107952,75010,0
2288,107891,74975,0
2264,107941,74949,0
2298,107950,75025,0
2257,107866,74947,0
2260,107941,74990,0
2252,107941,74990,0
2296,107941,74990,0
2256,107941,74990,0
2250,107941,74990,0
2260,107941,74957,0
2242,107974,74956,0
2264,107974,74956,0
2274,107974,74956,0
2276,107974,74956,0
2282,107974,74956,0
2304,107974,74956,0
2298,107974,74945,0
2290,107936,74978,0
2289,107936,74978,0
2300,107936,74978,0
2304,107936,74978,0
2300,107936,74978,0
2310,107936,74978,0
2294,107936,74978,0
2304,107942,75003,0
2305,107942,75003,0
2340,107942,75003,0
2328,107942,75003,0
2320,107942,75003,0
2322,107942,75003,0
2328,107942,75003,0
2410,107942,74938,0
2344,107931,74973,0
2336,107931,74973,0
2336,107931,74973,0
2337,107959,74947,0
2334,107921,74907,0
2296,107901,74991,0
2292,107939,74945,0
2284,107900,74975,0
2284,107925,74935,0
2166,107906,74890,0
2288,107879,74979,0
2281,107956,74954,0
2314,107916,74971,0
2288,107940,74944,0
2304,107905,74888,0
2316,107877,74969,0
2302,107957,74926,0
2304,107915,74973,0
2308,107929,74947,0
2306,107882,74940,0
2312,107860,74951,0
2321,107932,74958,0
2344,107906,74971,0
2324,107933,74944,0
2340,107909,74966,0
2324,107867,74949,0
2350,107938,74921,0
2328,107909,75013,0
2324,107940,74927,0
2360,107887,74974,0
2332,107909,74941,0
2336,107909,74910,0
2356,107890,74994,0
2342,107947,74954,0
2340,107883,74965,0
2337,107958,74943,0
2334,107910,74981,0
2320,107891,74942,0
2314,107886,74970,0
2352,107935,74956,0
2358,107898,74890,0
2348,107885,75001,0
2352,107968,74945,0
2348,107909,74977,0
2340,107923,74953,0
2344,107895,74924,0
2344,107903,74997,0
2332,107954,74951,0
2336,107897,75002,0
2332,107922,74957,0
2356,107901,74912,0
2332,107912,75001,0
2328,107963,74949,0
2328,107895,74974,0
2328,107923,74948,0
2324,107923,74906,0
2324,107899,75015,0
2328,107953,74962,0
2324,107906,74987,0
2320,107918,74956,0
2320,107924,74917,0
2284,107902,74943,0
2296,107902,74949,0
2290,107933,74966,0
2288,107933,74966,0
2288,107933,74966,0
2292,107933,74966,0
2296,107933,74966,0
2300,107933,74966,0
2306,107933,74966,0
2304,107927,74982,0
2312,107927,74982,0
2306,107927,74982,0
2322,107927,74982,0
2317,107927,74982,0
2314,107927,74982,0
2344,107927,74982,0
2312,107909,74962,0
2324,107909,74962,0
2316,107909,74962,0
2324,107909,74962,0
2312,107909,74962,0
2312,107909,74962,0
2352,107909,74962,0
2352,107909,74992,0
2336,107921,74995,0
2312,107921,74995,0
2354,107921,74995,0
2552,107921,74995,0
2344,107921,74995,0
2368,107921,74995,0
2370,107921,74995,0
2388,107964,74950,0
2344,107933,74945,0
2308,107933,74930,0
2344,107892,74977,0
2352,107926,74938,0
2352,107889,74931,0
2348,107851,74968,0
2352,107946,74938,0
2348,107898,74979,0
2348,107930,74928,0
2344,107877,74953,0
2340,107828,74954,0
2330,107904,74931,0
2332,107904,75003,0
2336,107923,74928,0
2336,107874,74946,0
2316,107864,74932,0
2340,107913,74941,0
2338,107875,74977,0
2337,107922,74944,0
2360,107872,74944,0
2360,107850,74945,0
2322,107904,74938,0
2352,107875,74977,0
2354,107918,74942,0
2360,107884,74962,0
2344,107858,74925,0
2316,107888,74917,0
2298,107881,74951,0
2322,107881,74951,0
2314,107881,74951,0
2316,107881,74951,0
2296,107899,74946,0
2284,107899,74946,0
2302,107899,74946,0
2320,107899,74946,0
2324,107899,74946,0
2332,107899,74946,0
2336,107899,74946,0
2338,107899,74905,0
2364,107847,74929,0
2332,107847,74929,0
2284,107847,74929,0
2339,107847,74929,0
2340,107847,74929,0
2354,107847,74929,0
2352,107847,74931,0
2348,107872,74924,0
2384,107872,74924,0
2356,107872,74924,0
2346,107872,74924,0
2400,107872,74924,0
2374,107872,74924,0
2384,107872,74924,0
2386,107874,74956,0
2378,107874,74956,0
2392,107874,74956,0
2384,107874,74956,0
2392,107874,74956,0
2362,107874,74956,0
2336,107843,74942,0
2338,107897,74922,0
2360,107873,74915,0
2364,107829,74919,0
2369,107794,74925,0
2382,107888,74901,0
2372,107829,74948,0
2384,107885,74914,0
2385,107845,74924,0
2364,107801,74914,0
2368,107855,74895,0
2364,107833,74953,0
2360,107867,74913,0
2356,107848,74932,0
2356,107835,74913,0
2348,107860,74890,0
2344,107849,74939,0
2346,107879,74902,0
2346,107849,74952,0
2360,107849,74911,0
2346,107861,74877,0
2341,107817,74965,0
2348,107902,74926,0
2314,107845,74943,0
2348,107888,74888,0
2320,107846,74856,0
2284,107803,74939,0
2323,107895,74927,0
2288,107853,74942,0
2292,107842,74895,0
2293,107842,74895,0
2276,107842,74895,0
2290,107842,74895,0
2296,107842,74895,0
2304,107842,74895,0
2304,107849,74914,0
2320,107849,74914,0
2312,107849,74914,0
2336,107849,74914,0
2328,107849,74914,0
2352,107849,74914,0
2320,107849,74914,0
2338,107849,74931,0
2352,107880,74922,0
2346,107880,74922,0
2352,107880,74922,0
2360,107880,74922,0
2336,107880,74922,0
2356,107880,74922,0
2336,107880,74937,0
2312,107899,74903,0
2352,107899,74903,0
2320,107899,74903,0
2348,107899,74903,0
2352,107899,74903,0
2336,107899,74903,0
2320,107899,74903,0
2346,107853,74933,0
2340,107853,74933,0
2332,107853,74933,0
3020,107845,75006,0
2988,107884,74931,0
2288,107849,74969,0
2292,107898,74931,0
2288,107851,74890,0
2288,107831,74968,0
2300,107909,74952,0
2314,107862,74969,0
2324,107886,74922,0
2346,107883,74956,0
2364,107809,74949,0
2372,107890,74921,0
2412,107861,74975,0
2417,107906,74957,0
2452,107873,74953,0
2466,107801,74965,0
2516,107892,74942,0
2556,107878,74981,0
2588,107904,74963,0
2706,107855,74978,0
2720,107862,74935,0
2714,107870,74912,0
2752,107871,75004,0
2825,107904,74970,0
2852,107859,74981,0
2882,107880,74950,0
2920,107881,74901,0
2948,107848,75004,0
2976,107919,74966,0
3016,107879,74997,0
3028,107893,74958,0
3080,107874,74936,0
3020,107877,75035,0
2988,107912,74994,0
2058,107878,74999,0
2112,107941,74993,0
2092,107884,75033,0
2105,107910,75012,0
2100,107893,74965,0
2116,107868,75050,0
2184,107938,75018,0
2116,107890,75034,0
2120,107911,74999,0
2136,107875,74953,0
2154,107868,75064,0
2132,107947,75010,0
2140,107893,75035,0
2148,107952,75023,0
2164,107879,74998,0
2170,107849,75033,0
2172,107934,75010,0
2156,107888,75052,0
2186,107928,75005,0
2196,107890,75010,0
2204,107846,75037,0
2198,107945,75020,0
2216,107893,75044,0
2208,107926,75026,0
2224,107890,75043,0
2224,107890,75043,0
2225,107890,75020,0
2240,107894,75066,0
2248,107894,75066,0
2252,107894,75066,0
2264,107894,75066,0
2268,107894,75066,0
2280,107894,75066,0
2300,107894,75085,0
2296,107919,75030,0
2293,107919,75030,0
2330,107919,75030,0
2316,107919,75030,0
2325,107919,75030,0
2320,107919,75030,0
2300,107919,75030,0
2332,107924,75028,0
2332,107924,75028,0
2324,107924,75028,0
2329,107924,75028,0
2330,107924,75028,0
2372,107924,75028,0
2368,107924,75028,0
2408,107911,75022,0
2392,107911,75022,0
2346,107911,75022,0
2512,107911,75022,0
2368,107911,75022,0
2372,107911,75022,0
2368,107911,75022,0
2360,107911,75054,0
2528,107977,75113,0
2372,107919,75028,0
2314,107906,75112,0
2312,107982,75077,0
2302,107923,75103,0
2304,107936,75080,0
2300,107916,75073,0
2314,107882,75070,0
2304,107924,75047,0
2302,107916,75127,0
2308,107960,75082,0
2310,107914,75105,0
2328,107949,75077,0
2336,107943,75044,0
2328,107904,75136,0
2356,107966,75090,0
2332,107927,75107,0
2332,107967,75107,0
2340,107934,75059,0
2408,107901,75137,0
2340,107996,75086,0
2340,107931,75122,0
2338,107962,75089,0
2360,107916,75093,0
2342,107895,75131,0
2336,107989,75112,0
2336,107944,75161,0
2372,107992,75118,0
2344,107944,75136,0
2368,107937,75112,0
2408,107957,75081,0
2364,107938,75159,0
2528,107964,75185,0
2372,107995,75135,0
2349,107948,75142,0
2340,107969,75168,0
2340,107985,75152,0
2340,107943,75102,0
2384,107925,75157,0
2376,108011,75133,0
2384,107954,75176,0
2390,108001,75133,0
2385,107961,75140,0
2388,107893,75142,0
2392,107974,75123,0
2392,107939,75190,0
2380,107970,75149,0
2417,107946,75144,0
2369,107919,75139,0
2378,107950,75093,0
2372,107933,75177,0
2360,107991,75136,0
2360,107943,75151,0
2356,107959,75133,0
2344,107937,75081,0
2336,107927,75164,0
2314,107988,75134,0
2328,107933,75147,0
2322,107945,75133,0
2316,107907,75095,0
2316,107907,75095,0
2316,107907,75095,0
2320,107907,75095,0
2328,107907,75095,0
2313,107907,74996,0
2332,107967,75136,0
2322,107967,75136,0
2324,107967,75136,0
2324,107967,75136,0
2394,107967,75136,0
2332,107967,75136,0
2344,107967,74987,0
2344,107930,75095,0
2376,107930,75095,0
2352,107930,75095,0
2349,107930,75095,0
2352,107930,75095,0
2370,107930,75095,0
2344,107930,75095,0
2372,107920,75099,0
2376,107920,75099,0
2420,107920,75099,0
2412,107920,75099,0
2384,107920,75099,0
2429,107920,75099,0
2394,107920,75099,0
2570,107910,75058,0
2392,107910,75058,0
2384,107910,75058,0
2369,107910,75058,0
2362,107910,75058,0
2336,107789,74852,0
2376,107819,74851,0
2368,107763,74853,0
2369,107737,74833,0
2360,107749,74811,0
2361,107729,74888,0
2362,107800,74858,0
2348,107748,74877,0
2340,107759,74835,0
2344,107741,74807,0
2338,107694,74848,0
2344,107779,74827,0
2336,107730,74851,0
2332,107767,74819,0
2322,107715,74776,0
2320,107678,74837,0
2308,107755,74817,0
2298,107719,74848,0
2308,107749,74804,0
2314,107710,74798,0
2312,107660,74801,0
2312,107750,74795,0
2320,107718,74839,0
2316,107746,74790,0
2322,107714,74825,0
2293,107712,74787,0
2264,107710,74748,0
2292,107694,74793,0
2236,107683,74772,0
2308,107683,74772,0
2320,107683,74772,0
2320,107683,74772,0
2325,107683,74772,0
2320,107683,74772,0
2330,107683,74762,0
2352,107702,74800,0
2340,107702,74800,0
2340,107702,74800,0
2366,107702,74800,0
2372,107702,74800,0
2352,107702,74800,0
2344,107702,74800,0
2348,107736,74783,0
2328,107736,74783,0
2332,107736,74783,0
2340,107736,74783,0
2336,107736,74783,0
2346,107736,74783,0
2338,107736,74783,0
2352,107678,74824,0
2378,107678,74824,0
2360,107678,74824,0
2376,107678,74824,0
2362,107678,74824,0
2372,107678,74824,0
2388,107678,74824,0
2384,107678,74802,0
2384,107752,74787,0
2386,107752,74787,0
2344,107686,74774,0
2357,107770,74775,0
2392,107686,74745,0
2404,107641,74812,0
2402,107734,74764,0
2450,107699,74800,0
2376,107719,74787,0
2392,107692,74779,0
2388,107627,74769,0
2400,107714,74762,0
2394,107690,74815,0
2408,107713,74769,0
2392,107689,74766,0
2404,107628,74759,0
2388,107753,74790,0
2384,107692,74818,0
2368,107727,74772,0
2372,107690,74753,0
2356,107648,74792,0
2360,107740,74775,0
2356,107697,74812,0
2348,107710,74781,0
2344,107684,74810,0
2352,107646,74785,0
2322,107712,74774,0
2316,107699,74815,0
2281,107732,74769,0
2290,107686,74758,0
2292,107686,74758,0
2288,107686,74792,0
2288,107699,74770,0
2288,107699,74770,0
2292,107699,74770,0
2284,107699,74770,0
2296,107699,74770,0
2296,107699,74770,0
2296,107699,74770,0
2310,107672,74774,0
2306,107672,74774,0
2324,107672,74774,0
2316,107672,74774,0
2330,107672,74774,0
2324,107672,74774,0
2324,107672,74774,0
2340,107672,74822,0
2277,107692,74736,0
2330,107692,74736,0
2322,107692,74736,0
2338,107692,74736,0
2336,107692,74736,0
2408,107692,74736,0
2369,107692,74804,0
2361,107748,74769,0
2370,107748,74769,0
2364,107748,74769,0
2394,107748,74769,0
2400,107748,74769,0
2396,107748,74769,0
2392,107748,74769,0
1640,107720,74830,0
2386,107733,74816,0
2340,107711,74757,0
2336,107698,74843,0
2330,107726,74806,0
2328,107705,74835,0
2378,107740,74810,0
2296,107716,74778,0
2364,107680,74848,0
2336,107764,74796,0
2337,107716,74819,0
2341,107749,74814,0
2360,107713,74773,0
2354,107688,74837,0
2360,107754,74813,0
2368,107726,74837,0
2362,107751,74810,0
2364,107735,74789,0
2364,107680,74814,0
2372,107750,74816,0
2332,107720,74834,0
2504,107762,74809,0
2356,107722,74817,0
2368,107704,74817,0
2360,107725,74784,0
2360,107713,74873,0
2368,107760,74808,0
2365,107715,74842,0
2356,107741,74799,0
2378,107727,74773,0
2338,107708,74866,0
2386,107770,74820,0
1640,107738,74862,0
2386,107752,74816,0
2328,107705,74849,0
2340,107682,74814,0
2336,107670,74831,0
2340,107769,74824,0
2376,107707,74846,0
2376,107738,74821,0
2388,107706,74794,0
2402,107675,74831,0
2384,107760,74828,0
2384,107723,74845,0
2357,107755,74830,0
2368,107708,74844,0
2378,107705,74823,0
2372,107733,74780,0
2372,107726,74862,0
2384,107763,74827,0
2368,107718,74859,0
2372,107731,74844,0
2368,107706,74790,0
2356,107708,74877,0
2361,107769,74842,0
2376,107734,74848,0
2356,107746,74833,0
2356,107718,74791,0
2384,107662,74848,0
2320,107725,74870,0
2324,107725,74870,0
2322,107725,74870,0
2352,107725,74870,0
2332,107725,74870,0
2340,107725,74870,0
2328,107724,74820,0
2328,107724,74820,0
2360,107724,74820,0
2344,107724,74820,0
2344,107724,74820,0
2356,107724,74820,0
2368,107724,74820,0
2358,107764,74836,0
2376,107764,74836,0
2370,107764,74836,0
2374,107764,74836,0
2384,107764,74836,0
2384,107764,74836,0
2382,107764,74836,0
2380,107764,74851,0
2384,107693,74861,0
2412,107693,74861,0
2412,107693,74861,0
2374,107693,74861,0
2428,107693,74861,0
2386,107693,74861,0
2584,107693,74880,0
2400,107712,74834,0
2388,107712,74834,0
2384,107712,74834,0
2384,107712,74834,0
2316,107795,74858,0
2376,107748,74886,0
2404,107733,74906,0
2392,107772,74860,0
2392,107762,74844,0
2396,107728,74907,0
2386,107797,74871,0
2384,107757,74908,0
2376,107771,74886,0
2380,107744,74878,0
2372,107720,74871,0
2378,107782,74863,0
2378,107754,74911,0
2381,107782,74890,0
2361,107756,74910,0
2374,107756,74874,0
2380,107752,74853,0
2368,107735,74931,0
2362,107800,74883,0
2361,107757,74925,0
2362,107781,74895,0
2354,107760,74851,0
2352,107723,74915,0
2338,107821,74893,0
2340,107752,74929,0
2320,107772,74902,0
2272,107753,74883,0
2308,107701,74884,0
2312,107747,74921,0
2316,107747,74921,0
2184,107747,74921,0
2328,107747,74921,0
2328,107747,74921,0
2344,107747,74921,0
2338,107747,74921,0
2344,107785,74890,0
2353,107785,74890,0
2368,107785,74890,0
2368,107785,74890,0
2384,107785,74890,0
2360,107785,74890,0
2361,107785,74890,0
2368,107785,74961,0
2368,107781,74925,0
2372,107781,74925,0
2376,107781,74925,0
2364,107781,74925,0
2354,107781,74925,0
2348,107781,74925,0
2356,107781,74958,0
2390,107782,74934,0
2520,107782,74934,0
2346,107782,74934,0
2342,107782,74934,0
2340,107782,74934,0
2352,107782,74934,0
2356,107782,74934,0
2352,107721,74904,0
2341,107721,74904,0
2308,107796,75019,0
3000,107758,75028,0
2976,107853,74996,0
2928,107810,74997,0
2880,107836,74987,0
2832,107800,74943,0
2773,107743,74997,0
2722,107832,74984,0
2657,107798,75003,0
2600,107845,74987,0
2549,107794,74938,0
2488,107751,74997,0
2424,107842,74979,0
2354,107813,75026,0
2338,107827,74992,0
2278,107804,74990,0
2260,107757,74995,0
2226,107825,74983,0
2194,107811,75036,0
2184,107846,75001,0
2156,107817,75007,0
2136,107790,74993,0
2114,107809,74971,0
2108,107815,75036,0
2088,107841,74985,0
2056,107816,75037,0
2021,107800,74983,0
2040,107797,74989,0
2106,107797,74989,0
2057,107797,74989,0
2076,107821,75031,0
2096,107821,75031,0
2085,107821,75031,0
2100,107821,75031,0
2106,107821,75031,0
2112,107821,75031,0
2120,107821,75031,0
2122,107821,75035,0
2132,107803,74996,0
2152,107803,74996,0
2137,107803,74996,0
2156,107803,74996,0
2162,107803,74996,0
2164,107803,74996,0
2178,107803,75044,0
2242,107802,75002,0
2200,107802,75002,0
2150,107802,75002,0
2229,107802,75002,0
2240,107802,75002,0
2295,107802,75002,0
2288,107802,75002,0
2293,107865,74994,0
2306,107865,74994,0
2310,107865,74994,0
2336,107865,74994,0
2352,107865,74994,0
2356,107865,74994,0
2352,107865,74994,0
2364,107862,75079,0
2380,107812,75051,0
2298,107822,75042,0
2313,107818,75014,0
2316,107808,75086,0
2312,107842,75040,0
2306,107808,75060,0
2312,107844,75039,0
2304,107820,75002,0
2304,107791,75067,0
2308,107867,75044,0
2312,107823,75074,0
2336,107870,75047,0
2316,107810,75009,0
2348,107766,75053,0
2320,107857,75032,0
2316,107821,75084,0
2320,107859,75066,0
2280,107824,75048,0
2332,107773,75058,0
2292,107860,75024,0
2304,107830,75088,0
2296,107853,75047,0
2328,107828,75063,0
2313,107796,75057,0
2316,107838,75047,0
2322,107822,75114,0
2326,107867,75060,0
2330,107835,75069,0
2356,107840,75053,0
2384,107842,75018,0
2368,107828,75102,0
2364,107843,75057,0
2380,107801,75107,0
2368,107888,75095,0
2336,107853,75101,0
2348,107845,75131,0
2368,107870,75111,0
2394,107858,75051,0
2380,107837,75140,0
2442,107914,75103,0
2452,107851,75136,0
2394,107861,75102,0
2396,107852,75048,0
2400,107820,75121,0
2404,107903,75113,0
2392,107860,75140,0
2400,107894,75099,0
2392,107857,75089,0
2386,107821,75143,0
2370,107895,75104,0
2380,107863,75151,0
2378,107896,75105,0
2370,107873,75103,0
2368,107831,75138,0
2352,107923,75119,0
2402,107863,75153,0
2384,107891,75112,0
2341,107884,75111,0
2316,107849,75125,0
2324,107849,75125,0
2201,107849,75125,0
2320,107849,75125,0
2324,107849,75125,0
2322,107849,75125,0
2348,107849,75126,0
2332,107875,75148,0
2324,107875,75148,0
2336,107875,75148,0
2344,107875,75148,0
2340,107875,75148,0
2376,107875,75148,0
2362,107875,75075,0
2364,107876,75139,0
2368,107876,75139,0
2357,107876,75139,0
2368,107876,75139,0
2368,107876,75139,0
2380,107876,75139,0
2380,107876,75139,0
2374,107882,75110,0
2424,107882,75110,0
2400,107882,75110,0
2384,107882,75110,0
2330,107882,75110,0
2394,107882,75110,0
1612,107882,75110,0
2394,107855,75164,0
2408,107855,75164,0
2408,107855,75164,0
2404,107851,75098,0
2360,107805,75084,0
2364,107863,75090,0
2360,107851,75104,0
2356,107851,75062,0
2364,107833,75086,0
2362,107780,75073,0
2336,107853,75057,0
2516,107807,75091,0
2346,107862,75077,0
2352,107839,75086,0
2352,107815,75033,0
2368,107826,75030,0
2353,107814,75075,0
2354,107843,75040,0
2368,107812,75049,0
2356,107800,75030,0
2364,107812,75001,0
2360,107794,75079,0
2392,107848,75022,0
2369,107800,75046,0
2384,107836,75021,0
2404,107800,74989,0
2424,107747,75027,0
2364,107843,74996,0
2394,107788,75027,0
2386,107802,74992,0
2400,107774,74993,0
2208,107725,74990,0
2404,107810,74990,0
2397,107766,75021,0
2408,107783,74975,0
2404,107635,74840,0
2380,107686,74841,0
2342,107678,74853,0
2380,107722,74839,0
2374,107664,74874,0
2368,107703,74824,0
2372,107668,74838,0
2362,107611,74840,0
2360,107693,74805,0
2346,107649,74883,0
2338,107695,74846,0
2342,107656,74850,0
2324,107662,74829,0
2320,107661,74786,0
2308,107630,74863,0
2316,107698,74839,0
2312,107639,74848,0
2314,107680,74813,0
2320,107661,74763,0
2317,107621,74867,0
2312,107673,74806,0
2320,107648,74824,0
2312,107675,74798,0
2320,107638,74762,0
2304,107622,74833,0
2304,107691,74800,0
2300,107627,74833,0
2274,107668,74772,0
2264,107668,74772,0
2268,107579,74818,0
2264,107579,74818,0
2280,107579,74818,0
2288,107579,74818,0
2284,107579,74818,0
2296,107579,74818,0
2292,107579,74818,0
2300,107579,74781,0
2320,107644,74756,0
2312,107644,74756,0
2378,107644,74756,0
2312,107644,74756,0
2312,107644,74756,0
2320,107644,74756,0
2298,107644,74756,0
2324,107617,74815,0
2328,107617,74815,0
2326,107617,74815,0
2336,107617,74815,0
2328,107617,74815,0
2336,107617,74815,0
2368,107617,74815,0
2356,107661,74803,0
2402,107661,74803,0
2362,107661,74803,0
2356,107661,74803,0
2368,107661,74803,0
2426,107661,74803,0
2368,107661,74803,0
2368,107661,74782,0
2212,107637,74752,0
2374,107645,74785,0
2322,107632,74781,0
2320,107559,74800,0
2326,107644,74787,0
2312,107635,74847,0
2316,107661,74786,0
2321,107625,74821,0
2320,107614,74786,0
2322,107651,74784,0
2328,107633,74845,0
2333,107670,74814,0
2352,107641,74802,0
2392,107595,74803,0
2321,107661,74795,0
2352,107631,74838,0
2360,107673,74809,0
2346,107637,74803,0
2356,107577,74820,0
2366,107657,74793,0
2356,107639,74858,0
2360,107672,74817,0
2360,107639,74845,0
2384,107628,74814,0
2360,107645,74765,0
2360,107627,74850,0
2348,107682,74809,0
2344,107624,74833,0
2344,107668,74807,0
2360,107649,74754,0
2352,107623,74856,0
2348,107693,74824,0
2212,107652,74849,0
2374,107634,74849,0
2340,107661,74812,0
2336,107702,74820,0
2340,107660,74871,0
2344,107681,74844,0
2384,107651,74858,0
2376,107678,74831,0
2386,107649,74799,0
2408,107633,74874,0
2394,107711,74842,0
2404,107644,74864,0
2396,107693,74843,0
2396,107651,74809,0
2392,107618,74863,0
2392,107716,74850,0
2388,107652,74880,0
2386,107700,74848,0
2384,107645,74846,0
2380,107612,74851,0
2360,107686,74835,0
2362,107652,74891,0
2352,107683,74847,0
2344,107657,74860,0
2338,107625,74849,0
2336,107696,74855,0
2346,107669,74900,0
2289,107683,74851,0
2276,107683,74851,0
2298,107683,74851,0
2292,107683,74851,0
2297,107683,74851,0
2284,107683,74885,0
2328,107651,74879,0
2298,107651,74879,0
2293,107651,74879,0
2292,107651,74879,0
2272,107651,74879,0
2312,107651,74879,0
2320,107651,74884,0
2320,107698,74829,0
2330,107698,74829,0
2346,107698,74829,0
2336,107698,74829,0
2326,107698,74829,0
2400,107698,74829,0
2344,107698,74829,0
2360,107660,74840,0
2352,107660,74840,0
2392,107660,74840,0
2405,107660,74840,0
2352,107660,74840,0
2412,107660,74840,0
2368,107660,74840,0
2578,107663,74908,0
2380,107663,74908,0
2384,107663,74908,0
2392,107663,74908,0
2396,107663,74908,0
2360,107686,74936,0
2360,107685,74916,0
2388,107747,74910,0
2376,107714,74938,0
2376,107706,74909,0
2368,107690,74877,0
2370,107643,74925,0
2384,107751,74903,0
2368,107697,74953,0
2346,107724,74911,0
2348,107686,74918,0
2336,107657,74923,0
2336,107743,74900,0
2348,107692,74955,0
2344,107719,74910,0
2346,107685,74942,0
2340,107692,74893,0
2344,107718,74893,0
2368,107700,74953,0
2340,107749,74938,0
2346,107705,74943,0
2392,107719,74931,0
2384,107690,74882,0
2336,107686,74971,0
2336,107748,74916,0
2321,107685,74952,0
2264,107736,74912,0
2328,107733,74940,0
2368,107717,74954,0
2400,107716,74939,0
2394,107644,74956,0
2392,107754,74948,0
2385,107722,75000,0
2448,107757,74944,0
2376,107722,74975,0
2384,107676,74954,0
2392,107759,74964,0
2373,107715,74995,0
2376,107779,74956,0
2372,107710,74977,0
2344,107728,74951,0
2362,107728,74914,0
2374,107720,74998,0
2344,107760,74956,0
2354,107719,74986,0
2348,107726,74963,0
2353,107727,74919,0
2340,107708,75008,0
2328,107771,74966,0
2322,107709,74994,0
2322,107759,74968,0
2368,107728,74928,0
2290,107701,75006,0
2274,107776,74972,0
2312,107732,75000,0
1544,107765,74971,0
2336,107719,74958,0
2322,107684,74995,0
2337,107770,74984,0
2332,107742,75018,0
2304,107768,74996,0
2308,107752,75081,0
2304,107815,75055,0
2312,107763,75059,0
2316,107799,75041,0
2324,107793,74988,0
2346,107814,75044,0
2352,107782,75024,0
2328,107778,75089,0
2352,107803,75055,0
2344,107779,75062,0
2392,107757,75045,0
2408,107793,75028,0
2396,107782,75101,0
2396,107824,75072,0
2384,107774,75092,0
2384,107828,75060,0
2386,107776,75024,0
2385,107766,75116,0
2376,107852,75079,0
2376,107798,75080,0
2389,107815,75062,0
2354,107785,75006,0
2356,107755,75115,0
2360,107841,75068,0
2356,107799,75108,0
2360,107819,75078,0
2352,107792,75056,0
2348,107752,75088,0
2338,107843,75089,0
2316,107805,75111,0
2248,107810,75081,0
2280,107784,75090,0
2272,107784,75090,0
2280,107784,75090,0
2266,107784,75122,0
2240,107783,75077,0
2256,107783,75077,0
2325,107783,75077,0
2258,107783,75077,0
2258,107783,75077,0
2261,107783,75077,0
2268,107783,75077,0
2297,107805,75076,0
2312,107805,75076,0
2296,107805,75076,0
2329,107805,75076,0
2344,107805,75076,0
2368,107805,75076,0
2372,107805,75076,0
2400,107834,75094,0
2426,107834,75094,0
2433,107834,75094,0
2488,107834,75094,0
2481,107834,75094,0
2560,107834,75094,0
2546,107834,75094,0
2594,107834,75126,0
2632,107846,75081,0
2678,107846,75081,0
2744,107846,75081,0
2788,107846,75081,0
2820,107846,75081,0
2868,107846,75081,0
2848,107810,75117,0
2114,107800,75140,0
2148,107783,75183,0
2136,107859,75149,0
2124,107822,75203,0
2128,107836,75168,0
2122,107791,75155,0
2122,107761,75184,0
2116,107874,75160,0
2122,107815,75205,0
2120,107857,75173,0
2125,107819,75178,0
2128,107791,75166,0
2136,107844,75142,0
2144,107832,75210,0
2133,107850,75165,0
2138,107827,75196,0
2134,107832,75178,0
2128,107806,75126,0
2136,107836,75208,0
2138,107879,75193,0
2146,107828,75213,0
2149,107847,75168,0
2152,107819,75159,0
2160,107801,75194,0
2148,107880,75172,0
2085,107832,75223,0
2133,107854,75208,0
2184,107867,75209,0
2192,107812,75206,0
2200,107812,75206,0
2208,107812,75206,0
2216,107812,75206,0
2226,107812,75206,0
2224,107812,75210,0
2238,107865,75190,0
2248,107865,75190,0
2248,107865,75190,0
2268,107865,75190,0
2262,107865,75190,0
2280,107865,75190,0
2282,107865,75190,0
2292,107853,75180,0
2296,107853,75180,0
2298,107853,75180,0
2320,107853,75180,0
2320,107853,75180,0
2324,107853,75180,0
2325,107853,75180,0
2328,107834,75232,0
2330,107834,75232,0
2346,107834,75232,0
2348,107834,75232,0
2348,107834,75232,0
2352,107834,75232,0
2320,107834,75232,0
2344,107834,75269,0
2386,107862,75194,0
2326,107862,75194,0
2330,107862,75194,0
2394,107859,75181,0
2397,107832,75276,0
2304,107896,75215,0
2306,107854,75255,0
2305,107886,75223,0
2306,107866,75203,0
2346,107799,75242,0
2324,107887,75228,0
2320,107845,75274,0
2328,107894,75242,0
2308,107872,75271,0
2336,107863,75236,0
2360,107882,75232,0
2330,107860,75279,0
2338,107897,75247,0
2377,107872,75259,0
2324,107806,75251,0
2328,107876,75227,0
2328,107862,75307,0
2332,107919,75262,0
2324,107869,75295,0
2318,107906,75255,0
2332,107886,75213,0
2348,107839,75293,0
2328,107934,75258,0
2328,107860,75290,0
2336,107898,75248,0
2348,107862,75225,0
2348,107818,75271,0
2444,107925,75272,0
2352,107879,75308,0
2344,107933,75266,0
2394,107961,75313,0
2397,107908,75321,0
2336,107913,75279,0
2336,107910,75334,0
2376,107935,75313,0
2392,107909,75328,0
2384,107872,75312,0
2400,107927,75284,0
2402,107922,75355,0
2394,107954,75317,0
2374,107910,75340,0
2384,107920,75306,0
2384,107931,75286,0
2376,107913,75379,0
2376,107954,75300,0
2368,107919,75333,0
2361,107925,75305,0
2380,107915,75243,0
2356,107874,75334,0
2348,107962,75292,0
2336,107919,75337,0
2408,107953,75315,0
2360,107911,75288,0
2368,107871,75324,0
2360,107965,75313,0
2368,107902,75333,0
2290,107949,75303,0
2298,107949,75303,0
2304,107911,75306,0
2298,107911,75306,0
2297,107911,75306,0
2308,107911,75306,0
2314,107911,75306,0
2314,107911,75306,0
2326,107911,75306,0
2320,107898,75321,0
2336,107898,75321,0
2336,107898,75321,0
2352,107898,75321,0
2337,107898,75321,0
2337,107898,75321,0
2346,107898,75321,0
2344,107898,75210,0
2348,107919,75321,0
2352,107919,75321,0
2352,107919,75321,0
2368,107919,75321,0
2354,107919,75321,0
2402,107919,75321,0
2402,107919,75205,0
2384,107866,75316,0
2428,107866,75316,0
2388,107866,75316,0
2538,107866,75316,0
2400,107866,75316,0
2405,107866,75316,0
2400,107866,75316,0
2384,107973,75298,0
2354,107760,75098,0
2348,107881,75183,0
2344,107848,75144,0
2392,107800,75217,0
2320,107878,75193,0
2316,107831,75207,0
2314,107856,75161,0
2320,107839,75127,0
2308,107771,75164,0
2312,107838,75162,0
2312,107807,75186,0
2320,107853,75148,0
2336,107805,75153,0
2320,107785,75130,0
2322,107825,75136,0
2320,107797,75182,0
2328,107846,75127,0
2332,107807,75140,0
2336,107798,75125,0
2328,107811,75082,0
2324,107805,75151,0
2378,107835,75119,0
2328,107792,75124,0
2353,107808,75091,0
2336,107774,75044,0
2336,107757,75127,0
2400,107811,75089,0
2333,107771,75102,0
2338,107775,75079,0
2346,107758,75030,0
2448,107746,75117,0
2361,107813,75084,0
2354,107695,74969,0
2348,107684,74956,0
2336,107674,75026,0
2312,107672,74984,0
2320,107728,74967,0
2300,107673,74990,0
2340,107684,74949,0
2348,107689,74926,0
2344,107659,75000,0
2384,107720,74963,0
2344,107680,74980,0
2348,107698,74950,0
2368,107675,74906,0
2362,107669,75013,0
2336,107736,74945,0
2340,107668,74980,0
2337,107700,74950,0
2330,107658,74904,0
2336,107642,74971,0
2320,107721,74952,0
2308,107668,74981,0
2312,107693,74939,0
2304,107665,74959,0
2296,107629,74935,0
2296,107686,74926,0
2292,107667,74986,0
2276,107695,74945,0
2264,107682,74925,0
2252,107682,74925,0
2272,107682,74925,0
2272,107682,74925,0
2282,107682,74925,0
2272,107627,74962,0
2272,107627,74962,0
2272,107627,74962,0
2266,107627,74962,0
2272,107627,74962,0
2282,107627,74962,0
2282,107627,74962,0
2312,107655,74960,0
2282,107655,74960,0
2305,107655,74960,0
2296,107655,74960,0
2304,107655,74960,0
2236,107655,74960,0
2300,107655,74960,0
2304,107655,74994,0
2320,107659,74977,0
2320,107659,74977,0
2352,107659,74977,0
2358,107659,74977,0
2330,107659,74977,0
2373,107659,74977,0
2340,107659,74977,0
2554,107717,74947,0
2352,107717,74947,0
2348,107717,74947,0
2354,107717,74947,0
2338,107717,74947,0
2288,107699,74932,0
2304,107686,74950,0
2352,107664,74974,0
2341,107621,74962,0
2314,107677,74931,0
2345,107668,74989,0
2312,107693,74945,0
2342,107665,74971,0
2338,107688,74949,0
2340,107657,74920,0
2342,107615,74985,0
2325,107705,74945,0
2380,107675,74993,0
2336,107709,74951,0
2336,107650,74946,0
2340,107635,74977,0
2353,107697,74953,0
2344,107669,74998,0
2348,107702,74958,0
2344,107680,74978,0
2353,107676,74977,0
2344,107675,74901,0
2336,107643,74999,0
2338,107727,74959,0
2316,107668,74980,0
2304,107705,74959,0
2277,107650,74935,0
2284,107722,74974,0
2288,107675,74959,0
2276,107675,74959,0
2274,107675,74959,0
2276,107675,74959,0
2281,107675,74959,0
2281,107675,74959,0
2296,107674,74948,0
2360,107674,74948,0
2292,107674,74948,0
2296,107674,74948,0
2280,107674,74948,0
2296,107674,74948,0
2288,107674,74948,0
2290,107674,74967,0
2296,107670,74973,0
2293,107670,74973,0
2280,107670,74973,0
2312,107670,74973,0
2298,107670,74973,0
2308,107670,74973,0
2304,107670,74973,0
2312,107679,75005,0
2356,107679,75005,0
2360,107679,75005,0
2316,107679,75005,0
2362,107679,75005,0
2362,107679,75005,0
2376,107679,75005,0
2368,107711,74978,0
2380,107711,74978,0
2380,107711,74978,0
2330,107708,74992,0
2321,107718,74984,0
2360,107671,74991,0
2368,107636,74984,0
2369,107695,74959,0
2346,107643,75023,0
2356,107710,74976,0
2362,107670,75010,0
2346,107654,74983,0
2340,107678,74941,0
2328,107653,75027,0
2320,107701,74988,0
2328,107676,75001,0
2320,107696,74984,0
2322,107655,74973,0
2360,107620,75009,0
2320,107698,74975,0
2316,107661,75017,0
2328,107716,74972,0
2324,107647,75013,0
2321,107668,74976,0
2320,107656,74946,0
2322,107675,75043,0
2332,107697,74990,0
2329,107656,75023,0
2320,107702,74986,0
2276,107666,74929,0
2292,107666,74978,0
2302,107666,74978,0
2308,107666,74998,0
2304,107666,75021,0
2308,107666,75021,0
2308,107666,75021,0
2316,107666,75021,0
2324,107666,75021,0
2328,107666,75021,0
2334,107666,74997,0
2332,107647,75010,0
2332,107647,75010,0
2368,107647,75010,0
2340,107647,75010,0
2329,107647,75010,0
2320,107647,75010,0
2316,107647,75010,0
2308,107676,74989,0
2328,107676,74989,0
2324,107676,74989,0
2324,107676,74989,0
2320,107676,74989,0
2310,107676,74989,0
2360,107676,74989,0
2340,107670,75023,0
2332,107670,75023,0
2338,107670,75023,0
2344,107670,75023,0
2356,107670,75023,0
2368,107670,75023,0
2344,107670,75023,0
2358,107670,75023,0
2144,107703,75003,0
2310,107651,75005,0
2313,107693,74983,0
2316,107675,74957,0
2312,107662,75049,0
2309,107706,74984,0
2302,107685,75030,0
2308,107694,74980,0
2298,107674,74958,0
2296,107634,75020,0
2305,107717,75002,0
2314,107661,75027,0
2326,107695,75000,0
2308,107674,75006,0
2316,107620,75006,0
2320,107701,74992,0
2312,107679,75028,0
2304,107701,74995,0
2306,107671,75041,0
2318,107659,74996,0
2320,107686,74983,0
2321,107672,75054,0
2314,107727,74996,0
2352,107675,75041,0
2312,107706,75017,0
2312,107685,74966,0
2296,107644,75046,0
2296,107732,75006,0
2288,107679,75052,0
2308,107711,75013,0
2322,107701,75015,0
2322,107647,75015,0
2144,107694,75096,0
2310,107765,75043,0
2348,107696,75059,0
2305,107709,75060,0
2345,107745,75041,0
2308,107702,75082,0
2312,107723,75056,0
2308,107699,75013,0
2316,107700,75090,0
2312,107741,75044,0
2317,107715,75079,0
2317,107734,75056,0
2324,107714,74990,0
2320,107682,75104,0
2328,107765,75050,0
2338,107716,75069,0
2328,107743,75055,0
2328,107703,75031,0
2336,107666,75076,0
2312,107770,75063,0
2336,107712,75102,0
2328,107749,75064,0
2320,107709,75089,0
2320,107681,75066,0
2313,107744,75055,0
2312,107724,75101,0
2297,107766,75064,0
2234,107725,75043,0
2240,107725,75043,0
2236,107725,75043,0
2244,107725,75043,0
2272,107725,75043,0
2228,107725,75106,0
2266,107689,75078,0
2280,107689,75078,0
2288,107689,75078,0
2308,107689,75078,0
2330,107689,75078,0
2344,107689,75078,0
2392,107689,75111,0
2394,107723,75046,0
2436,107723,75046,0
2484,107723,75046,0
2520,107723,75046,0
2608,107723,75046,0
2594,107723,75046,0
2788,107723,75046,0
2680,107708,75082,0
2752,107708,75082,0
2880,107708,75082,0
2864,107708,75082,0
2880,107708,75082,0
2966,107708,75082,0
2956,107708,75082,0
3236,107720,75064,0
3020,107720,75064,0
3016,107720,75064,0
2988,107720,75064,0
2994,107720,75064,0
2912,107754,75163,0
2044,107724,75128,0
2068,107811,75121,0
2088,107756,75151,0
2090,107768,75129,0
2096,107739,75081,0
2096,107738,75175,0
2112,107786,75147,0
2100,107751,75166,0
2112,107780,75109,0
2120,107755,75095,0
2122,107721,75171,0
2140,107788,75135,0
2146,107738,75160,0
2156,107787,75125,0
2162,107745,75145,0
2165,107724,75148,0
2169,107779,75134,0
2176,107751,75182,0
2192,107790,75149,0
2192,107752,75131,0
2186,107715,75151,0
2192,107800,75148,0
2180,107751,75203,0
2180,107780,75156,0
2164,107755,75182,0
2140,107725,75136,0
2184,107727,75199,0
2224,107761,75150,0
2197,107761,75150,0
2208,107761,75150,0
2214,107761,75150,0
2214,107761,75150,0
2212,107761,75150,0
2220,107761,75198,0
2226,107787,75163,0
2216,107787,75163,0
2364,107787,75163,0
2229,107787,75163,0
2256,107787,75163,0
2250,107787,75163,0
2252,107787,75163,0
2252,107772,75158,0
2266,107772,75158,0
2272,107772,75158,0
2284,107772,75158,0
2282,107772,75158,0
2302,107772,75158,0
2304,107772,75158,0
2298,107788,75193,0
2357,107788,75193,0
2324,107788,75193,0
2328,107788,75193,0
2340,107788,75193,0
2336,107788,75193,0
2352,107788,75193,0
2348,107788,75183,0
2344,107765,75151,0
2340,107765,75151,0
2289,107841,75242,0
2328,107874,75257,0
2360,107812,75284,0
2360,107826,75242,0
2360,107824,75195,0
2356,107806,75316,0
2356,107856,75256,0
2364,107813,75270,0
2332,107845,75220,0
2344,107795,75209,0
2348,107770,75291,0
2354,107870,75256,0
2329,107822,75289,0
2340,107835,75245,0
2336,107817,75232,0
2348,107766,75283,0
2336,107852,75255,0
2336,107829,75296,0
2328,107837,75258,0
2336,107816,75243,0
2330,107765,75267,0
2320,107843,75263,0
2328,107814,75306,0
2336,107840,75269,0
2328,107816,75256,0
2320,107771,75298,0
2272,107846,75278,0
2268,107834,75268,0
2132,107834,75268,0
2276,107834,75235,0
2280,107796,75304,0
2284,107796,75304,0
2289,107796,75304,0
2282,107796,75304,0
2290,107796,75304,0
2306,107796,75304,0
2316,107796,75304,0
2308,107830,75298,0
2308,107830,75298,0
2322,107830,75298,0
2278,107830,75298,0
2316,107830,75298,0
2312,107830,75298,0
2324,107830,75298,0
2312,107856,75271,0
2312,107856,75271,0
2316,107856,75271,0
2316,107856,75271,0
2320,107856,75271,0
2336,107856,75271,0
2368,107856,75271,0
2353,107856,75260,0
2356,107813,75339,0
2348,107813,75339,0
2364,107813,75339,0
2384,107813,75339,0
2376,107813,75339,0
2372,107813,75339,0
2372,107813,75339,0
2304,107690,75163,0
2292,107825,75246,0
2296,107801,75297,0
2370,107839,75261,0
2308,107804,75280,0
2301,107803,75248,0
2292,107797,75205,0
2288,107800,75279,0
2292,107835,75245,0
2288,107794,75268,0
2286,107810,75245,0
2280,107789,75191,0
2314,107780,75291,0
2292,107821,75245,0
2312,107778,75252,0
2308,107785,75230,0
2308,107774,75182,0
2328,107766,75289,0
2313,107815,75219,0
2296,107765,75234,0
2316,107801,75195,0
2300,107758,75156,0
2328,107747,75244,0
2352,107803,75183,0
2328,107750,75225,0
2338,107780,75179,0
2329,107739,75148,0
2336,107714,75212,0
2312,107801,75196,0
2352,107737,75197,0
2394,107766,75171,0
2360,107748,75181,0
2304,107701,75050,0
2292,107674,75071,0
2320,107691,75060,0
2344,107650,75060,0
2280,107658,75018,0
2288,107633,75078,0
2328,107706,75048,0
2304,107667,75081,0
2320,107691,75038,0
2306,107638,75059,0
2324,107606,75039,0
2304,107673,75035,0
2304,107642,75082,0
2304,107690,75038,0
2304,107655,75065,0
2304,107592,75045,0
2292,107643,75010,0
2290,107633,75070,0
2272,107670,75023,0
2268,107632,75060,0
2260,107609,75034,0
2280,107639,75013,0
2268,107645,75067,0
2272,107663,75023,0
2276,107610,75050,0
2256,107607,75029,0
2260,107639,74987,0
2260,107595,75006,0
2274,107595,75006,0
2240,107595,75006,0
2224,107595,75006,0
2226,107595,75006,0
2240,107595,75013,0
2233,107631,74985,0
2240,107631,74985,0
2240,107631,74985,0
2240,107631,74985,0
2236,107631,74985,0
2240,107631,74985,0
2260,107631,74985,0
2248,107638,74999,0
2260,107638,74999,0
2264,107638,74999,0
2290,107638,74999,0
2266,107638,74999,0
2266,107638,74999,0
2272,107638,74999,0
2292,107638,75000,0
2280,107594,75067,0
2336,107594,75067,0
2364,107594,75067,0
2308,107594,75067,0
2361,107594,75067,0
2314,107594,75067,0
2472,107594,75002,0
2304,107680,75019,0
2324,107680,75019,0
2322,107680,75019,0
2321,107680,75019,0
2282,107680,75007,0
2298,107670,74982,0
2328,107620,75056,0
2328,107658,75003,0
2312,107631,75038,0
2322,107643,75031,0
2322,107625,74975,0
2324,107628,75071,0
2332,107682,75010,0
2400,107632,75064,0
2320,107650,75035,0
2322,107627,74993,0
2324,107598,75037,0
2324,107663,75017,0
2330,107638,75046,0
2332,107679,75036,0
2320,107618,74999,0
2313,107594,75063,0
2316,107681,75026,0
2304,107660,75057,0
2296,107677,75040,0
2356,107640,75043,0
2352,107600,75029,0
2296,107679,75026,0
2289,107642,75069,0
2264,107680,75026,0
2226,107655,75042,0
2264,107613,75059,0
2268,107639,75043,0
2268,107639,75043,0
2312,107639,75043,0
2264,107639,75043,0
2268,107639,75043,0
2292,107639,75043,0
2274,107639,75043,0
2282,107637,75027,0
2284,107637,75027,0
2284,107637,75027,0
2290,107637,75027,0
2304,107637,75027,0
2296,107637,75027,0
2288,107637,75027,0
2290,107637,75112,0
2296,107650,75045,0
2296,107650,75045,0
2290,107650,75045,0
2290,107650,75045,0
2296,107650,75045,0
2304,107650,75045,0
2288,107650,75051,0
2348,107645,74981,0
2300,107645,74981,0
2320,107645,74981,0
2314,107645,74981,0
2328,107645,74981,0
2336,107645,74981,0
2336,107645,74981,0
2320,107636,75082,0
2324,107636,75082,0
2284,107654,75088,0
2246,107662,75131,0
2336,107654,75078,0
2330,107685,75052,0
2325,107660,75119,0
2328,107709,75082,0
2314,107675,75112,0
2320,107653,75088,0
2306,107683,75068,0
2293,107656,75127,0
2304,107711,75082,0
2304,107661,75099,0
2304,107669,75082,0
2300,107661,75035,0
2304,107660,75151,0
2292,107700,75085,0
2308,107663,75123,0
2308,107688,75086,0
2296,107679,75048,0
2300,107652,75129,0
2294,107704,75089,0
2304,107650,75140,0
2297,107678,75070,0
2292,107666,75058,0
2290,107667,75147,0
2262,107722,75091,0
2232,107668,75106,0
2240,107667,75091,0
2232,107667,75091,0
2240,107667,75091,0
2232,107661,75106,0
2237,107661,75106,0
2236,107661,75106,0
2233,107661,75106,0
2234,107661,75106,0
2236,107661,75106,0
2244,107661,75106,0
2240,107661,75094,0
2244,107674,75082,0
2272,107674,75082,0
2248,107674,75082,0
2256,107674,75082,0
2256,107674,75082,0
2257,107674,75082,0
2260,107674,75062,0
2270,107668,75082,0
2268,107668,75082,0
2280,107668,75082,0
2280,107668,75082,0
2284,107668,75082,0
2348,107668,75082,0
2324,107668,75082,0
2316,107696,75128,0
2332,107696,75128,0
2328,107696,75128,0
2368,107696,75128,0
2361,107696,75128,0
2376,107696,75128,0
2368,107696,75128,0
2304,107674,75107,0
2312,107700,75085,0
2336,107682,75076,0
2324,107632,75129,0
2370,107722,75116,0
2368,107670,75151,0
2332,107707,75108,0
2342,107684,75089,0
2316,107631,75128,0
2362,107711,75101,0
2312,107676,75144,0
2310,107713,75118,0
2330,107680,75111,0
2300,107644,75103,0
2305,107697,75113,0
2300,107681,75150,0
2305,107727,75121,0
2312,107696,75123,0
2304,107644,75121,0
2356,107723,75104,0
2308,107694,75146,0
2300,107705,75131,0
2304,107690,75137,0
2361,107650,75119,0
2336,107697,75107,0
2284,107693,75157,0
2296,107710,75116,0
2280,107673,75123,0
2336,107638,75123,0
2306,107711,75102,0
2297,107672,75162,0
2356,107714,75117,0
2304,107702,75122,0
2312,107660,75172,0
2344,107758,75116,0
2270,107704,75088,0
2266,107708,75189,0
2272,107749,75156,0
2296,107705,75175,0
2298,107728,75135,0
2344,107694,75113,0
2304,107665,75186,0
2304,107749,75135,0
2312,107716,75179,0
2360,107737,75148,0
2324,107718,75122,0
2312,107677,75198,0
2330,107748,75150,0
2328,107713,75183,0
2380,107738,75147,0
2316,107710,75134,0
2325,107655,75164,0
2320,107773,75158,0
2317,107724,75182,0
2308,107755,75165,0
2304,107719,75166,0
2304,107675,75182,0
2312,107748,75143,0
2304,107727,75208,0
2268,107755,75154,0
2277,107755,75154,0
2272,107755,75154,0
2264,107755,75154,0
2280,107755,75154,0
2265,107755,75154,0
2270,107748,75199,0
2300,107748,75199,0
2260,107748,75199,0
2260,107748,75199,0
2260,107748,75199,0
2252,107748,75199,0
2276,107748,75199,0
2274,107748,75195,0
2208,107732,75136,0
2276,107732,75136,0
2276,107732,75136,0
2288,107732,75136,0
2262,107732,75136,0
2288,107732,75136,0
2416,107732,75136,0
2268,107744,75119,0
2336,107744,75119,0
2336,107744,75119,0
2320,107744,75119,0
2370,107744,75119,0
2320,107744,75119,0
2522,107744,75119,0
2328,107711,75217,0
2376,107711,75217,0
2316,107711,75217,0
2756,107738,75210,0
2281,107707,75218,0
2260,107748,75189,0
2264,107702,75247,0
2268,107785,75205,0
2260,107726,75234,0
2308,107747,75179,0
2300,107748,75168,0
2218,107729,75260,0
2232,107777,75212,0
2226,107742,75224,0
2228,107691,75220,0
2248,107779,75188,0
2240,107747,75228,0
2233,107788,75211,0
2260,107748,75253,0
2256,107733,75220,0
2278,107761,75195,0
2364,107754,75262,0
2360,107776,75211,0
2325,107768,75255,0
2392,107766,75210,0
2426,107757,75176,0
2424,107749,75262,0
2436,107806,75214,0
2466,107752,75248,0
2506,107777,75213,0
2546,107774,75204,0
2588,107761,75273,0
2642,107806,75230,0
2729,107760,75248,0
2728,107765,75243,0
2756,107783,75310,0
2772,107815,75256,0
2138,107801,75288,0
2100,107788,75271,0
2090,107788,75270,0
2088,107736,75286,0
2084,107806,75256,0
2076,107781,75302,0
2072,107819,75266,0
2072,107787,75249,0
2072,107738,75287,0
2050,107821,75275,0
2042,107782,75306,0
2040,107822,75275,0
2035,107791,75272,0
2038,107738,75289,0
2040,107841,75252,0
2050,107772,75302,0
2032,107838,75282,0
2038,107780,75266,0
2026,107726,75298,0
2048,107806,75261,0
2066,107787,75330,0
2066,107817,75287,0
2061,107807,75297,0
2064,107733,75284,0
2072,107829,75293,0
2114,107778,75304,0
2120,107778,75304,0
2152,107793,75346,0
2132,107793,75346,0
2145,107793,75346,0
2154,107793,75346,0
2152,107793,75346,0
2172,107793,75346,0
2192,107793,75346,0
2200,107793,75343,0
2200,107786,75291,0
2208,107786,75291,0
2216,107786,75291,0
2224,107786,75291,0
2232,107786,75291,0
2240,107786,75291,0
2242,107786,75330,0
2248,107811,75298,0
2256,107811,75298,0
2250,107811,75298,0
2256,107811,75298,0
2264,107811,75298,0
2260,107811,75298,0
2297,107811,75298,0
2278,107748,75289,0
2344,107748,75289,0
2330,107748,75289,0
2280,107748,75289,0
2328,107748,75289,0
2332,107748,75289,0
2330,107748,75289,0
2336,107748,75363,0
2320,107821,75361,0
2340,107872,75331,0
2432,107811,75359,0
2280,107819,75322,0
2324,107812,75275,0
2285,107773,75370,0
2280,107861,75329,0
2268,107804,75365,0
2269,107849,75325,0
2276,107813,75319,0
2284,107778,75354,0
2272,107843,75336,0
2328,107816,75367,0
2274,107850,75322,0
2274,107819,75305,0
2282,107789,75345,0
2284,107863,75359,0
2288,107833,75369,0
2288,107835,75339,0
2301,107819,75343,0
2350,107776,75383,0
2296,107847,75343,0
2320,107815,75376,0
2337,107846,75344,0
2308,107797,75351,0
2316,107776,75384,0
2313,107851,75351,0
2318,107829,75375,0
2320,107860,75358,0
2352,107817,75318,0
2352,107796,75375,0
2352,107882,75353,0
2320,107854,75393,0
2340,107804,75400,0
2320,107881,75389,0
2328,107888,75381,0
2326,107861,75444,0
2320,107907,75402,0
2356,107875,75435,0
2352,107828,75400,0
2352,107875,75386,0
2344,107870,75457,0
2400,107896,75394,0
2352,107864,75420,0
2348,107825,75418,0
2352,107888,75401,0
2352,107868,75443,0
2361,107882,75413,0
2352,107859,75411,0
2353,107810,75430,0
2360,107913,75391,0
2342,107861,75436,0
2348,107907,75407,0
2348,107871,75404,0
2348,107823,75441,0
2341,107918,75407,0
2332,107861,75443,0
2321,107890,75401,0
2316,107857,75378,0
2288,107870,75445,0
2292,107870,75445,0
2296,107870,75445,0
2296,107870,75445,0
2300,107870,75445,0
2302,107870,75317,0
2317,107871,75401,0
2300,107871,75401,0
2312,107871,75401,0
2368,107871,75401,0
2330,107871,75401,0
2338,107871,75401,0
2368,107871,75324,0
2340,107851,75399,0
2352,107851,75399,0
2356,107851,75399,0
2349,107851,75399,0
2354,107851,75399,0
2356,107851,75399,0
2420,107851,75399,0
2364,107876,75401,0
2366,107876,75401,0
2404,107876,75401,0
2406,107876,75401,0
2368,107876,75401,0
2420,107876,75401,0
2386,107876,75401,0
2552,107857,75427,0
2404,107857,75427,0
2404,107857,75427,0
2392,107857,75427,0
2392,107857,75427,0
2338,107790,75185,0
2360,107772,75182,0
2384,107729,75193,0
2374,107708,75159,0
2380,107742,75139,0
2388,107709,75197,0
2368,107733,75156,0
2362,107727,75191,0
2348,107715,75141,0
2348,107691,75117,0
2344,107701,75185,0
2336,107739,75137,0
2322,107700,75169,0
2329,107724,75139,0
2328,107721,75108,0
2328,107669,75155,0
2328,107737,75128,0
2326,107690,75168,0
2328,107706,75121,0
2338,107676,75073,0
2322,107679,75152,0
2326,107727,75108,0
2320,107678,75129,0
2325,107703,75092,0
2328,107672,75072,0
2312,107645,75159,0
2274,107726,75083,0
2281,107684,75067,0
2298,107668,75104,0
2297,107668,75104,0
2300,107668,75104,0
2300,107668,75104,0
2296,107668,75104,0
2302,107668,75104,0
2316,107668,75087,0
2306,107693,75087,0
2306,107693,75087,0
2376,107693,75087,0
2308,107693,75087,0
2368,107693,75087,0
2308,107693,75087,0
2314,107693,75087,0
2313,107691,75106,0
2314,107691,75106,0
2312,107691,75106,0
2320,107691,75106,0
2320,107691,75106,0
2344,107691,75106,0
2324,107691,75106,0
2330,107691,75044,0
2376,107650,75078,0
2368,107650,75078,0
2374,107650,75078,0
2356,107650,75078,0
2376,107650,75078,0
2404,107650,75078,0
2400,107650,75000,0
2412,107672,75116,0
2408,107672,75116,0
2372,107566,75035,0
2348,107546,75007,0
2378,107632,74986,0
2374,107591,75035,0
2368,107613,75010,0
2376,107601,75042,0
2368,107557,75007,0
2360,107617,74964,0
2360,107581,75074,0
2360,107626,75011,0
2354,107601,75042,0
2348,107563,75017,0
2353,107613,75012,0
2352,107596,75036,0
2340,107619,75012,0
2354,107576,75037,0
2328,107569,75003,0
2322,107604,74975,0
2328,107588,75044,0
2328,107608,74996,0
2328,107579,75018,0
2328,107574,75013,0
2330,107588,74965,0
2330,107574,75028,0
2324,107614,75014,0
2320,107573,75009,0
2272,107563,75000,0
2278,107642,74988,0
2280,107642,74988,0
2288,107642,74988,0
2292,107541,74986,0
2302,107541,74986,0
2290,107541,74986,0
2296,107541,74986,0
2300,107541,74986,0
2312,107541,74986,0
2320,107541,74986,0
2324,107576,74971,0
2325,107576,74971,0
2352,107576,74971,0
2352,107576,74971,0
2336,107576,74971,0
2308,107576,74971,0
2360,107576,74971,0
2320,107576,75010,0
2329,107573,75008,0
2328,107573,75008,0
2334,107573,75008,0
2332,107573,75008,0
2336,107573,75008,0
2361,107573,75008,0
2356,107573,75039,0
2360,107552,75015,0
2372,107552,75015,0
2344,107552,75015,0
2400,107552,75015,0
2384,107552,75015,0
2400,107552,75015,0
2389,107552,75015,0
2320,107534,75060,0
2322,107583,75025,0
2354,107553,75024,0
2352,107606,75000,0
2362,107581,75052,0
2348,107614,75011,0
2348,107589,75042,0
2344,107533,75033,0
2340,107620,75009,0
2365,107580,75051,0
2344,107604,75012,0
2344,107588,75048,0
2346,107541,75020,0
2348,107612,75020,0
2344,107583,75061,0
2352,107627,75023,0
2340,107574,75023,0
2348,107550,75022,0
2390,107626,75002,0
2384,107581,75040,0
2336,107608,75004,0
2320,107578,75020,0
2338,107529,75028,0
2352,107624,75012,0
2332,107589,75064,0
2322,107610,75040,0
2336,107596,75016,0
2328,107537,75044,0
2332,107629,75003,0
2344,107587,75049,0
2363,107635,75024,0
2364,107583,75007,0
2320,107592,75067,0
2322,107629,75044,0
2344,107591,75070,0
2326,107566,75065,0
2336,107617,75052,0
2320,107587,75029,0
2368,107558,75074,0
2378,107649,75057,0
2424,107599,75076,0
2368,107617,75046,0
2368,107593,74999,0
2370,107566,75084,0
2368,107650,75052,0
2364,107598,75062,0
2360,107624,75037,0
2376,107593,75009,0
2356,107560,75079,0
2360,107650,75053,0
2368,107601,75074,0
2370,107604,75033,0
2368,107589,75013,0
2352,107583,75090,0
2356,107628,75061,0
2336,107598,75078,0
2324,107632,75052,0
2336,107602,75018,0
2372,107590,75089,0
2310,107582,75032,0
2296,107582,75032,0
2296,107582,75032,0
2296,107582,75032,0
2302,107582,75032,0
2328,107582,75032,0
2309,107611,75034,0
2316,107611,75034,0
2320,107611,75034,0
2322,107611,75034,0
2332,107611,75034,0
2336,107611,75034,0
2360,107611,75034,0
2360,107618,75053,0
2368,107618,75053,0
2389,107618,75053,0
2380,107618,75053,0
2388,107618,75053,0
2388,107618,75053,0
2432,107618,75053,0
2393,107618,75085,0
2538,107604,75068,0
2440,107604,75068,0
2432,107604,75068,0
2424,107604,75068,0
2456,107604,75068,0
2422,107604,75068,0
2577,107604,75068,0
2416,107588,75086,0
2408,107588,75086,0
2404,107588,75086,0
2392,107588,75086,0
2356,107619,75077,0
2364,107611,75086,0
2404,107622,75050,0
2400,107614,75118,0
2396,107663,75087,0
2396,107609,75100,0
2400,107658,75082,0
2354,107628,75044,0
2372,107625,75128,0
2360,107683,75094,0
2368,107633,75100,0
2352,107661,75087,0
2364,107635,75060,0
2360,107608,75142,0
2352,107686,75089,0
2357,107618,75116,0
2349,107685,75096,0
2345,107622,75050,0
2344,107600,75140,0
2336,107695,75103,0
2352,107641,75130,0
2328,107659,75083,0
2328,107636,75055,0
2329,107631,75140,0
2322,107697,75106,0
2304,107642,75115,0
2280,107639,75086,0
2332,107651,75106,0
2332,107664,75125,0
2340,107664,75125,0
2372,107664,75125,0
2336,107664,75125,0
2349,107664,75125,0
2370,107664,75125,0
2370,107664,75125,0
2352,107650,75151,0
2360,107650,75151,0
2370,107650,75151,0
2374,107650,75151,0
2384,107650,75151,0
2364,107650,75151,0
2374,107650,75151,0
2368,107650,75144,0
2372,107676,75117,0
2376,107676,75117,0
2372,107676,75117,0
2381,107676,75117,0
2370,107676,75117,0
2384,107676,75117,0
2384,107676,75117,0
2438,107681,75095,0
2390,107681,75095,0
2442,107681,75095,0
2408,107681,75095,0
2432,107681,75095,0
2420,107681,75095,0
2412,107681,75095,0
2408,107657,75087,0
2400,107657,75087,0
2360,107680,75196,0
2420,107688,75170,0
2452,107639,75166,0
2476,107723,75155,0
2501,107677,75210,0
2528,107726,75173,0
2568,107685,75167,0
2600,107633,75204,0
2632,107738,75161,0
2676,107684,75194,0
2716,107706,75169,0
2752,107683,75149,0
2780,107638,75218,0
2808,107746,75168,0
2874,107693,75213,0
2952,107732,75188,0
2940,107685,75138,0
2992,107667,75211,0
3012,107762,75175,0
3036,107692,75214,0
3052,107729,75191,0
3056,107707,75164,0
3040,107669,75213,0
3024,107729,75204,0
2996,107695,75208,0
2904,107733,75176,0
2836,107694,75155,0
2492,107674,75204,0
2426,107674,75204,0
2376,107674,75204,0
2200,107674,75226,0
2280,107710,75208,0
2237,107710,75208,0
2216,107710,75208,0
2192,107710,75208,0
2177,107710,75208,0
2168,107710,75208,0
2154,107710,75214,0
2136,107654,75178,0
2144,107654,75178,0
2162,107654,75178,0
2112,107654,75178,0
2106,107654,75178,0
2112,107654,75178,0
2112,107654,75178,0
2098,107685,75210,0
2098,107685,75210,0
2106,107685,75210,0
2112,107685,75210,0
2096,107685,75210,0
2167,107685,75210,0
2288,107685,75210,0
2164,107710,75236,0
2164,107710,75236,0
2160,107710,75236,0
2194,107710,75236,0
2208,107710,75236,0
2216,107710,75236,0
2192,107710,75236,0
2192,107712,75246,0
2348,107673,75297,0
2384,107664,75278,0
2376,107781,75267,0
2380,107745,75286,0
2388,107767,75276,0
2385,107721,75247,0
2372,107679,75312,0
2376,107769,75267,0
2368,107734,75287,0
2356,107768,75284,0
2358,107736,75229,0
2344,107714,75309,0
2336,107788,75283,0
2330,107735,75301,0
2330,107774,75267,0
2328,107735,75247,0
2316,107698,75310,0
2322,107785,75280,0
2322,107736,75315,0
2314,107767,75281,0
2326,107725,75262,0
2321,107705,75331,0
2308,107792,75287,0
2310,107744,75317,0
2304,107784,75283,0
2264,107743,75251,0
2310,107678,75294,0
2280,107768,75372,0
2276,107732,75298,0
2324,107732,75298,0
2288,107732,75298,0
2293,107732,75298,0
2280,107732,75298,0
2294,107732,75346,0
2304,107780,75298,0
2312,107780,75298,0
2316,107780,75298,0
2332,107780,75298,0
2336,107780,75298,0
2352,107780,75298,0
2337,107780,75351,0
2340,107745,75323,0
2360,107745,75323,0
2348,107745,75323,0
2392,107745,75323,0
2354,107745,75323,0
2368,107745,75323,0
2289,107745,75323,0
2348,107749,75269,0
2349,107749,75269,0
2368,107749,75269,0
2376,107749,75269,0
2376,107749,75269,0
2392,107749,75269,0
2388,107749,75269,0
2400,107743,75346,0
2420,107743,75346,0
2426,107743,75346,0
2416,107743,75346,0
2380,107793,75336,0
2385,107726,75345,0
2376,107800,75327,0
2380,107790,75379,0
2372,107819,75326,0
2376,107786,75346,0
2360,107732,75357,0
2368,107810,75341,0
2368,107775,75384,0
2360,107809,75358,0
2358,107790,75335,0
2352,107739,75381,0
2368,107848,75370,0
2346,107786,75390,0
2377,107822,75354,0
2346,107792,75312,0
2348,107776,75374,0
2346,107837,75362,0
2344,107775,75406,0
2360,107815,75342,0
2360,107781,75325,0
2361,107774,75404,0
2356,107838,75374,0
2386,107779,75398,0
2369,107828,75360,0
2376,107803,75321,0
2377,107782,75406,0
2377,107823,75362,0
2376,107789,75396,0
2400,107814,75364,0
2412,107807,75327,0
2452,107771,75415,0
2380,107781,75278,0
2385,107747,75237,0
2380,107706,75253,0
2376,107743,75232,0
2402,107723,75314,0
2400,107769,75269,0
2394,107722,75318,0
2394,107726,75259,0
2394,107736,75246,0
2393,107709,75305,0
2396,107771,75259,0
2388,107715,75271,0
2385,107679,75237,0
2384,107723,75215,0
2393,107727,75298,0
2400,107739,75245,0
2392,107689,75253,0
2392,107665,75222,0
2384,107712,75196,0
2388,107685,75252,0
2390,107724,75194,0
2372,107671,75218,0
2358,107618,75206,0
2328,107712,75185,0
2360,107670,75222,0
2362,107720,75197,0
2332,107688,75199,0
2324,107688,75087,0
2336,107700,75198,0
2336,107700,75198,0
2336,107700,75198,0
2328,107700,75198,0
2340,107700,75198,0
2348,107700,75198,0
2344,107700,75198,0
2336,107697,75196,0
2340,107697,75196,0
2336,107697,75196,0
2344,107697,75196,0
2336,107697,75196,0
2336,107697,75196,0
2344,107697,75196,0
2340,107653,75148,0
2346,107653,75148,0
2344,107653,75148,0
2356,107653,75148,0
2346,107653,75148,0
2352,107653,75148,0
2441,107653,75148,0
2400,107653,75036,0
2392,107655,75189,0
2436,107655,75189,0
2392,107655,75189,0
2548,107655,75189,0
2392,107655,75189,0
2396,107655,75189,0
2396,107655,75076,0
2386,107690,75163,0
2348,107598,75038,0
2356,107570,74989,0
2436,107555,75067,0
2444,107603,75011,0
2400,107555,75042,0
2389,107535,75019,0
2378,107585,75004,0
2376,107562,75063,0
2400,107614,75027,0
2364,107547,75007,0
2360,107522,75042,0
2402,107606,75007,0
2337,107571,75042,0
2344,107577,75011,0
2402,107565,74988,0
2344,107542,75053,0
2332,107622,75025,0
2336,107552,75055,0
2332,107587,75032,0
2336,107555,74981,0
2336,107513,75068,0
2320,107623,75035,0
2324,107579,75036,0
2304,107598,75031,0
2380,107563,74979,0
2288,107536,75070,0
2240,107620,75016,0
2280,107595,75032,0
2284,107595,75032,0
2292,107595,75032,0
2288,107595,75032,0
2276,107554,74980,0
2304,107554,74980,0
2306,107554,74980,0
2294,107554,74980,0
2284,107554,74980,0
2364,107554,74980,0
2304,107554,74980,0
2312,107584,75003,0
2336,107584,75003,0
2314,107584,75003,0
2316,107584,75003,0
2328,107584,75003,0
2328,107584,75003,0
2330,107584,75003,0
2320,107584,75010,0
2322,107554,75029,0
2324,107554,75029,0
2340,107554,75029,0
2336,107554,75029,0
2376,107554,75029,0
2360,107554,75029,0
2364,107554,75034,0
2378,107602,75034,0
2384,107602,75034,0
2458,107602,75034,0
2392,107602,75034,0
2404,107602,75034,0
2464,107602,75034,0
2400,107533,75085,0
2316,107635,75097,0
2373,107574,75009,0
2360,107563,75087,0
2424,107613,75050,0
2354,107572,75076,0
2360,107616,75035,0
2368,107565,75000,0
2404,107571,75087,0
2372,107621,75049,0
2418,107568,75080,0
2408,107569,75053,0
2418,107599,75039,0
2352,107582,75096,0
2368,107612,75055,0
2392,107585,75058,0
2330,107540,75045,0
2320,107602,75035,0
2317,107592,75090,0
2320,107618,75056,0
2328,107579,75058,0
2329,107532,75064,0
2340,107626,75046,0
2330,107587,75074,0
2336,107628,75048,0
2314,107583,75009,0
2288,107565,75088,0
2332,107627,75065,0
2328,107595,75064,0
2300,107564,75059,0
2300,107564,75059,0
2312,107564,75059,0
2302,107564,75059,0
2308,107564,75059,0
2312,107564,75059,0
2320,107577,75048,0
2328,107577,75048,0
2336,107577,75048,0
2340,107577,75048,0
2344,107577,75048,0
2372,107577,75048,0
2344,107577,75048,0
2361,107576,75039,0
2388,107576,75039,0
2340,107576,75039,0
2376,107576,75039,0
2348,107576,75039,0
2340,107576,75039,0
2328,107576,75039,0
2316,107576,75031,0
2348,107599,75086,0
2362,107599,75086,0
2336,107599,75086,0
2320,107599,75086,0
2352,107599,75086,0
2350,107599,75086,0
2404,107599,75092,0
2376,107611,75062,0
2374,107611,75062,0
2372,107611,75062,0
2328,107572,75103,0
2328,107550,75087,0
2324,107638,75069,0
2324,107585,75113,0
2368,107621,75087,0
2324,107594,75079,0
2320,107547,75070,0
2324,107639,75078,0
2328,107584,75123,0
2312,107627,75076,0
2320,107584,75013,0
2326,107548,75120,0
2328,107631,75087,0
2330,107578,75093,0
2372,107628,75069,0
2304,107600,75042,0
2442,107582,75143,0
2328,107624,75076,0
2376,107604,75114,0
2324,107574,75086,0
2336,107603,75082,0
2330,107592,75110,0
2332,107626,75084,0
2356,107599,75082,0
2328,107539,75106,0
2316,107623,75079,0
2324,107600,75129,0
2312,107627,75082,0
2314,107590,75048,0
2320,107561,75119,0
2336,107636,75077,0
2316,107588,75109,0
2328,107573,75064,0
2328,107545,75111,0
2356,107641,75077,0
2348,107551,75085,0
2372,107620,75071,0
2376,107574,75115,0
2376,107607,75073,0
2384,107591,75046,0
2370,107550,75103,0
2376,107636,75091,0
2376,107587,75103,0
2376,107592,75100,0
2378,107583,75037,0
2374,107572,75120,0
2386,107607,75081,0
2384,107567,75106,0
2368,107584,75065,0
2376,107588,75013,0
2368,107564,75115,0
2357,107625,75078,0
2344,107593,75112,0
2360,107614,75075,0
2348,107574,75038,0
2338,107567,75133,0
2336,107617,75085,0
2349,107578,75100,0
2292,107586,75059,0
2296,107586,75059,0
2301,107588,75092,0
2304,107588,75092,0
2301,107588,75092,0
2312,107588,75092,0
2316,107588,75092,0
2368,107588,75092,0
2300,107588,75092,0
2300,107588,75077,0
2310,107574,75074,0
2300,107574,75074,0
2312,107574,75074,0
2308,107574,75074,0
2312,107574,75074,0
2314,107574,75074,0
2321,107574,75070,0
2321,107590,75089,0
2333,107590,75089,0
2350,107590,75089,0
2356,107590,75089,0
2360,107590,75089,0
2408,107590,75089,0
2410,107590,75089,0
2390,107572,75096,0
2445,107572,75096,0
2396,107572,75096,0
2620,107572,75096,0
2410,107572,75096,0
2409,107572,75096,0
2401,107572,75096,0
2421,107544,75094,0
2380,107618,75115,0
2373,107601,75129,0
2346,107629,75094,0
2336,107606,75041,0
2329,107586,75149,0
2344,107653,75094,0
2344,107589,75118,0
2337,107626,75096,0
2360,107594,75049,0
2340,107595,75137,0
2352,107634,75081,0
2346,107579,75139,0
2360,107640,75095,0
2348,107591,75061,0
2348,107589,75146,0
2346,107639,75107,0
2352,107589,75124,0
2336,107615,75104,0
2346,107604,75077,0
2344,107593,75152,0
2324,107647,75114,0
2338,107593,75125,0
2320,107570,75108,0
2340,107611,75060,0
2330,107597,75134,0
2320,107643,75094,0
2328,107595,75129,0
2357,107600,75087,0
2356,107611,75095,0
2364,107582,75147,0
2370,107655,75078,0
2368,107602,75135,0
2380,107594,75184,0
2373,107687,75157,0
2354,107639,75146,0
2544,107617,75188,0
2584,107679,75148,0
2624,107631,75107,0
2704,107603,75182,0
2756,107680,75152,0
2789,107613,75183,0
2820,107637,75139,0
2880,107635,75105,0
2932,107621,75197,0
2962,107667,75142,0
2984,107627,75184,0
3008,107672,75152,0
3010,107626,75111,0
3024,107599,75199,0
3018,107686,75148,0
3012,107648,75175,0
3072,107650,75137,0
2948,107639,75118,0
2921,107613,75196,0
2865,107687,75161,0
2825,107619,75191,0
2762,107650,75154,0
2720,107623,75124,0
2668,107635,75206,0
2201,107629,75167,0
2161,107629,75167,0
2144,107629,75167,0
2116,107629,75167,0
2096,107629,75167,0
2084,107632,75167,0
2080,107632,75167,0
2064,107632,75167,0
2072,107632,75167,0
2077,107632,75167,0
2076,107632,75167,0
2068,107632,75167,0
2084,107632,75162,0
2076,107634,75193,0
2080,107634,75193,0
2100,107634,75193,0
2100,107634,75193,0
2112,107634,75193,0
2064,107634,75193,0
2113,107634,75193,0
2112,107653,75194,0
2140,107653,75194,0
2156,107653,75194,0
2170,107653,75194,0
2148,107653,75194,0
2217,107653,75194,0
2178,107653,75194,0
2340,107676,75153,0
2196,107676,75153,0
2212,107676,75153,0
2217,107676,75153,0
2224,107676,75153,0
2204,107642,75171,0
2320,107644,75282,0
2340,107608,75194,0
2354,107684,75207,0
2352,107651,75237,0
2360,107680,75202,0
2368,107657,75179,0
2376,107615,75230,0
2380,107715,75208,0
2376,107658,75234,0
2384,107680,75223,0
2368,107652,75164,0
2372,107647,75252,0
2370,107707,75218,0
2360,107639,75254,0
2356,107691,75224,0
2346,107673,75183,0
2341,107618,75252,0
2330,107687,75249,0
2330,107672,75261,0
2320,107687,75233,0
2336,107675,75190,0
2316,107639,75267,0
2321,107721,75221,0
2324,107664,75266,0
2290,107673,75226,0
2280,107678,75197,0
2292,107694,75243,0
2281,107642,75277,0
2292,107642,75277,0
2290,107642,75277,0
2292,107642,75277,0
2293,107642,75277,0
2288,107642,75277,0
2312,107642,75268,0
2298,107682,75243,0
2324,107682,75243,0
2310,107682,75243,0
2312,107682,75243,0
2328,107682,75243,0
2328,107682,75243,0
2332,107682,75243,0
2344,107709,75227,0
2338,107709,75227,0
2368,107709,75227,0
2520,107709,75227,0
2362,107709,75227,0
2418,107709,75227,0
2362,107709,75227,0
2360,107671,75185,0
2402,107671,75185,0
2400,107671,75185,0
2384,107671,75185,0
2378,107671,75185,0
2390,107671,75185,0
2392,107671,75185,0
2400,107671,75259,0
2392,107647,75273,0
2384,107647,75273,0
2348,107743,75276,0
2336,107706,75282,0
2376,107696,75300,0
2368,107722,75273,0
2362,107692,75232,0
2368,107659,75309,0
2368,107740,75278,0
2360,107683,75306,0
2370,107709,75263,0
2368,107691,75224,0
2362,107672,75322,0
2386,107716,75264,0
2364,107656,75287,0
2368,107708,75254,0
2356,107678,75216,0
2346,107661,75296,0
2354,107706,75263,0
2352,107664,75261,0
2352,107690,75236,0
2345,107679,75222,0
2346,107667,75279,0
2352,107690,75243,0
2345,107643,75264,0
2344,107632,75239,0
2348,107659,75221,0
2328,107668,75266,0
2296,107677,75222,0
2340,107667,75228,0
2324,107667,75228,0
2322,107667,75056,0
2322,107646,75230,0
2320,107646,75230,0
2324,107646,75230,0
2320,107646,75230,0
2317,107646,75230,0
2316,107646,75230,0
2200,107646,75230,0
2316,107637,75191,0
2316,107637,75191,0
2344,107637,75191,0
2330,107637,75191,0
2320,107637,75191,0
2322,107637,75191,0
2332,107637,75191,0
2338,107630,75230,0
2344,107630,75230,0
2344,107630,75230,0
2356,107630,75230,0
2364,107630,75230,0
2354,107630,75230,0
2408,107630,75230,0
2384,107630,75125,0
2364,107668,75207,0
2364,107668,75207,0
2387,107668,75207,0
2404,107668,75207,0
2420,107668,75207,0
2404,107668,75207,0
2380,107668,75207,0
2321,107480,74970,0
2174,107596,75073,0
2336,107541,75090,0
2280,107577,75051,0
2336,107549,74988,0
2328,107534,75089,0
2320,107592,75055,0
2328,107538,75092,0
2338,107572,75046,0
2316,107545,75001,0
2320,107525,75082,0
2320,107579,75050,0
2340,107519,75049,0
2368,107488,75026,0
2312,107556,75024,0
2308,107509,75053,0
2292,107564,75028,0
2301,107541,75012,0
2304,107462,75041,0
2308,107551,75008,0
2294,107508,75050,0
2302,107551,74991,0
2300,107523,74972,0
2328,107450,75005,0
2288,107537,74984,0
2308,107493,75014,0
2308,107529,74975,0
2308,107496,74950,0
2309,107445,75008,0
2336,107539,74951,0
2326,107503,75014,0
2336,107532,74979,0
2321,107483,74930,0
2174,107455,74868,0
2316,107433,74968,0
2424,107454,74958,0
2308,107493,74932,0
2316,107450,74947,0
2352,107390,74918,0
2361,107479,74917,0
2362,107443,74942,0
2360,107489,74930,0
2372,107451,74894,0
2360,107393,74966,0
2356,107491,74929,0
2346,107451,74949,0
2328,107483,74925,0
2336,107450,74904,0
2328,107398,74939,0
2324,107487,74909,0
2316,107458,74955,0
2312,107486,74915,0
2308,107451,74887,0
2312,107409,74944,0
2260,107491,74913,0
2282,107456,74950,0
2296,107494,74916,0
2304,107463,74888,0
2304,107420,74959,0
2266,107440,74878,0
2264,107440,74878,0
2276,107440,74878,0
2265,107440,74878,0
2268,107440,74878,0
2257,107440,74878,0
2256,107431,74947,0
2266,107431,74947,0
2260,107431,74947,0
2268,107431,74947,0
2266,107431,74947,0
2280,107431,74947,0
2298,107431,74947,0
2288,107469,74936,0
2285,107469,74936,0
2288,107469,74936,0
2286,107469,74936,0
2304,107469,74936,0
2300,107469,74936,0
2306,107469,74936,0
2328,107469,74936,0
2346,107490,74948,0
2328,107490,74948,0
2336,107490,74948,0
2308,107490,74948,0
2356,107490,74948,0
2312,107490,74948,0
2514,107490,74904,0
2336,107474,74911,0
2332,107474,74911,0
2330,107474,74911,0
2332,107474,74911,0
2296,107495,75012,0
2308,107468,75017,0
2348,107522,74958,0
2338,107480,75009,0
2337,107514,74964,0
2330,107498,74930,0
2336,107441,75011,0
2316,107548,74950,0
2312,107502,75009,0
2320,107496,74976,0
2308,107478,74932,0
2308,107494,75014,0
2316,107536,74958,0
2308,107485,75001,0
2305,107471,74974,0
2308,107481,74916,0
2300,107470,75040,0
2304,107533,74973,0
2284,107482,75015,0
2298,107499,74975,0
2296,107488,74939,0
2304,107481,75013,0
2304,107532,74984,0
2304,107478,74997,0
2304,107460,74994,0
2309,107515,74976,0
2256,107473,75021,0
2288,107518,75007,0
2289,107482,74945,0
2289,107482,74945,0
2280,107482,74945,0
2282,107482,74945,0
2276,107482,74945,0
2265,107482,74945,0
2284,107482,74945,0
2278,107488,74996,0
2288,107488,74996,0
2258,107488,74996,0
2284,107488,74996,0
2304,107488,74996,0
2292,107488,74996,0
2294,107488,74996,0
2296,107488,74989,0
2302,107501,74984,0
2304,107501,74984,0
2308,107501,74984,0
2296,107501,74984,0
2266,107501,74984,0
2322,107501,74984,0
2328,107501,74985,0
2368,107516,74992,0
2396,107516,74992,0
2328,107516,74992,0
2360,107516,74992,0
2323,107516,74992,0
2372,107516,74992,0
2360,107516,74992,0
2357,107478,74975,0
2324,107478,74975,0
2306,107484,75012,0
2301,107504,74996,0
2336,107487,75038,0
2332,107527,75013,0
2332,107480,75013,0
2325,107441,75021,0
2324,107528,74998,0
2316,107494,75032,0
2314,107506,75004,0
2316,107476,74972,0
2308,107449,75022,0
2309,107529,75021,0
2288,107490,75057,0
2320,107536,75016,0
2320,107486,74974,0
2320,107477,75046,0
2314,107523,75035,0
2322,107489,75023,0
2320,107506,75009,0
2320,107485,75006,0
2313,107485,75062,0
2316,107528,75018,0
2308,107493,75054,0
2316,107504,75013,0
2306,107501,74993,0
2288,107485,75051,0
2248,107557,75007,0
2293,107507,75016,0
2300,107507,75016,0
2268,107507,75016,0
2300,107473,75007,0
2288,107473,75007,0
2289,107473,75007,0
2280,107473,75007,0
2289,107473,75007,0
2276,107473,75007,0
2273,107473,75007,0
2272,107473,75027,0
2288,107503,75036,0
2276,107503,75036,0
2272,107503,75036,0
2274,107503,75036,0
2276,107503,75036,0
2288,107503,75036,0
2290,107503,75049,0
2288,107485,75019,0
2300,107485,75019,0
2310,107485,75019,0
2308,107485,75019,0
2304,107485,75019,0
2392,107485,75019,0
2340,107485,75019,0
2336,107475,74994,0
2298,107475,74994,0
2296,107475,74994,0
2336,107475,74994,0
2328,107475,74994,0
2329,107475,74994,0
2330,107475,74994,0
2320,107526,75032,0
2320,107500,74978,0
2284,107485,75067,0
2276,107561,75034,0
2272,107487,75055,0
2265,107519,75015,0
2268,107495,74969,0
2289,107492,75072,0
2274,107549,75023,0
2288,107520,75042,0
2282,107533,75020,0
2274,107505,74982,0
2328,107481,75065,0
2272,107567,75034,0
2272,107511,75060,0
2268,107516,75018,0
2268,107493,74983,0
2272,107502,75084,0
2272,107542,75030,0
2276,107495,75042,0
2277,107489,75037,0
2280,107517,75023,0
2288,107515,75081,0
2304,107547,75043,0
2300,107497,74999,0
2300,107455,75050,0
2304,107559,75037,0
2312,107524,75070,0
2288,107523,75042,0
2312,107510,75027,0
2308,107466,75047,0
2316,107569,75033,0
2320,107534,75086,0
2320,107561,75072,0
2302,107546,75020,0
2332,107533,75088,0
2326,107528,75109,0
2328,107574,75057,0
2368,107528,75058,0
2368,107490,75106,0
2368,107564,75084,0
2354,107549,75081,0
2364,107547,75088,0
2372,107540,75035,0
2352,107517,75109,0
2364,107582,75083,0
2338,107526,75101,0
2320,107563,75064,0
2312,107538,75046,0
2276,107527,75124,0
2336,107578,75081,0
2336,107536,75097,0
2282,107525,75073,0
2280,107554,75066,0
2272,107526,75118,0
2260,107574,75089,0
2264,107526,75095,0
2256,107525,75076,0
2256,107544,75075,0
2296,107569,75082,0
2284,107569,75082,0
2300,107569,75082,0
2316,107569,75082,0
2336,107569,75082,0
2353,107569,75082,0
2380,107569,75086,0
2420,107546,75114,0
2456,107546,75114,0
2484,107546,75114,0
2528,107546,75114,0
2568,107546,75114,0
2626,107546,75114,0
2650,107546,75088,0
2696,107551,75062,0
2732,107551,75062,0
2776,107551,75062,0
2808,107551,75062,0
2848,107551,75062,0
2880,107551,75062,0
2904,107551,75062,0
2920,107588,75118,0
2984,107588,75118,0
2984,107588,75118,0
2948,107588,75118,0
2980,107588,75118,0
2912,107588,75118,0
3068,107588,75118,0
2864,107599,75091,0
2832,107599,75091,0
2768,107599,75091,0
2040,107551,75131,0
2596,107570,75078,0
2540,107548,75110,0
2474,107514,75095,0
2418,107569,75088,0
2362,107528,75147,0
2305,107577,75096,0
2272,107535,75104,0
2229,107494,75120,0
2196,107591,75106,0
2156,107554,75123,0
2149,107577,75099,0
2130,107545,75114,0
2096,107518,75123,0
2080,107583,75106,0
2060,107523,75136,0
2032,107580,75116,0
2032,107544,75084,0
2008,107506,75151,0
2020,107616,75107,0
2016,107551,75134,0
2016,107572,75098,0
2010,107545,75065,0
2029,107531,75135,0
2004,107618,75124,0
2008,107548,75138,0
2012,107589,75116,0
2016,107543,75072,0
1976,107534,75157,0
2037,107596,75117,0
2052,107542,75134,0
2064,107569,75101,0
2040,107594,75125,0
2072,107570,75110,0
2248,107509,75140,0
2296,107569,75119,0
2288,107526,75156,0
2272,107617,75134,0
2284,107578,75165,0
2297,107591,75132,0
2288,107539,75120,0
2304,107516,75165,0
2294,107612,75149,0
2288,107561,75169,0
2292,107595,75139,0
2292,107558,75105,0
2344,107510,75160,0
2304,107615,75150,0
2296,107557,75171,0
2296,107597,75145,0
2280,107574,75111,0
2280,107525,75184,0
2276,107609,75142,0
2260,107576,75187,0
2248,107594,75139,0
2242,107581,75109,0
2217,107551,75189,0
2277,107619,75170,0
2240,107579,75163,0
2225,107597,75132,0
2233,107597,75132,0
2228,107571,75138,0
2232,107571,75138,0
2240,107571,75138,0
2296,107571,75138,0
2236,107571,75138,0
2224,107571,75138,0
2248,107571,75138,0
2248,107571,75195,0
2260,107582,75173,0
2256,107582,75173,0
2282,107582,75173,0
2272,107582,75173,0
2274,107582,75173,0
2280,107582,75173,0
2292,107582,75150,0
2292,107600,75159,0
2296,107600,75159,0
2308,107600,75159,0
2312,107600,75159,0
2306,107600,75159,0
2302,107600,75159,0
2372,107600,75159,0
2336,107590,75147,0
2381,107590,75147,0
2338,107590,75147,0
2340,107590,75147,0
2368,107590,75147,0
2348,107590,75147,0
2344,107590,75147,0
2340,107579,75210,0
2328,107592,75180,0
2318,107591,75222,0
2292,107642,75171,0
2290,107600,75183,0
2288,107531,75181,0
2292,107644,75184,0
2230,107581,75206,0
2276,107631,75186,0
2272,107619,75165,0
2280,107572,75219,0
2429,107648,75185,0
2292,107603,75221,0
2300,107627,75194,0
2292,107612,75165,0
2296,107574,75219,0
2284,107665,75194,0
2288,107615,75219,0
2292,107646,75199,0
2288,107613,75162,0
2290,107584,75232,0
2281,107667,75193,0
2282,107608,75233,0
2296,107644,75178,0
2308,107613,75139,0
2344,107619,75242,0
2289,107649,75186,0
2289,107608,75231,0
2308,107627,75193,0
2288,107604,75150,0
2316,107594,75228,0
2328,107659,75209,0
2316,107613,75240,0
2328,107561,75175,0
2318,107609,75115,0
2304,107561,75128,0
2312,107585,75153,0
2316,107591,75115,0
2310,107558,75126,0
2352,107512,75104,0
2354,107588,75105,0
2356,107562,75129,0
2361,107568,75095,0
2344,107535,75087,0
2400,107490,75101,0
2340,107571,75076,0
2324,107540,75089,0
2328,107568,75058,0
2324,107513,75034,0
2330,107481,75094,0
2304,107578,75053,0
2314,107534,75065,0
2312,107543,75037,0
2312,107528,75005,0
2304,107481,75060,0
2304,107564,75022,0
2306,107516,75048,0
2304,107525,75013,0
2284,107488,74986,0
2312,107448,75052,0
2272,107536,75011,0
2156,107536,75011,0
2280,107536,75011,0
2282,107536,75011,0
2284,107536,75011,0
2272,107509,75014,0
2272,107509,75014,0
2268,107509,75014,0
2284,107509,75014,0
2277,107509,75014,0
2324,107509,75014,0
2272,107509,75014,0
2284,107509,74894,0
2288,107478,75022,0
2288,107478,75022,0
2298,107478,75022,0
2288,107478,75022,0
2273,107478,75022,0
2292,107478,75022,0
2288,107478,74905,0
2296,107510,75010,0
2282,107510,75010,0
2328,107510,75010,0
2338,107510,75010,0
2306,107510,75010,0
2365,107510,75010,0
2276,107510,75010,0
2464,107506,74968,0
2376,107506,74968,0
2314,107506,74968,0
2324,107506,74968,0
2316,107506,74968,0
2297,107390,74763,0
2256,107356,74798,0
2280,107327,74798,0
2288,107379,74768,0
2276,107342,74722,0
2282,107305,74789,0
2292,107377,74774,0
2298,107341,74785,0
2284,107366,74777,0
2296,107350,74736,0
2293,107325,74806,0
2298,107369,74753,0
2290,107340,74780,0
2288,107330,74756,0
2288,107348,74745,0
2280,107356,74787,0
2280,107358,74761,0
2280,107346,74745,0
2280,107307,74777,0
2293,107388,74758,0
2280,107335,74774,0
2278,107374,74760,0
2272,107356,74712,0
2288,107319,74800,0
2268,107376,74761,0
2248,107338,74793,0
2208,107363,74758,0
2258,107378,74760,0
2272,107361,74740,0
2272,107361,74740,0
2272,107361,74740,0
2274,107361,74740,0
2284,107361,74740,0
2278,107361,74740,0
2288,107361,74773,0
2273,107358,74763,0
2276,107358,74763,0
2292,107358,74763,0
2294,107358,74763,0
2296,107358,74763,0
2296,107358,74763,0
2300,107358,74763,0
2296,107388,74752,0
2302,107388,74752,0
2324,107388,74752,0
2364,107388,74752,0
2305,107388,74752,0
2324,107388,74752,0
2312,107388,74752,0
2320,107347,74756,0
2336,107347,74756,0
2328,107347,74756,0
2332,107347,74756,0
2336,107347,74756,0
2313,107347,74756,0
2340,107347,74756,0
2332,107347,74769,0
2328,107322,74775,0
2326,107322,74775,0
2300,107338,74822,0
2312,107353,74773,0
2324,107410,74759,0
2338,107353,74810,0
2330,107393,74764,0
2330,107361,74755,0
2336,107319,74776,0
2326,107404,74787,0
2325,107366,74792,0
2304,107398,74755,0
2316,107362,74756,0
2324,107319,74806,0
2324,107412,74783,0
2332,107367,74805,0
2340,107387,74784,0
2332,107374,74740,0
2317,107307,74811,0
2324,107430,74775,0
2320,107355,74798,0
2392,107396,74774,0
2317,107386,74732,0
2314,107360,74827,0
2314,107406,74791,0
2312,107381,74808,0
2304,107380,74783,0
2281,107384,74743,0
2241,107360,74828,0
2261,107395,74760,0
2288,107395,74760,0
2264,107395,74779,0
2260,107389,74788,0
2272,107389,74788,0
2268,107389,74788,0
2280,107389,74788,0
2273,107389,74788,0
2280,107389,74788,0
2280,107389,74788,0
2282,107388,74772,0
2274,107388,74772,0
2292,107388,74772,0
2280,107388,74772,0
2288,107388,74772,0
2284,107388,74772,0
2292,107388,74772,0
2302,107331,74777,0
2302,107331,74777,0
2292,107331,74777,0
2300,107331,74777,0
2301,107331,74777,0
2306,107331,74777,0
2344,107331,74777,0
2328,107331,74786,0
2321,107351,74801,0
2344,107351,74801,0
2406,107351,74801,0
2336,107351,74801,0
2341,107351,74801,0
2328,107351,74801,0
2346,107351,74798,0
2328,107324,74822,0
2348,107367,74843,0
2288,107418,74799,0
2354,107391,74818,0
2280,107379,74806,0
2278,107374,74765,0
2280,107382,74841,0
2281,107400,74814,0
2286,107362,74831,0
2276,107371,74795,0
2276,107384,74784,0
2288,107350,74835,0
2316,107397,74801,0
2296,107386,74800,0
2292,107309,74809,0
2292,107424,74795,0
2290,107369,74841,0
2284,107404,74804,0
2292,107363,74786,0
2285,107327,74825,0
2272,107427,74813,0
2284,107351,74829,0
2288,107392,74791,0
2308,107369,74762,0
2288,107372,74849,0
2292,107418,74807,0
2300,107369,74825,0
2316,107381,74788,0
2288,107351,74764,0
2324,107349,74844,0
2322,107402,74782,0
2302,107366,74835,0
2328,107364,74767,0
2348,107342,74842,0
2302,107434,74818,0
2288,107362,74828,0
2288,107368,74821,0
2294,107389,74797,0
2324,107375,74770,0
2332,107357,74860,0
2330,107424,74814,0
2316,107375,74835,0
2320,107401,74793,0
2312,107363,74765,0
2316,107328,74852,0
2316,107406,74814,0
2305,107358,74834,0
2322,107404,74811,0
2304,107348,74759,0
2306,107349,74853,0
2304,107425,74827,0
2296,107362,74821,0
2314,107372,74822,0
2296,107365,74767,0
2298,107365,74837,0
2292,107417,74803,0
2292,107354,74834,0
2304,107398,74812,0
2292,107365,74768,0
2264,107387,74794,0
2264,107387,74794,0
2266,107387,74794,0
2272,107387,74794,0
2268,107387,74794,0
2272,107387,74794,0
2266,107403,74847,0
2314,107403,74847,0
2272,107403,74847,0
2286,107403,74847,0
2274,107403,74847,0
2276,107403,74847,0
2296,107403,74847,0
2288,107358,74743,0
2284,107358,74743,0
2296,107358,74743,0
2284,107358,74743,0
2288,107358,74743,0
2292,107358,74743,0
2298,107358,74743,0
2312,107358,74830,0
2292,107371,74814,0
2320,107371,74814,0
2344,107371,74814,0
2296,107371,74814,0
2348,107371,74814,0
2305,107371,74814,0
2464,107371,74804,0
2329,107368,74767,0
2317,107368,74767,0
2324,107368,74767,0
2320,107368,74767,0
2272,107375,74845,0
2282,107406,74845,0
2320,107391,74805,0
2306,107376,74883,0
2290,107458,74857,0
2296,107411,74876,0
2294,107433,74845,0
2292,107395,74816,0
2304,107387,74928,0
2304,107449,74850,0
2296,107402,74884,0
2288,107395,74853,0
2292,107433,74847,0
2304,107417,74897,0
2292,107441,74875,0
2296,107401,74884,0
2296,107373,74882,0
2304,107450,74866,0
2308,107408,74890,0
2297,107454,74878,0
2297,107435,74873,0
2308,107358,74883,0
2308,107448,74856,0
2305,107410,74900,0
2306,107436,74873,0
2284,107427,74856,0
2241,107380,74902,0
2233,107487,74873,0
2225,107430,74916,0
2220,107430,74916,0
2224,107430,74916,0
2276,107430,74916,0
2202,107430,74916,0
2224,107430,74916,0
2220,107430,74916,0
2209,107435,74894,0
2240,107435,74894,0
2232,107435,74894,0
2244,107435,74894,0
2281,107435,74894,0
2282,107435,74894,0
2248,107435,74894,0
2304,107435,74930,0
2360,107451,74870,0
2338,107451,74870,0
2362,107451,74870,0
2392,107451,74870,0
2288,107451,74870,0
2436,107451,74870,0
2472,107451,74961,0
2546,107406,74883,0
2560,107406,74883,0
2608,107406,74883,0
2648,107406,74883,0
2720,107406,74883,0
2736,107406,74883,0
2784,107406,74883,0
2824,107479,74890,0
2857,107479,74890,0
2864,107469,74953,0
2064,107461,74949,0
2084,107448,74932,0
2068,107422,74986,0
2064,107504,74951,0
2048,107451,74970,0
2056,107486,74953,0
2052,107455,74907,0
2052,107424,74985,0
2060,107499,74951,0
2065,107467,74983,0
2074,107489,74947,0
2074,107462,74928,0
2080,107417,74999,0
2088,107499,74948,0
2086,107453,74989,0
2144,107489,74966,0
2106,107458,74922,0
2096,107435,75010,0
2120,107512,74943,0
2120,107452,75001,0
2132,107502,74958,0
2128,107447,74935,0
2136,107425,74998,0
2144,107487,74962,0
2130,107459,74993,0
2114,107487,74979,0
2176,107512,74953,0
2180,107512,74953,0
2188,107512,74953,0
2196,107490,74976,0
2200,107490,74976,0
2204,107490,74976,0
2216,107490,74976,0
2220,107490,74976,0
2218,107490,74976,0
2228,107490,74976,0
2236,107490,75007,0
2248,107473,74972,0
2256,107473,74972,0
2248,107473,74972,0
2248,107473,74972,0
2256,107473,74972,0
2264,107473,74972,0
2260,107473,75030,0
2280,107482,74999,0
2266,107482,74999,0
2290,107482,74999,0
2290,107482,74999,0
2285,107482,74999,0
2328,107482,74999,0
2316,107482,74999,0
2266,107466,75012,0
2338,107466,75012,0
2304,107466,75012,0
2328,107466,75012,0
2328,107466,75012,0
2313,107466,75012,0
2314,107466,75012,0
2273,107547,75033,0
2318,107515,75035,0
2336,107507,75055,0
2336,107455,75050,0
2344,107526,75045,0
2316,107528,75077,0
2329,107551,75047,0
2330,107507,75039,0
2328,107469,75056,0
2317,107551,75050,0
2328,107528,75076,0
2328,107535,75062,0
2322,107509,75032,0
2324,107465,75063,0
2314,107553,75051,0
2320,107501,75092,0
2320,107539,75050,0
2321,107521,75053,0
2316,107481,75071,0
2314,107544,75065,0
2316,107520,75100,0
2312,107557,75056,0
2322,107514,75028,0
2308,107472,75070,0
2312,107573,75062,0
2296,107525,75097,0
2264,107551,75062,0
2296,107535,75028,0
2288,107555,75056,0
2324,107541,75064,0
2352,107509,75016,0
2352,107529,75118,0
2360,107566,75063,0
2348,107515,75072,0
2345,107517,75057,0
2352,107518,75005,0
2356,107507,75094,0
2362,107551,75037,0
2356,107500,75055,0
2352,107478,75038,0
2368,107527,75013,0
2360,107499,75072,0
2352,107527,75037,0
2348,107475,75033,0
2348,107439,75030,0
2332,107509,75006,0
2330,107490,75047,0
2338,107511,75012,0
2324,107481,75004,0
2336,107417,75016,0
2324,107515,74977,0
2320,107463,75030,0
2320,107502,74990,0
2304,107462,74975,0
2264,107428,74980,0
2306,107500,74996,0
1524,107439,74981,0
2290,107494,74956,0
2314,107457,74936,0
2278,107389,74821,0
2282,107348,74817,0
2280,107316,74826,0
2292,107392,74799,0
2320,107387,74836,0
2316,107395,74795,0
2312,107345,74817,0
2352,107369,74793,0
2340,107342,74749,0
2337,107315,74828,0
2345,107381,74776,0
2340,107335,74814,0
2320,107358,74763,0
2340,107327,74743,0
2336,107296,74800,0
2330,107373,74771,0
2320,107332,74790,0
2322,107362,74757,0
2313,107322,74729,0
2312,107286,74799,0
2310,107359,74765,0
2304,107317,74772,0
2290,107344,74739,0
2288,107306,74705,0
2288,107301,74781,0
2282,107350,74730,0
2282,107312,74750,0
2280,107325,74709,0
2304,107301,74680,0
2234,107277,74764,0
2288,107363,74732,0
1507,107302,74758,0
2265,107258,74704,0
2258,107307,74686,0
2316,107242,74706,0
2356,107257,74723,0
2346,107312,74672,0
2364,107266,74691,0
2344,107251,74679,0
2346,107288,74633,0
2340,107268,74724,0
2338,107300,74681,0
2329,107255,74679,0
2320,107259,74685,0
2308,107293,74664,0
2314,107265,74723,0
2320,107316,74669,0
2305,107258,74679,0
2304,107250,74676,0
2288,107280,74662,0
2294,107261,74715,0
2280,107295,74677,0
2276,107263,74682,0
2272,107241,74673,0
2280,107305,74676,0
2308,107298,74700,0
2272,107296,74660,0
2292,107274,74672,0
2276,107243,74682,0
2236,107322,74689,0
2268,107257,74707,0
1496,107317,74676,0
2288,107292,74644,0
2296,107244,74717,0
2256,107338,74690,0
2276,107283,74712,0
2272,107282,74692,0
2268,107297,74665,0
2328,107302,74698,0
2332,107316,74674,0
2329,107278,74703,0
2368,107299,74699,0
2368,107282,74631,0
2357,107277,74746,0
2368,107322,74668,0
2344,107266,74706,0
2352,107299,74674,0
2348,107277,74661,0
2340,107293,74736,0
2344,107332,74701,0
2332,107284,74723,0
2320,107273,74699,0
2322,107314,74672,0
2322,107285,74706,0
2314,107317,74678,0
2321,107300,74714,0
2328,107246,74697,0
2316,107349,74702,0
2313,107295,74740,0
2316,107314,74697,0
2312,107290,74689,0
2320,107254,74706,0
2288,107344,74708,0
2266,107277,74744,0
2290,107316,74697,0
1509,107288,74674,0
2256,107258,74741,0
2264,107359,74724,0
2320,107359,74725,0
2368,107309,74706,0
2362,107314,74784,0
2354,107349,74743,0
2368,107286,74755,0
2352,107281,74720,0
2352,107337,74737,0
2330,107318,74749,0
2348,107331,74748,0
2312,107299,74747,0
2360,107253,74727,0
2349,107342,74721,0
2340,107312,74765,0
2338,107331,74731,0
2338,107316,74719,0
2344,107274,74772,0
2384,107352,74743,0
2340,107299,74761,0
2336,107341,74733,0
2341,107307,74687,0
2336,107268,74759,0
2338,107362,74725,0
2336,107306,74760,0
2337,107319,74741,0
2312,107297,74722,0
2272,107247,74755,0
2324,107350,74727,0
1538,107285,74760,0
2336,107326,74726,0
2344,107295,74737,0
2360,107303,74783,0
2313,107343,74735,0
2320,107298,74711,0
2320,107253,74735,0
2308,107292,74747,0
2352,107329,74728,0
2344,107318,74788,0
2340,107339,74742,0
2346,107312,74781,0
2344,107268,74740,0
2348,107323,74728,0
2342,107295,74774,0
2352,107360,74740,0
2354,107320,74762,0
2354,107270,74750,0
2346,107319,74754,0
2348,107309,74780,0
2322,107340,74738,0
2408,107318,74725,0
2348,107259,74758,0
2340,107341,74743,0
2388,107303,74770,0
2336,107335,74746,0
2320,107311,74712,0
2304,107289,74783,0
2316,107366,74753,0
2306,107294,74767,0
2284,107335,74755,0
2257,107303,74706,0
2284,107301,74780,0
1648,107362,74747,0
2322,107371,74754,0
2324,107304,74801,0
2306,107299,74737,0
2340,107314,74720,0
2340,107312,74811,0
2340,107359,74755,0
2324,107320,74779,0
2340,107292,74750,0
2349,107314,74738,0
2352,107314,74794,0
2353,107343,74779,0
2356,107322,74791,0
2357,107294,74755,0
2352,107338,74732,0
2348,107324,74819,0
2344,107347,74766,0
2354,107322,74810,0
2336,107284,74775,0
2320,107333,74758,0
2320,107318,74820,0
2321,107372,74767,0
2314,107313,74765,0
2308,107268,74782,0
2304,107365,74782,0
2336,107316,74815,0
2280,107357,74779,0
2280,107325,74745,0
2252,107280,74799,0
2296,107385,74765,0
1609,107323,74787,0
2304,107337,74768,0
2296,107320,74760,0
2268,107386,74824,0
2272,107358,74838,0
2268,107376,74810,0
2280,107362,74814,0
2344,107363,74849,0
2336,107357,74837,0
2332,107311,74823,0
2372,107388,74818,0
2386,107364,74860,0
2357,107390,74826,0
2346,107360,74823,0
2349,107306,74859,0
2342,107408,74841,0
2344,107360,74861,0
2344,107388,74828,0
2340,107360,74801,0
2328,107335,74851,0
2324,107409,74825,0
2328,107375,74857,0
2312,107383,74837,0
2316,107366,74786,0
2306,107365,74888,0
2304,107411,74847,0
2308,107372,74867,0
2296,107373,74844,0
2288,107380,74808,0
2284,107358,74878,0
2288,107409,74844,0
2252,107377,74876,0
2224,107390,74865,0
2264,107346,74827,0
1483,107365,74892,0
2240,107340,74914,0
2232,107423,74891,0
2941,107378,74904,0
2996,107442,74885,0
2994,107410,74932,0
2992,107421,74909,0
2953,107397,74844,0
2917,107372,74937,0
2880,107426,74891,0
2828,107385,74924,0
2784,107390,74896,0
2724,107396,74881,0
2660,107373,74935,0
2610,107430,74905,0
2541,107388,74933,0
2476,107385,74898,0
2426,107424,74898,0
2373,107384,74948,0
2312,107412,74909,0
2281,107398,74922,0
2240,107345,74917,0
2186,107449,74896,0
2176,107399,74956,0
2148,107430,74914,0
2148,107395,74876,0
2120,107371,74965,0
2081,107456,74929,0
2102,107400,74935,0
2044,107436,74910,0
1388,107406,74878,0
2048,107375,74949,0
2032,107443,74929,0
1986,107407,74957,0
1992,107351,74969,0
2000,107455,74959,0
2256,107417,74958,0
2256,107409,75001,0
2288,107443,74970,0
2292,107419,74967,0
2281,107389,74950,0
2284,107437,74943,0
2288,107411,74996,0
2272,107437,74961,0
2272,107408,74942,0
2272,107379,74982,0
2305,107473,74965,0
2262,107407,74997,0
2272,107440,74972,0
2268,107424,74924,0
2278,107415,74998,0
2284,107448,74978,0
2296,107408,75005,0
2296,107425,74967,0
2288,107434,74961,0
2284,107416,75035,0
2288,107441,74959,0
2290,107423,74993,0
2288,107383,74981,0
2296,107424,74976,0
2272,107414,75013,0
2248,107434,74979,0
2271,107429,74969,0
1496,107365,75009,0
2282,107472,74989,0
2272,107484,75026,0
2264,107433,75016,0
2312,107387,75026,0
2330,107463,75027,0
2336,107444,75066,0
2324,107493,75037,0
2332,107454,74988,0
2320,107422,75089,0
2324,107498,75031,0
2332,107444,75065,0
2316,107481,75037,0
2376,107451,74995,0
2336,107416,75063,0
2341,107486,75037,0
2325,107465,75072,0
2330,107476,75063,0
2316,107471,75011,0
2352,107447,75091,0
2332,107521,75058,0
2304,107462,75077,0
2368,107485,75049,0
2306,107446,75012,0
2296,107450,75092,0
2314,107501,75067,0
2372,107445,75073,0
2324,107498,75043,0
2312,107465,75031,0
2284,107459,75095,0
2328,107501,75056,0
1656,107463,75066,0
2348,107443,75055,0
2316,107434,75075,0
2308,107449,75048,0
2360,107449,75011,0
2352,107457,75042,0
2368,107432,75089,0
2400,107476,75026,0
2392,107435,75057,0
2368,107460,75011,0
2397,107426,74998,0
2384,107420,75049,0
2400,107481,75029,0
2393,107421,75050,0
2378,107445,75013,0
2376,107429,74970,0
2377,107421,75040,0
2376,107468,74996,0
2368,107402,75012,0
2372,107421,74985,0
2368,107410,74957,0
2372,107406,75035,0
2356,107465,74993,0
2354,107391,74995,0
2368,107408,74965,0
2368,107405,74940,0
2368,107388,75016,0
2364,107436,74962,0
2363,107395,74984,0
2328,107392,74957,0
2308,107400,74924,0
2352,107376,74982,0
1572,107422,74952,0
2368,107383,74949,0
2332,107351,74803,0
2344,107289,74832,0
2380,107333,74790,0
2336,107296,74827,0
2340,107293,74825,0
2372,107288,74777,0
2428,107309,74768,0
2384,107285,74826,0
2372,107318,74788,0
2361,107274,74797,0
2364,107269,74777,0
2368,107314,74777,0
2360,107302,74810,0
2360,107323,74766,0
2352,107276,74792,0
2329,107255,74763,0
2330,107313,74772,0
2322,107288,74775,0
2320,107313,74758,0
2326,107278,74701,0
2313,107264,74795,0
2316,107325,74764,0
2308,107274,74783,0
2314,107305,74748,0
2372,107278,74705,0
2304,107266,74799,0
2308,107322,74737,0
2284,107269,74762,0
2237,107309,74733,0
2292,107289,74679,0
1620,107257,74793,0
2304,107318,74733,0
2284,107253,74730,0
2272,107273,74701,0
2268,107247,74659,0
2328,107248,74650,0
2324,107226,74759,0
2352,107300,74719,0
2356,107240,74723,0
2352,107251,74709,0
2336,107254,74681,0
2328,107245,74746,0
2330,107271,74706,0
2342,107244,74721,0
2336,107208,74693,0
2328,107264,74688,0
2328,107252,74750,0
2328,107281,74687,0
2336,107252,74711,0
2336,107208,74728,0
2348,107293,74705,0
2336,107256,74741,0
2344,107285,74698,0
2344,107250,74693,0
2344,107227,74734,0
2340,107304,74717,0
2342,107248,74735,0
2336,107290,74725,0
2342,107237,74673,0
2312,107257,74757,0
2273,107313,74724,0
2322,107255,74727,0
1533,107234,74721,0
2330,107288,74708,0
2284,107253,74670,0
2288,107223,74763,0
2316,107314,74726,0
2336,107246,74770,0
2348,107322,74713,0
2340,107271,74772,0
2336,107275,74734,0
2336,107289,74694,0
2330,107268,74779,0
2328,107315,74738,0
2324,107268,74763,0
2324,107233,74743,0
2344,107288,74735,0
2342,107281,74768,0
2352,107297,74730,0
2348,107261,74684,0
2356,107248,74752,0
2349,107337,74727,0
2348,107277,74753,0
2342,107278,74737,0
2348,107291,74730,0
2340,107267,74793,0
2340,107304,74742,0
2320,107271,74780,0
2308,107270,74756,0
2308,107280,74737,0
2281,107276,74796,0
2224,107305,74764,0
2273,107272,74751,0
1486,107230,74761,0
2288,107328,74774,0
2289,107284,74803,0
2252,107305,74828,0
2256,107336,74820,0
2252,107323,74769,0
2296,107298,74832,0
2296,107260,74815,0
2320,107328,74833,0
2320,107326,74852,0
2315,107343,74805,0
2314,107316,74804,0
2312,107262,74835,0
2322,107353,74820,0
2320,107323,74849,0
2308,107351,74835,0
2312,107308,74786,0
2300,107292,74878,0
2296,107364,74823,0
2292,107307,74854,0
2290,107346,74840,0
2280,107323,74786,0
2277,107310,74888,0
2285,107382,74832,0
2278,107330,74835,0
2274,107269,74837,0
2276,107362,74836,0
2281,107313,74863,0
2284,107339,74846,0
2284,107331,74782,0
2268,107290,74877,0
2236,107388,74842,0
2266,107310,74871,0
1506,107330,74855,0
2256,107316,74850,0
2268,107355,74847,0
2277,107356,74909,0
2308,107380,74866,0
2304,107334,74925,0
2304,107360,74875,0
2312,107355,74869,0
2298,107297,74886,0
2304,107390,74856,0
2298,107362,74906,0
2304,107386,74873,0
2296,107339,74848,0
2304,107318,74899,0
2284,107395,74873,0
