ECG,IR,PCG
2564,39891,0
2528,39901,0
2480,39909,0
2424,39915,0
2384,39891,0
2340,39892,0
2296,39933,0
2256,39902,0
2232,39901,0
2194,39915,0
2176,39892,0
2144,39913,0
2128,39922,0
2106,39896,0
2084,39874,0
2065,39912,0
2052,39903,0
2040,39891,0
2040,39921,0
2026,39896,0
2026,39913,0
2037,39928,0
2036,39902,0
2036,39927,0
2060,39884,0
2060,39912,0
2066,39925,0
2076,39898,0
2084,39904,0
2092,39919,0
2120,39917,0
2124,39913,0
2136,39904,0
2148,39915,0
2152,39905,0
2160,39925,0
2152,39910,0
2164,39894,0
2156,39914,0
2152,39912,0
2164,39906,0
2160,39929,0
2144,39896,0
2132,39885,0
2130,39940,0
2128,39903,0
2128,39886,0
2128,39932,0
2120,39889,0
2136,39904,0
2130,39922,0
2136,39906,0
2148,39927,0
2164,39910,0
2168,39917,0
2176,39931,0
2192,39898,0
2200,39889,0
2212,39936,0
2224,39920,0
2228,39934,0
2234,39898,0
2248,39905,0
2248,39935,0
2252,39917,0
2248,39930,0
2248,39896,0
2240,39896,0
2240,39945,0
2240,39912,0
2228,39882,0
2228,39922,0
2220,39910,0
2232,39897,0
2218,39930,0
2224,39903,0
2216,39906,0
2212,39948,0
2216,39915,0
2208,39925,0
2200,39918,0
2200,39903,0
2196,39949,0
2200,39913,0
2210,39914,0
2216,39924,0
2220,39910,0
2224,39923,0
2230,39923,0
2245,39901,0
2240,39906,0
2260,39922,0
2264,39930,0
2276,39918,0
2288,39915,0
2290,39906,0
2296,39927,0
2296,39940,0
2288,39908,0
2292,39910,0
2272,39941,0
2256,39922,0
2244,39904,0
2228,39934,0
2208,39906,0
2208,39912,0
2180,39964,0
2169,39923,0
2160,39902,0
2152,39936,0
2144,39935,0
2128,39950,0
2132,39921,0
2124,39915,0
2128,39928,0
2136,39928,0
2132,39933,0
2140,39931,0
2148,39904,0
2168,39904,0
2172,39953,0
2192,39918,0
2188,39905,0
2202,39900,0
2212,39936,0
2234,39918,0
2233,39923,0
2248,39927,0
2264,39892,0
2278,39962,0
2274,39918,0
2288,39910,0
2280,39935,0
2284,39924,0
2292,39954,0
2292,39929,0
2280,39931,0
2264,39943,0
2256,39926,0
2240,39943,0
2234,39941,0
2240,39918,0
2228,39913,0
2208,39959,0
2208,39933,0
2192,39922,0
2184,39943,0
2184,39910,0
2196,39927,0
2196,39948,0
2196,39914,0
2212,39903,0
2228,39954,0
2236,39939,0
2240,39936,0
2264,39927,0
2264,39918,0
2280,39950,0
2285,39938,0
2292,39951,0
2292,39924,0
2300,39917,0
2296,39970,0
2280,39940,0
2272,39940,0
2276,39914,0
2264,39924,0
2264,39963,0
2240,39931,0
2228,39924,0
2226,39944,0
2216,39930,0
2212,39922,0
2200,39942,0
2196,39923,0
2192,39900,0
2192,39968,0
2186,39935,0
2192,39935,0
2194,39945,0
2198,39907,0
2212,39960,0
2208,39935,0
2216,39927,0
2240,39940,0
2266,39931,0
2264,39944,0
2290,39912,0
2296,39935,0
2308,39933,0
2313,39909,0
2324,39969,0
2332,39933,0
2340,39936,0
2346,39938,0
2336,39947,0
2328,39967,0
2328,39938,0
2308,39936,0
2308,39953,0
2282,39945,0
2274,39939,0
2260,39945,0
2260,39917,0
2248,39935,0
2232,39965,0
2224,39932,0
2208,39908,0
2208,39946,0
2201,39939,0
2196,39927,0
2208,39960,0
2212,39927,0
2226,39921,0
2232,39963,0
2244,39926,0
2252,39946,0
2268,39925,0
2284,39911,0
2288,39940,0
2308,39932,0
2320,39935,0
2320,39921,0
2320,39923,0
2320,39917,0
2320,39946,0
2236,39922,0
2336,39901,0
2320,39967,0
2328,39936,0
2324,39924,0
2324,39933,0
2312,39908,0
2302,39956,0
2300,39922,0
2288,39915,0
2272,39935,0
2272,39914,0
2250,39929,0
2250,39946,0
2240,39912,0
2240,39899,0
2228,39950,0
2240,39926,0
2248,39907,0
2244,39935,0
2260,39908,0
2272,39943,0
2272,39936,0
2280,39904,0
2304,39911,0
2304,39903,0
2316,39929,0
2340,39896,0
2340,39908,0
2348,39922,0
2354,39914,0
2348,39938,0
2340,39919,0
2328,39909,0
2320,39928,0
2316,39922,0
2296,39912,0
2284,39925,0
2280,39893,0
2256,39889,0
2244,39941,0
2248,39909,0
2224,39887,0
2224,39918,0
2216,39902,0
2220,39904,0
2212,39921,0
2208,39893,0
2216,39895,0
2216,39930,0
2224,39904,0
2240,39919,0
2232,39900,0
2240,39885,0
2248,39933,0
2268,39896,0
2264,39925,0
2272,39903,0
2296,39891,0
2304,39905,0
2296,39896,0
2298,39917,0
2296,39878,0
2312,39881,0
2296,39926,0
2292,39887,0
2296,39874,0
2288,39914,0
2272,39914,0
2272,39877,0
2256,39908,0
2240,39886,0
2240,39862,0
2232,39929,0
2226,39889,0
2200,39885,0
2184,39900,0
2188,39887,0
2176,39916,0
2168,39902,0
2164,39889,0
2168,39899,0
2168,39892,0
2176,39901,0
2186,39907,0
2194,39886,0
2208,39880,0
2216,39921,0
2226,39890,0
2232,39899,0
2256,39914,0
2264,39878,0
2260,39911,0
2272,39866,0
2276,39905,0
2268,39872,0
2258,39865,0
2256,39919,0
2244,39884,0
2236,39875,0
2216,39900,0
2216,39900,0
2208,39905,0
2194,39903,0
2184,39873,0
2188,39884,0
2176,39901,0
2172,39895,0
2168,39911,0
2160,39884,0
2156,39886,0
2148,39926,0
2144,39889,0
2144,39886,0
2152,39901,0
2154,39883,0
2164,39883,0
2172,39911,0
2184,39882,0
2186,39863,0
2196,39924,0
2208,39900,0
2226,39891,0
2232,39891,0
2248,39904,0
2256,39893,0
2256,39882,0
2264,39910,0
2264,39885,0
2256,39892,0
2264,39923,0
2244,39895,0
2240,39898,0
2232,39892,0
2220,39890,0
2208,39928,0
2208,39886,0
2196,39885,0
2192,39897,0
2172,39897,0
2176,39887,0
2176,39903,0
2176,39877,0
2176,39881,0
2184,39925,0
2196,39889,0
2200,39866,0
2208,39906,0
2216,39885,0
2226,39879,0
2232,39917,0
2224,39880,0
2250,39892,0
2244,39912,0
2260,39901,0
2260,39882,0
2256,39904,0
2272,39890,0
2276,39916,0
2280,39917,0
2288,39893,0
2296,39888,0
2288,39912,0
2292,39893,0
2288,39892,0
2292,39909,0
2284,39862,0
2280,39895,0
2272,39927,0
2268,39880,0
2256,39866,0
2256,39892,0
2240,39898,0
2232,39876,0
2228,39910,0
2220,39889,0
2224,39869,0
2224,39927,0
2226,39894,0
2232,39888,0
2240,39898,0
2248,39876,0
2258,39906,0
2264,39892,0
2284,39899,0
2288,39876,0
2300,39901,0
2308,39913,0
2304,39894,0
2300,39863,0
2296,39902,0
2288,39901,0
2284,39885,0
2272,39909,0
2272,39881,0
2256,39876,0
2256,39927,0
2240,39887,0
2232,39895,0
2224,39889,0
2240,39879,0
2216,39913,0
2212,39882,0
2208,39877,0
2224,39898,0
2224,39895,0
2220,39886,0
2218,39905,0
2224,39864,0
2224,39852,0
2240,39924,0
2240,39890,0
2244,39876,0
2260,39909,0
2256,39880,0
2256,39919,0
2272,39896,0
2272,39890,0
2280,39884,0
2288,39901,0
2288,39935,0
2288,39886,0
2296,39864,0
2280,39900,0
2280,39904,0
2272,39896,0
2272,39903,0
2257,39878,0
2248,39909,0
2226,39917,0
2232,39897,0
2216,39916,0
2212,39886,0
2212,39902,0
2196,39935,0
2192,39890,0
2184,39902,0
2180,39917,0
2180,39901,0
2180,39893,0
2188,39914,0
2200,39893,0
2208,39874,0
2216,39930,0
2224,39904,0
2248,39913,0
2249,39886,0
2268,39881,0
2280,39919,0
2288,39913,0
2308,39906,0
2313,39905,0
2324,39899,0
2336,39910,0
2338,39916,0
2336,39893,0
2340,39872,0
2328,39943,0
2336,39903,0
2322,39895,0
2308,39913,0
2436,39892,0
2300,39938,0
2282,39913,0
2280,39905,0
2272,39924,0
2268,39892,0
2260,39912,0
2256,39926,0
2240,39900,0
2242,39885,0
2232,39939,0
2225,39912,0
2224,39879,0
2229,39930,0
2232,39895,0
2240,39909,0
2240,39928,0
2248,39899,0
2264,39913,0
2280,39906,0
2284,39930,0
2296,39906,0
2316,39903,0
2336,39892,0
2328,39931,0
2344,39907,0
2344,39890,0
2330,39922,0
2320,39896,0
2314,39905,0
2300,39927,0
2306,39905,0
2280,39898,0
2272,39906,0
2256,39915,0
2250,39925,0
2248,39887,0
2240,39892,0
2232,39921,0
2224,39906,0
2220,39899,0
2224,39923,0
2228,39892,0
2232,39911,0
2240,39928,0
2244,39898,0
2256,39880,0
2268,39914,0
2272,39905,0
2280,39891,0
2290,39923,0
2292,39897,0
2312,39887,0
2314,39907,0
2312,39931,0
2320,39895,0
2340,39893,0
2328,39918,0
2330,39911,0
2330,39907,0
2340,39914,0
2354,39878,0
2329,39916,0
2320,39927,0
2312,39901,0
2304,39898,0
2280,39916,0
2280,39912,0
2256,39909,0
2256,39936,0
2244,39889,0
2228,39890,0
2228,39934,0
2226,39901,0
2228,39900,0
2232,39914,0
2232,39915,0
2242,39895,0
2252,39927,0
2264,39890,0
2272,39877,0
2284,39938,0
2292,39923,0
2308,39919,0
2316,39896,0
2336,39899,0
2456,39927,0
2328,39925,0
2328,39920,0
2328,39903,0
2316,39922,0
2304,39919,0
2288,39908,0
2280,39927,0
2272,39891,0
2260,39911,0
2244,39941,0
2240,39909,0
2240,39904,0
2224,39922,0
2228,39918,0
2216,39911,0
2224,39932,0
2216,39899,0
2216,39875,0
2217,39941,0
2224,39920,0
2224,39890,0
2226,39927,0
2240,39914,0
2240,39917,0
2248,39930,0
2256,39908,0
2264,39906,0
2272,39914,0
2274,39918,0
2284,39920,0
2296,39932,0
2304,39910,0
2292,39917,0
2296,39937,0
2296,39891,0
2288,39899,0
2292,39927,0
2284,39921,0
2280,39905,0
2272,39938,0
2266,39914,0
2256,39912,0
2248,39950,0
2232,39914,0
2224,39920,0
2212,39913,0
2208,39927,0
2208,39946,0
2200,39913,0
2196,39911,0
2200,39922,0
2208,39913,0
2210,39921,0
2224,39938,0
2228,39902,0
2240,39894,0
2256,39956,0
2266,39919,0
2272,39895,0
2282,39915,0
2284,39930,0
2292,39933,0
2304,39921,0
2308,39935,0
2320,39910,0
2328,39917,0
2324,39951,0
2330,39919,0
2328,39926,0
2340,39913,0
2336,39938,0
2328,39944,0
2328,39921,0
2316,39911,0
2322,39948,0
2296,39932,0
2300,39930,0
2280,39930,0
2280,39903,0
2272,39923,0
2256,39950,0
2248,39907,0
2248,39903,0
2240,39936,0
2228,39926,0
2232,39920,0
2232,39949,0
2240,39909,0
2256,39923,0
2257,39954,0
2268,39933,0
2280,39934,0
2292,39926,0
2302,39955,0
2316,39912,0
2316,39950,0
2308,39928,0
2320,39936,0
2308,39937,0
2312,39929,0
2284,39944,0
2280,39922,0
2260,39921,0
2252,39959,0
2236,39927,0
2232,39916,0
2212,39933,0
2210,39923,0
2192,39928,0
2184,39950,0
2176,39924,0
2180,39908,0
2176,39973,0
2184,39939,0
2178,39925,0
2192,39945,0
2196,39917,0
2208,39956,0
2224,39946,0
2240,39924,0
2244,39945,0
2261,39927,0
2276,39953,0
2300,39924,0
2292,39932,0
2312,39926,0
2316,39923,0
2320,39959,0
2316,39926,0
2321,39914,0
2314,39951,0
2312,39943,0
2296,39931,0
2296,39958,0
2292,39925,0
2272,39931,0
2264,39966,0
2268,39938,0
2250,39946,0
2240,39946,0
2240,39939,0
2232,39961,0
2220,39947,0
2210,39930,0
2208,39951,0
2204,39943,0
2200,39942,0
2200,39963,0
2200,39936,0
2212,39927,0
2224,39968,0
2224,39952,0
2250,39932,0
2256,39958,0
2272,39920,0
2288,39954,0
2300,39963,0
2308,39944,0
2321,39928,0
2328,39941,0
2328,39957,0
2340,39956,0
2336,39945,0
2330,39946,0
2320,39962,0
2306,39950,0
2300,39974,0
2290,39940,0
2272,39935,0
2260,39980,0
2248,39951,0
2232,39947,0
2236,39960,0
2138,39938,0
2224,39959,0
2208,39963,0
2208,39937,0
2208,39931,0
2212,39966,0
2224,39950,0
2224,39931,0
2226,39963,0
2232,39932,0
2252,39941,0
2248,39983,0
2260,39957,0
2268,39923,0
2280,39937,0
2296,39975,0
2292,39964,0
2312,39942,0
2312,39952,0
2324,39935,0
2324,39956,0
2328,39969,0
2332,39938,0
2336,39910,0
2324,39973,0
2320,39948,0
2328,39929,0
2312,39954,0
2304,39930,0
2296,39970,0
2296,39974,0
2284,39942,0
2264,39959,0
2256,39962,0
2256,39973,0
2248,39971,0
2232,39968,0
2224,39934,0
2232,39973,0
2232,39959,0
2240,39945,0
2245,39979,0
2264,39942,0
2268,39961,0
2288,39976,0
2298,39940,0
2308,39935,0
2308,39957,0
2320,39975,0
2328,39949,0
2352,39975,0
2336,39948,0
2352,39928,0
2360,39998,0
2360,39945,0
2360,39954,0
2364,39957,0
2370,39949,0
2360,39977,0
2352,39964,0
2348,39949,0
2324,39961,0
2320,39978,0
2320,39959,0
2306,39971,0
2288,39949,0
2288,39948,0
2274,39994,0
2272,39956,0
2272,39946,0
2266,39969,0
2272,39948,0
2258,39960,0
2264,39971,0
2272,39952,0
2276,39923,0
2288,39987,0
2298,39969,0
2312,39945,0
2320,39936,0
2320,39954,0
2328,39964,0
2328,39975,0
2332,39947,0
2330,39947,0
2312,39972,0
2436,39963,0
2304,39952,0
2290,39969,0
2276,39945,0
2264,39956,0
2272,39979,0
2256,39940,0
2256,39941,0
2248,39966,0
2256,39968,0
2264,39938,0
2272,39977,0
2280,39943,0
2296,39931,0
2312,39991,0
2338,39953,0
2380,39941,0
2408,39977,0
2449,39957,0
2488,39981,0
2530,39967,0
2576,39953,0
2608,39969,0
2660,39969,0
2696,39959,0
2736,39972,0
2776,39977,0
2804,39961,0
2840,39986,0
2872,39956,0
2880,39958,0
2884,39975,0
2884,39950,0
2872,39971,0
2848,39981,0
2816,39955,0
2776,39922,0
2728,39993,0
2688,39957,0
2644,39944,0
2592,39984,0
2532,39956,0
2480,39988,0
2432,39988,0
2372,39968,0
2328,39970,0
2288,39956,0
2264,39977,0
2248,39979,0
2216,39948,0
2212,39952,0
2208,39977,0
2200,39968,0
2197,39961,0
2200,39979,0
2208,39949,0
2196,39968,0
2194,39996,0
2194,39980,0
2184,39956,0
2176,39950,0
2176,39975,0
2152,39994,0
2138,39958,0
2128,39959,0
2120,39984,0
2108,39981,0
2100,39950,0
2084,39983,0
2088,39961,0
2076,39943,0
2072,40003,0
2072,39965,0
2072,39940,0
2064,39968,0
2072,39977,0
2072,39971,0
2074,39978,0
2088,39959,0
2096,39964,0
2090,39996,0
2104,39970,0
2116,39980,0
2128,39954,0
2138,39951,0
2148,40000,0
2164,39967,0
2176,39968,0
2192,39968,0
2208,39984,0
2216,39974,0
2224,39975,0
2232,39961,0
2240,39942,0
2232,40009,0
2236,39968,0
2232,39956,0
2216,39974,0
2216,39952,0
2200,39988,0
2200,39987,0
2184,39962,0
2176,39982,0
2170,39969,0
2168,39986,0
2152,39978,0
2146,39957,0
2160,39960,0
2140,39994,0
2140,39969,0
2136,39955,0
2152,39989,0
2176,39963,0
2176,39965,0
2192,39999,0
2208,39960,0
2216,39950,0
2236,39984,0
2240,39980,0
2256,39993,0
2264,39959,0
2272,39942,0
2280,39979,0
2280,39970,0
2284,39972,0
2280,39985,0
2276,39953,0
2272,39980,0
2256,40006,0
2260,39973,0
2256,39963,0
2240,39982,0
2232,39980,0
2234,39959,0
2216,39987,0
2212,39968,0
2204,39951,0
2196,40011,0
2184,39972,0
2184,39958,0
2178,39992,0
2176,39969,0
2176,39969,0
2176,40001,0
2192,39966,0
2188,39955,0
2208,40009,0
2208,39974,0
2224,39975,0
2244,39991,0
2256,39970,0
2272,40013,0
2282,39992,0
2300,39986,0
2324,39970,0
2320,39967,0
2336,39982,0
2346,39995,0
2352,39983,0
2352,39975,0
2336,40003,0
2328,39987,0
2328,39977,0
2304,40001,0
2296,39968,0
2280,39999,0
2272,40007,0
2260,39970,0
2256,39962,0
2240,40002,0
2240,39997,0
2232,39980,0
2240,39996,0
2232,39978,0
2220,39972,0
2224,40015,0
2240,39970,0
2242,39970,0
2242,39997,0
2252,39990,0
2280,39980,0
2266,40006,0
2272,39982,0
2292,39967,0
2296,40001,0
2312,40009,0
2328,39992,0
2328,39986,0
2348,40000,0
2356,40007,0
2356,39977,0
2360,40008,0
2360,39984,0
2356,39997,0
2356,40020,0
2356,39973,0
2336,39982,0
2328,40001,0
2320,39999,0
2296,39987,0
2288,40000,0
2272,39967,0
2264,39974,0
2244,40030,0
2240,39981,0
2232,39984,0
2218,40000,0
2220,39984,0
2232,39994,0
2240,40008,0
2244,39980,0
2258,39964,0
2272,40023,0
2288,39994,0
2288,39972,0
2312,39991,0
2312,39964,0
2328,40009,0
2352,39984,0
2352,39990,0
2368,40012,0
2372,39984,0
2360,40003,0
2362,40014,0
2356,39988,0
2348,39975,0
2330,40019,0
2324,40003,0
2312,39986,0
2312,40014,0
2288,39988,0
2304,39990,0
2276,40020,0
2260,39989,0
2256,39979,0
2240,40004,0
2232,40001,0
2225,39991,0
2232,40018,0
2228,39985,0
2232,39995,0
2240,40031,0
2244,39990,0
2240,40012,0
2252,39991,0
2268,40002,0
2261,40022,0
2280,40010,0
2300,39992,0
2320,39989,0
2320,40004,0
2336,40018,0
2344,39985,0
2356,39979,0
2360,40004,0
2360,39996,0
2352,39993,0
2352,40011,0
2340,39975,0
2328,39978,0
2324,40021,0
2224,39984,0
2296,39967,0
2280,40003,0
2268,40003,0
2248,39993,0
2240,40010,0
2216,39972,0
2216,39988,0
2218,40022,0
2224,39991,0
2224,39984,0
2228,39990,0
2240,39977,0
2257,39998,0
2264,40000,0
2280,39982,0
2293,39992,0
2316,39934,0
2316,39972,0
2320,39992,0
2344,39967,0
2352,39958,0
2368,39989,0
2360,39994,0
2368,39961,0
2364,39961,0
2376,39992,0
2384,39991,0
2392,39953,0
2380,39979,0
2376,39970,0
2364,39951,0
2352,40003,0
2344,39970,0
2328,39945,0
2328,39971,0
2304,39962,0
2292,39984,0
2282,39967,0
2272,39956,0
2266,39964,0
2264,39998,0
2260,39964,0
2264,39973,0
2276,39963,0
2288,39953,0
2284,39993,0
2298,39952,0
2288,39957,0
2312,39934,0
2316,39953,0
2336,39949,0
2346,39921,0
2348,39957,0
2368,39962,0
2362,39961,0
2356,39956,0
2362,39964,0
2346,39942,0
2344,39935,0
2336,39988,0
2316,39949,0
2304,39927,0
2292,39954,0
2280,39937,0
2268,39942,0
2256,39953,0
2244,39936,0
2232,39923,0
2224,39977,0
2224,39956,0
2218,39928,0
2210,39970,0
2208,39934,0
2212,39958,0
2228,39974,0
2228,39947,0
2232,39948,0
2242,39951,0
2256,39958,0
2256,39957,0
2280,39936,0
2296,39957,0
2298,39931,0
2304,39952,0
2312,39949,0
2332,39960,0
2340,39923,0
2340,39947,0
2352,39971,0
2344,39938,0
2345,39934,0
2346,39952,0
2338,39957,0
2328,39953,0
2324,39960,0
2312,39932,0
2304,39943,0
2296,39963,0
2280,39939,0
2268,39957,0
2264,39926,0
2242,39947,0
2240,39972,0
2228,39944,0
2224,39938,0
2232,39955,0
2228,39935,0
2234,39946,0
2244,39962,0
2252,39930,0
2274,39935,0
2288,39973,0
2304,39936,0
2306,39960,0
2320,39951,0
2337,39934,0
2344,39949,0
2348,39941,0
2340,39951,0
2340,39931,0
2338,39945,0
2336,39961,0
2330,39935,0
2328,39930,0
2320,39957,0
2328,39943,0
2312,39936,0
2312,39953,0
2306,39928,0
2296,39919,0
2292,39990,0
2280,39943,0
2280,39918,0
2280,39954,0
2260,39938,0
2272,39932,0
2256,39957,0
2264,39931,0
2266,39908,0
2272,39980,0
2276,39946,0
2284,39927,0
2288,39957,0
2288,39921,0
2304,39952,0
2306,39957,0
2322,39927,0
2328,39939,0
2328,39948,0
2336,39952,0
2340,39924,0
2324,39959,0
2320,39923,0
2312,39933,0
2312,39975,0
2296,39943,0
2288,39945,0
2280,39940,0
2264,39950,0
2248,39963,0
2248,39945,0
2228,39942,0
2216,39945,0
2216,39973,0
2212,39937,0
2208,39960,0
2208,39937,0
2209,39935,0
2212,39977,0
2226,39934,0
2242,39932,0
2240,39947,0
2260,39938,0
2272,39942,0
2280,39963,0
2289,39935,0
2304,39937,0
2312,39953,0
2322,39957,0
2322,39934,0
2328,39936,0
2330,39927,0
2336,39976,0
2336,39936,0
2344,39934,0
2344,39951,0
2192,39942,0
2340,39951,0
2336,39961,0
2328,39920,0
2316,39922,0
2312,39966,0
2298,39949,0
2288,39926,0
2272,39944,0
2260,39923,0
2244,39929,0
2232,39954,0
2229,39928,0
2216,39917,0
2212,39962,0
2218,39945,0
2220,39924,0
2216,39953,0
2226,39927,0
2232,39945,0
2248,39967,0
2260,39942,0
2272,39926,0
2288,39912,0
2300,39951,0
2308,39944,0
2320,39940,0
2328,39949,0
2336,39914,0
2320,39946,0
2324,39958,0
2320,39931,0
2312,39921,0
2308,39956,0
2292,39940,0
2280,39934,0
2264,39960,0
2266,39914,0
2240,39943,0
2256,39957,0
2225,39927,0
2228,39904,0
2224,39952,0
2224,39950,0
2218,39924,0
2216,39962,0
2224,39925,0
2229,39935,0
2225,39958,0
2240,39937,0
2248,39956,0
2260,39930,0
2264,39949,0
2274,39971,0
2284,39927,0
2296,39925,0
2304,39944,0
2312,39937,0
2328,39944,0
2332,39939,0
2340,39947,0
2352,39927,0
2344,39951,0
2344,39957,0
2356,39930,0
2344,39925,0
2345,39961,0
2328,39946,0
2320,39914,0
2312,39960,0
2296,39926,0
2280,39927,0
2264,39971,0
2384,39942,0
2240,39943,0
2240,39955,0
2228,39948,0
2210,39966,0
2216,39952,0
2224,39943,0
2226,39962,0
2234,39963,0
2240,39943,0
2248,39959,0
2260,39936,0
2268,39953,0
2280,39936,0
2282,39953,0
2292,39934,0
2306,39930,0
2296,39955,0
2298,39975,0
2296,39934,0
2276,39924,0
2276,39958,0
2260,39948,0
2256,39927,0
2252,39961,0
2244,39934,0
2256,39939,0
2232,39972,0
2232,39948,0
2224,39959,0
2226,39937,0
2208,39953,0
2208,39977,0
2208,39939,0
2208,39942,0
2200,39955,0
2201,39952,0
2208,39931,0
2208,39953,0
2218,39929,0
2224,39912,0
2240,39978,0
2244,39946,0
2253,39932,0
2296,39969,0
2282,39960,0
2300,39956,0
2306,39933,0
2320,39946,0
2328,39947,0
2340,39943,0
2332,39955,0
2344,39957,0
2328,39930,0
2328,39918,0
2320,39984,0
2306,39950,0
2298,39927,0
2282,39957,0
2274,39936,0
2256,39950,0
2248,39964,0
2240,39942,0
2228,39927,0
2230,39973,0
2212,39950,0
2212,39948,0
2208,39950,0
2218,39936,0
2228,39983,0
2228,39950,0
2248,39947,0
2248,39954,0
2260,39927,0
2264,39955,0
2272,39970,0
2292,39969,0
2296,39964,0
2302,39924,0
2314,39960,0
2308,39971,0
2312,39952,0
2312,39930,0
2292,39964,0
2290,39973,0
2284,39937,0
2280,39940,0
2272,39968,0
2264,39963,0
2244,39962,0
2244,39962,0
2248,39936,0
2232,39954,0
2224,39956,0
2208,39951,0
2200,39953,0
2208,39932,0
2188,39940,0
2184,39972,0
2184,39941,0
2196,39937,0
2192,39951,0
2192,39961,0
2208,39937,0
2216,39967,0
2224,39936,0
2248,39919,0
2252,39985,0
2268,39963,0
2296,39944,0
2298,39939,0
2320,39943,0
2340,39955,0
2328,39950,0
2328,39946,0
2336,39954,0
2328,39961,0
2320,39956,0
2312,39968,0
2308,39938,0
2296,39936,0
2288,39987,0
2284,39945,0
2272,39946,0
2272,39955,0
2256,39943,0
2248,39961,0
2232,39976,0
2232,39948,0
2220,39945,0
2208,39978,0
2202,39958,0
2208,39942,0
2208,39961,0
2208,39941,0
2208,39939,0
2216,39974,0
2224,39949,0
2240,39937,0
2236,39970,0
2256,39964,0
2250,39967,0
2264,39972,0
2276,39940,0
2284,39966,0
2296,39971,0
2298,39954,0
2312,39959,0
2312,39954,0
2314,39958,0
2328,39983,0
2320,39950,0
2305,39952,0
2300,39966,0
2292,39957,0
2280,39967,0
2265,39965,0
2252,39942,0
2240,39941,0
2228,39995,0
2224,39946,0
2208,39942,0
2208,39965,0
2192,39947,0
2192,39949,0
2208,39976,0
2202,39951,0
2216,39926,0
2212,39993,0
2232,39961,0
2242,39934,0
2256,39976,0
2272,39955,0
2416,39957,0
2288,39949,0
2298,39958,0
2304,39981,0
2312,39948,0
2336,39966,0
2324,39965,0
2328,39947,0
2338,39963,0
2338,39974,0
2338,39973,0
2336,39987,0
2328,39944,0
2336,39951,0
2316,39986,0
2304,39958,0
2298,39954,0
2288,39972,0
2276,39940,0
2272,39963,0
2260,39978,0
2256,39955,0
2248,39934,0
2232,39992,0
2228,39979,0
2232,39952,0
2229,39983,0
2232,39943,0
2240,39960,0
2248,39988,0
2260,39954,0
2272,39974,0
2284,39971,0
2296,39976,0
2330,39974,0
2320,39981,0
2320,39935,0
2336,39977,0
2336,39974,0
2336,39973,0
2320,39979,0
2328,39952,0
2324,39978,0
2304,39977,0
2300,39956,0
2288,39992,0
2288,39957,0
2264,39981,0
2256,39993,0
2240,39961,0
2236,39965,0
2224,39970,0
2218,39971,0
2216,39978,0
2216,39984,0
2224,39953,0
2240,39964,0
2240,40002,0
2242,39959,0
2256,39952,0
2266,39978,0
2280,39968,0
2282,39967,0
2302,39973,0
2306,39970,0
2316,39954,0
2344,39983,0
2344,39991,0
2344,39971,0
2360,39960,0
2362,39986,0
2376,39983,0
2368,39970,0
2368,39986,0
2376,39955,0
2356,39972,0
2356,40011,0
2356,39969,0
2344,39968,0
2328,39973,0
2320,39974,0
2312,39973,0
2300,39994,0
2292,39962,0
2288,39956,0
2272,40004,0
2272,39970,0
2264,39953,0
2260,39985,0
2264,39973,0
2280,39969,0
2280,39997,0
2293,39964,0
2296,39943,0
2296,39997,0
2316,39988,0
2322,39976,0
2340,39972,0
2352,39954,0
2344,40013,0
2352,39979,0
2360,39958,0
2344,39985,0
2336,39978,0
2328,39990,0
2320,39991,0
2304,39960,0
2288,39989,0
2280,39977,0
2272,39983,0
2256,39994,0
2248,39967,0
2242,39967,0
2216,40002,0
2224,39980,0
2216,39976,0
2212,39988,0
2220,39956,0
2228,39982,0
2208,39998,0
2220,39959,0
2224,39946,0
2228,39998,0
2240,39993,0
2256,39963,0
2264,39991,0
2272,39959,0
2280,39977,0
2288,39995,0
2304,39972,0
2308,39981,0
2316,39963,0
2332,40017,0
2344,39981,0
2348,39984,0
2364,40001,0
2352,39978,0
2352,39995,0
2340,40005,0
2324,39967,0
2320,39964,0
2316,39997,0
2300,39995,0
2288,39975,0
2276,39992,0
2272,39964,0
2256,39968,0
2240,40014,0
2236,39974,0
2216,39950,0
2208,39990,0
2216,39992,0
2210,39983,0
2234,39994,0
2240,39974,0
2244,39980,0
2252,40001,0
2264,39983,0
2296,40007,0
2280,40008,0
2296,39979,0
2304,39979,0
2304,39979,0
2312,39979,0
2324,39979,0
2328,39979,0
2344,39979,0
2352,39972,0
2348,39972,0
2352,39972,0
2360,39972,0
2352,39972,0
2352,39972,0
2360,39972,0
2346,40002,0
2348,40002,0
2352,40002,0
2344,40002,0
2352,40002,0
2344,40002,0
2368,40002,0
2368,39990,0
2356,39999,0
2356,39999,0
2372,39999,0
2384,39999,0
2384,39999,0
2384,39999,0
2408,39986,0
2416,40004,0
2425,40004,0
2440,40011,0
2460,40007,0
2490,39989,0
2516,39976,0
2544,40014,0
2580,40000,0
2624,39996,0
2644,39980,0
2676,39982,0
2696,40018,0
2720,39996,0
2756,39988,0
2800,40010,0
2808,39983,0
2840,40009,0
2840,40020,0
2848,39987,0
2856,39981,0
2848,40007,0
2824,39999,0
2800,39996,0
2762,39997,0
2736,39985,0
2704,40003,0
2660,40020,0
2644,39987,0
2596,39970,0
2416,39976,0
2368,40022,0
2340,39996,0
2312,39981,0
2284,40006,0
2256,39988,0
2136,39990,0
2192,40018,0
2160,39992,0
2128,39978,0
2100,40023,0
2072,40008,0
2056,40004,0
2028,40012,0
2008,39980,0
2000,40024,0
1984,40007,0
1984,39991,0
1984,40005,0
1972,39990,0
1976,40018,0
1984,40021,0
1993,39995,0
2016,39984,0
2020,40009,0
2032,40008,0
2048,39982,0
2052,40008,0
2068,39978,0
2080,39985,0
2104,40030,0
2100,39994,0
2112,39985,0
2120,39991,0
2144,40009,0
2148,40009,0
2160,40004,0
2156,39971,0
2160,40014,0
2168,40011,0
2160,39978,0
2160,40012,0
2152,39993,0
2148,40003,0
2144,40032,0
2152,40003,0
2140,40006,0
2128,40005,0
2120,39997,0
2128,40011,0
2128,40010,0
2112,39992,0
2096,40000,0
2092,40024,0
2088,40006,0
2104,40010,0
2098,39992,0
2112,40002,0
2122,40030,0
2136,40002,0
2148,39994,0
2168,40002,0
2168,39991,0
2188,40018,0
2184,39998,0
2192,40010,0
2188,39995,0
2200,40030,0
2196,40008,0
2192,40012,0
2208,40004,0
2192,40007,0
2192,40033,0
2184,40004,0
2192,40012,0
2184,40005,0
2176,40014,0
2170,40043,0
2168,40005,0
2172,39992,0
2164,40013,0
2172,40000,0
2168,40012,0
2164,40023,0
2176,39998,0
2168,39993,0
2164,40042,0
2166,40014,0
2168,39998,0
2178,40016,0
2176,39995,0
2180,39988,0
2196,40028,0
2208,40003,0
2210,39987,0
2218,40030,0
2248,40018,0
2248,40012,0
2272,39988,0
2296,40024,0
2292,40033,0
2306,40008,0
2328,40024,0
2320,39998,0
2321,39978,0
2320,40035,0
2316,40000,0
2312,39996,0
2296,40027,0
2288,40003,0
2280,40024,0
2260,40023,0
2256,40014,0
2245,40012,0
2228,40029,0
2224,40019,0
2224,40024,0
2208,40002,0
2193,39996,0
2196,40050,0
2200,40018,0
2208,40008,0
2212,40022,0
2224,39999,0
2228,40021,0
2242,40034,0
2252,40008,0
2264,40001,0
2272,40020,0
2296,40016,0
2292,40018,0
2304,40013,0
2306,40006,0
2316,40039,0
2330,40017,0
2328,40008,0
2340,40025,0
2328,39996,0
2336,40012,0
2336,40033,0
2328,40007,0
2320,40001,0
2322,40025,0
2312,40017,0
2292,39993,0
2284,40035,0
2272,40011,0
2276,40003,0
2264,40047,0
2250,40013,0
2240,40005,0
2232,40026,0
2242,40032,0
2240,40035,0
2240,40022,0
2248,40004,0
2256,40023,0
2256,40029,0
2274,40018,0
2288,40039,0
2296,40001,0
2304,40017,0
2320,40020,0
2332,40028,0
2338,40042,0
2348,40007,0
2352,40017,0
2352,40047,0
2346,40011,0
2338,40009,0
2328,40028,0
2324,40025,0
2312,40044,0
2304,40018,0
2300,40012,0
2288,40043,0
2276,40040,0
2274,40020,0
2268,40034,0
2258,40007,0
2256,40014,0
2256,40049,0
2256,40019,0
2256,39996,0
2258,40018,0
2264,40024,0
2256,40008,0
2260,40040,0
2272,40008,0
2280,39983,0
2284,40058,0
2290,40020,0
2296,40009,0
2304,40020,0
2312,40019,0
2322,40011,0
2328,40021,0
2344,40035,0
2338,39994,0
2336,40022,0
2336,40041,0
2330,40000,0
2324,39993,0
2320,40015,0
2304,40023,0
2296,40001,0
2292,40025,0
2268,40007,0
2256,39997,0
2240,40041,0
2226,40004,0
2216,39986,0
2216,40026,0
2188,39998,0
2200,40001,0
2200,40032,0
2208,39996,0
2204,39987,0
2213,40031,0
2228,40006,0
2248,40020,0
2262,39995,0
2276,39989,0
2312,39957,0
2316,40008,0
2324,39994,0
2336,39998,0
2344,40011,0
2348,40021,0
2352,40022,0
2348,39986,0
2360,39980,0
2356,40016,0
2352,40003,0
2340,39986,0
2330,40016,0
2328,39969,0
2320,39987,0
2304,40018,0
2304,39981,0
2284,39965,0
2280,39998,0
2280,39999,0
2272,39973,0
2264,40001,0
2256,39965,0
2252,39976,0
2256,40020,0
2264,39976,0
2272,39996,0
2274,39968,0
2288,39984,0
2304,40016,0
2308,39975,0
2316,39976,0
2328,39957,0
2344,39988,0
2356,39980,0
2372,39983,0
2372,39972,0
2384,39985,0
2388,39982,0
2380,39982,0
2384,39986,0
2376,39956,0
2360,39971,0
2360,40003,0
2344,39960,0
2336,39953,0
2320,39983,0
2306,39960,0
2304,39960,0
2280,39982,0
2264,39955,0
2256,39940,0
2248,39992,0
2234,39964,0
2228,39954,0
2230,39981,0
2244,39953,0
2242,39978,0
2256,39972,0
2256,39966,0
2264,39971,0
2268,39954,0
2280,39979,0
2272,39979,0
2296,39953,0
2304,39962,0
2316,39959,0
2322,39970,0
2336,39964,0
2352,39966,0
2344,39942,0
2352,39994,0
2368,39965,0
2356,39961,0
2356,39976,0
2360,39957,0
2348,39973,0
2348,39971,0
2344,39939,0
2336,39941,0
2316,39974,0
2312,39961,0
2288,39953,0
2280,39971,0
2272,39940,0
2276,39954,0
2260,39981,0
2244,39952,0
2244,39926,0
2248,39975,0
2248,39965,0
2256,39937,0
2264,39965,0
2282,39941,0
2288,39947,0
2298,39978,0
2308,39952,0
2324,39934,0
2332,39944,0
2340,39946,0
2344,39935,0
2354,39976,0
2356,39934,0
2344,39935,0
2352,39983,0
2336,39949,0
2324,39936,0
2328,39965,0
2312,39936,0
2300,39984,0
2300,39946,0
2280,39947,0
2280,39968,0
2268,39945,0
2272,39954,0
2264,39968,0
2272,39933,0
2252,39934,0
2256,39975,0
2252,39937,0
2248,39939,0
2248,39958,0
2240,39931,0
2256,39955,0
2248,39969,0
2256,39933,0
2262,39928,0
2264,39956,0
2276,39953,0
2282,39954,0
2204,39932,0
2313,39931,0
2306,39977,0
2312,39941,0
2320,39963,0
2314,39933,0
2308,39919,0
2304,39975,0
2312,39941,0
2300,39917,0
2288,39955,0
2284,39926,0
2260,39933,0
2256,39975,0
2232,39928,0
2224,39919,0
2208,39956,0
2212,39951,0
2196,39953,0
2192,39947,0
2192,39927,0
2184,39965,0
2200,39949,0
2208,39931,0
2216,39949,0
2224,39919,0
2232,39954,0
2248,39958,0
2260,39926,0
2265,39933,0
2280,39939,0
2288,39971,0
2292,39944,0
2296,39925,0
2292,39932,0
2296,39935,0
2288,39937,0
2280,39952,0
2280,39926,0
2272,39893,0
2272,39960,0
2264,39929,0
2256,39905,0
2256,39955,0
2252,39918,0
2248,39935,0
2248,39954,0
2252,39917,0
2242,39930,0
2232,39951,0
2228,39944,0
2228,39925,0
2232,39939,0
2220,39921,0
2228,39947,0
2220,39956,0
2228,39924,0
2240,39935,0
2244,39919,0
2264,39941,0
2264,39948,0
2276,39932,0
2290,39941,0
2296,39913,0
2316,39949,0
2322,39932,0
2336,39935,0
2332,39934,0
2328,39921,0
2320,39938,0
2328,39946,0
2308,39915,0
2304,39918,0
2288,39958,0
2276,39930,0
2272,39915,0
2248,39942,0
2248,39911,0
2240,39918,0
2240,39950,0
2224,39920,0
2220,39902,0
2224,39949,0
2220,39932,0
2212,39924,0
2224,39940,0
2218,39910,0
2224,39939,0
2232,39950,0
2240,39926,0
2256,39950,0
2272,39923,0
2280,39934,0
2272,39958,0
2296,39919,0
2296,39910,0
2312,39923,0
2224,39930,0
2328,39921,0
2328,39931,0
2328,39939,0
2328,39926,0
2320,39959,0
2312,39930,0
2308,39929,0
2308,39941,0
2288,39935,0
2280,39940,0
2274,39945,0
2264,39918,0
2248,39907,0
2236,39970,0
2224,39932,0
2232,39909,0
2208,39940,0
2200,39904,0
2192,39925,0
2196,39944,0
2200,39922,0
2216,39909,0
2224,39949,0
2228,39947,0
2228,39913,0
2244,39946,0
2264,39924,0
2272,39929,0
2288,39967,0
2296,39939,0
2298,39934,0
2336,39910,0
2332,39975,0
2336,39933,0
2352,39939,0
2340,39945,0
2352,39934,0
2336,39960,0
2328,39940,0
2320,39926,0
2308,39948,0
2292,39953,0
2296,39958,0
2284,39958,0
2272,39928,0
2272,39935,0
2266,39968,0
2256,39943,0
2248,39926,0
2244,39946,0
2240,39920,0
2232,39941,0
2224,39963,0
2232,39944,0
2232,39899,0
2240,39957,0
2242,39948,0
2248,39917,0
2253,39962,0
2280,39932,0
2282,39955,0
2304,39970,0
2312,39965,0
2316,39931,0
2336,39916,0
2340,39961,0
2340,39962,0
2336,39940,0
2352,39928,0
2352,39952,0
2336,39950,0
2336,39935,0
2324,39954,0
2322,39925,0
2298,39922,0
2288,39972,0
2280,39928,0
2280,39915,0
2272,39947,0
2252,39941,0
2248,39940,0
2244,39949,0
2244,39920,0
2248,39936,0
2256,39965,0
2264,39942,0
2280,39959,0
2288,39933,0
2296,39936,0
2316,39974,0
2313,39934,0
2324,39932,0
2336,39939,0
2344,39946,0
2352,39935,0
2356,39943,0
2360,39935,0
2368,39944,0
2376,39956,0
2380,39926,0
2372,39945,0
2380,39935,0
2380,39921,0
2376,39967,0
2384,39933,0
2372,39927,0
2368,39955,0
2356,39928,0
2348,39938,0
2336,39945,0
2320,39933,0
2304,39907,0
2304,39961,0
2284,39947,0
2282,39912,0
2272,39956,0
2264,39916,0
2264,39944,0
2272,39959,0
2272,39923,0
2288,39934,0
2290,39940,0
2296,39942,0
2316,39935,0
2320,39951,0
2336,39947,0
2352,39953,0
2344,39946,0
2338,39940,0
2340,39927,0
2336,39949,0
2324,39953,0
2324,39942,0
2308,39954,0
2300,39924,0
2292,39923,0
2280,39961,0
2265,39938,0
2256,39926,0
2256,39949,0
2252,39932,0
2240,39923,0
2228,39965,0
2224,39941,0
2224,39920,0
2228,39960,0
2232,39947,0
2240,39951,0
2248,39944,0
2264,39931,0
2264,39975,0
2272,39940,0
2276,39936,0
2288,39947,0
2292,39934,0
2304,39952,0
2312,39935,0
2328,39966,0
2336,39922,0
2348,39940,0
2352,39949,0
2376,39938,0
2368,39954,0
2376,39923,0
2376,39949,0
2376,39969,0
2384,39931,0
2372,39951,0
2368,39942,0
2352,39953,0
2344,39958,0
2340,39939,0
2320,39938,0
2312,39959,0
2292,39953,0
2280,39944,0
2268,39959,0
2264,39928,0
2260,39950,0
2260,39962,0
2256,39938,0
2260,39931,0
2272,39953,0
2276,39951,0
2288,39943,0
2300,39960,0
2308,39935,0
2328,39959,0
2352,39971,0
2348,39940,0
2362,39950,0
2368,39968,0
2368,39923,0
2376,39990,0
2372,39939,0
2370,39936,0
2360,39953,0
2360,39952,0
2356,39940,0
2352,39976,0
2352,39938,0
2344,39930,0
2340,39982,0
2336,39951,0
2342,39932,0
2336,39969,0
2316,39951,0
2328,39958,0
2314,39962,0
2304,39950,0
2304,39955,0
2304,39965,0
2296,39965,0
2304,39960,0
2304,39956,0
2304,39937,0
2312,39985,0
2328,39953,0
2328,39953,0
2340,39971,0
2344,39943,0
2448,39964,0
2360,39974,0
2368,39951,0
2376,39947,0
2368,39971,0
2352,39964,0
2356,39958,0
2348,39976,0
2336,39936,0
2336,39936,0
2312,39980,0
2312,39949,0
2296,39924,0
2280,39964,0
2276,39959,0
2264,39941,0
2256,39962,0
2240,39940,0
2240,39927,0
2232,39993,0
2228,39953,0
2224,39934,0
2232,39960,0
2232,39956,0
2244,39964,0
2258,39970,0
2264,39954,0
2276,39961,0
2288,39984,0
2300,39963,0
2314,39949,0
2320,39951,0
2328,39935,0
2336,39972,0
2332,39965,0
2332,39957,0
2324,39965,0
2320,39948,0
2324,39967,0
2304,39980,0
2296,39948,0
2288,39933,0
2276,39986,0
2280,39961,0
2272,39943,0
2260,39977,0
2264,39942,0
2252,39957,0
2240,39983,0
2232,39943,0
2240,39936,0
2228,39974,0
2216,39975,0
2224,39961,0
2216,39980,0
2232,39953,0
2226,39971,0
2232,39975,0
2248,39964,0
2258,39983,0
2268,39950,0
2280,39957,0
2292,39973,0
2316,39988,0
2320,39962,0
2344,39963,0
2352,39955,0
2352,39987,0
2360,39954,0
2352,39966,0
2352,39980,0
2344,39981,0
2344,39976,0
2336,39958,0
2336,39947,0
2320,39989,0
2314,39971,0
2306,39968,0
2296,39981,0
2296,39943,0
2276,39964,0
2280,39980,0
2272,39955,0
2280,39955,0
2272,39969,0
2272,39976,0
2288,39948,0
2281,39986,0
2308,39949,0
2304,39945,0
2312,39999,0
2324,39967,0
2340,39960,0
2328,39979,0
2344,39971,0
2352,39990,0
2356,39975,0
2368,39947,0
2360,39971,0
2370,39977,0
2376,39951,0
2376,39976,0
2376,39963,0
2384,39942,0
2388,39999,0
2376,39961,0
2372,39941,0
2352,39976,0
2344,39968,0
2328,39960,0
2320,39997,0
2312,39964,0
2298,39967,0
2288,39979,0
2280,39978,0
2264,39978,0
2258,39965,0
2256,39959,0
2256,40009,0
2266,39968,0
2272,39968,0
2272,39976,0
2276,39956,0
2280,39989,0
2296,39981,0
2336,39979,0
2340,39964,0
2352,39972,0
2356,39986,0
2368,39963,0
2362,39952,0
2368,39983,0
2372,39979,0
2372,39985,0
2372,39990,0
2376,39964,0
2368,39976,0
2362,40005,0
2352,39978,0
2352,39987,0
2329,39981,0
2360,39979,0
2336,40009,0
2336,39964,0
2322,39969,0
2314,39983,0
2308,39974,0
2304,39975,0
2304,39987,0
2304,39962,0
2292,39961,0
2292,40006,0
2288,39968,0
2304,39962,0
2312,39992,0
2320,39967,0
2312,39969,0
2340,39979,0
2336,39967,0
2352,39985,0
2352,39988,0
2360,39978,0
2376,39958,0
2384,39996,0
2376,39963,0
2372,39998,0
2368,39991,0
2356,39986,0
2352,39993,0
2338,39984,0
2340,39993,0
2320,40000,0
2308,39977,0
2292,39974,0
2282,40001,0
2272,39996,0
2260,39981,0
2256,39993,0
2252,39961,0
2244,39992,0
2240,40009,0
2244,39964,0
2244,39982,0
2256,39979,0
2261,39984,0
2280,39973,0
2292,40002,0
2289,39970,0
2296,39958,0
2304,39988,0
2316,39993,0
2320,39975,0
2330,39971,0
2344,40001,0
2346,39998,0
2346,40004,0
2352,39972,0
2352,39975,0
2368,40009,0
2360,39982,0
2368,39972,0
2496,40010,0
2360,39971,0
2352,39977,0
2340,39997,0
2336,39985,0
2328,39953,0
2320,40002,0
2304,40001,0
2288,39966,0
2266,39996,0
2248,39977,0
2240,39984,0
2224,40005,0
2224,39995,0
2224,40002,0
2216,39975,0
2220,40005,0
2228,40016,0
2228,39983,0
2232,39984,0
2244,40001,0
2264,40009,0
2272,39986,0
2288,39985,0
2296,39997,0
2304,40000,0
2328,40000,0
2328,40005,0
2346,39992,0
2344,39984,0
2352,40010,0
2360,40003,0
2362,39993,0
2380,40005,0
2416,39986,0
2432,39999,0
2468,40008,0
2504,39993,0
2536,39979,0
2560,40005,0
2592,39999,0
2628,39991,0
2664,40010,0
2706,39978,0
2752,39995,0
2776,40024,0
2816,39992,0
2848,39984,0
2852,40004,0
2872,40008,0
2880,39980,0
2868,40006,0
2864,40004,0
2832,39994,0
2816,40005,0
2788,40012,0
2752,40002,0
2736,39979,0
2720,39973,0
2680,40029,0
2640,39996,0
2592,39976,0
2552,39995,0
2496,40001,0
2450,39985,0
2412,40021,0
2360,39998,0
2328,39971,0
2280,40029,0
2240,39995,0
2220,39982,0
2192,40010,0
2160,39993,0
2144,40000,0
2122,40021,0
2112,39991,0
2088,39974,0
2081,40027,0
2084,40010,0
2092,40002,0
2100,40003,0
2104,39990,0
2116,40035,0
2112,40015,0
2128,40011,0
2129,39995,0
2128,39986,0
2144,40018,0
2152,40002,0
2172,40018,0
2160,39991,0
2176,39986,0
2168,40034,0
2168,39995,0
2176,40000,0
2184,40021,0
2184,40004,0
2180,40009,0
2184,40024,0
2184,39994,0
2184,39979,0
2184,40035,0
2180,40004,0
2180,39987,0
2184,40020,0
2186,39995,0
2177,40015,0
2180,40025,0
2176,40012,0
2184,40009,0
2186,40022,0
2192,40014,0
2188,40021,0
2200,40001,0
2208,40000,0
2210,40039,0
2232,40031,0
2234,40018,0
2260,40001,0
2264,40002,0
2274,40059,0
2272,40011,0
2276,40002,0
2284,40019,0
2284,39998,0
2284,40026,0
2280,40025,0
2272,39999,0
2252,39996,0
2240,40031,0
2224,40014,0
2216,40007,0
2208,40027,0
2196,39992,0
2186,40009,0
2172,40034,0
2176,40002,0
2162,39987,0
2168,40021,0
2164,40022,0
2180,39990,0
2178,40033,0
2192,40008,0
2192,39997,0
2208,40050,0
2228,40009,0
2234,39994,0
2241,40026,0
2256,40014,0
2274,40022,0
2272,40012,0
2288,40023,0
2300,40015,0
2308,40027,0
2332,40023,0
2320,40033,0
2336,40013,0
2336,40006,0
2336,40048,0
2340,40019,0
2336,40016,0
2328,40028,0
2324,40028,0
2304,40050,0
2288,40024,0
2276,40011,0
2264,40035,0
2248,40029,0
2240,40028,0
2240,40037,0
2228,40015,0
2224,40019,0
2208,40051,0
2218,40022,0
2228,40025,0
2233,40036,0
2240,40024,0
2272,40035,0
2264,40051,0
2280,40029,0
2292,40028,0
2312,40022,0
2320,40046,0
2336,40033,0
2336,40016,0
2356,40004,0
2352,40058,0
2340,40034,0
2324,40005,0
2304,40042,0
2304,40011,0
2292,40031,0
2288,40043,0
2268,40020,0
2256,40014,0
2240,40050,0
2240,40041,0
2232,40028,0
2216,40023,0
2220,40012,0
2224,40048,0
2216,40045,0
2210,40026,0
2208,40049,0
2210,40017,0
2216,40046,0
2216,40053,0
2228,40033,0
2228,40030,0
2236,40048,0
2244,40053,0
2266,40053,0
2276,40018,0
2288,40003,0
2300,40036,0
2304,40047,0
2304,40046,0
2300,40025,0
2300,40015,0
2292,40070,0
2292,40035,0
2274,40025,0
2264,40046,0
2242,40024,0
2240,40065,0
2224,40049,0
2208,40031,0
2200,40043,0
2176,40030,0
2176,40046,0
2176,40053,0
2148,40028,0
2144,40012,0
2140,40066,0
2144,40044,0
2156,40027,0
2160,40046,0
2180,40018,0
2184,40035,0
2200,40051,0
2224,40029,0
2226,40018,0
2240,40054,0
2272,40044,0
2272,40056,0
2280,40039,0
2292,40024,0
2284,40037,0
2292,40047,0
2304,40021,0
2296,40056,0
2304,40021,0
2290,40027,0
2296,40073,0
2292,40036,0
2284,40021,0
2282,40045,0
2280,40049,0
2272,40043,0
2264,40054,0
2256,40025,0
2244,40043,0
2234,40052,0
2218,40034,0
2216,40044,0
2208,40040,0
2208,40037,0
2208,40071,0
2194,40048,0
2196,40028,0
2208,40039,0
2208,40054,0
2228,40038,0
2240,40052,0
2244,40031,0
2260,40044,0
2264,40042,0
2290,40040,0
2320,40039,0
2320,40021,0
2328,40054,0
2352,40042,0
2340,40020,0
2332,40040,0
2328,40013,0
2328,40030,0
2324,40045,0
2304,40023,0
2304,40000,0
2284,40028,0
2272,40029,0
2260,40010,0
2256,40043,0
2252,40012,0
2244,40010,0
2242,40057,0
2240,40016,0
2232,40019,0
2232,40028,0
2240,40019,0
2234,40036,0
2256,40015,0
2268,40016,0
2272,40033,0
2280,40015,0
2284,40019,0
2288,40030,0
2300,39989,0
2312,39990,0
2320,40034,0
2336,40002,0
2338,40013,0
2344,39995,0
2352,40001,0
2352,40034,0
2368,40002,0
2372,40023,0
2368,39989,0
2368,40009,0
2352,40034,0
2336,39997,0
2336,39996,0
2320,40014,0
2314,40021,0
2312,39997,0
2288,40011,0
2272,39985,0
2272,39977,0
2256,40040,0
2260,39995,0
2248,39978,0
2256,40011,0
2256,39984,0
2260,39991,0
2276,40021,0
2264,39984,0
2285,39969,0
2288,40027,0
2296,39997,0
2312,39979,0
2320,39997,0
2324,39955,0
2324,40002,0
2316,40002,0
2320,39980,0
2314,40000,0
2304,39982,0
2304,39999,0
2280,40009,0
2274,39979,0
2256,39969,0
2240,40021,0
2236,39991,0
2228,39984,0
2224,40004,0
2208,39969,0
2204,39997,0
2188,40007,0
2184,39975,0
2192,39976,0
2184,40000,0
2178,39988,0
2184,39975,0
2184,40004,0
2192,39956,0
2192,39973,0
2201,40012,0
2200,39985,0
2225,39965,0
2224,40003,0
2232,39987,0
2244,39997,0
2252,39999,0
2248,39968,0
2268,39980,0
2280,39999,0
2288,39994,0
2288,39996,0
2284,39969,0
2288,39970,0
2276,40006,0
2274,39974,0
2266,39986,0
2256,39975,0
2248,39987,0
2240,40006,0
2224,39987,0
2208,39973,0
2204,39980,0
2192,39993,0
2180,39977,0
2176,39996,0
2176,39978,0
2168,39972,0
2164,40013,0
2178,39970,0
2176,39973,0
2192,39983,0
2208,39972,0
2224,39978,0
2246,39998,0
2245,39969,0
2248,39948,0
2272,39981,0
2280,39987,0
2288,39983,0
2304,39973,0
2320,39965,0
2320,39985,0
2336,40002,0
2336,39968,0
2352,39971,0
2360,39991,0
2360,39980,0
2360,39961,0
2352,39991,0
2340,39960,0
2340,39955,0
2324,40017,0
2320,39981,0
2316,39951,0
2304,39985,0
2290,39985,0
2274,39982,0
2260,39986,0
2248,39963,0
2240,39968,0
2232,40008,0
2248,39976,0
2242,39963,0
2240,39982,0
2240,39971,0
2244,40009,0
2242,40002,0
2256,39969,0
2272,39966,0
2280,40005,0
2292,39986,0
2304,39970,0
2312,39966,0
2320,39960,0
2328,40014,0
2328,39986,0
2336,39951,0
2320,39995,0
2320,39965,0
2308,39972,0
2292,39991,0
2274,39966,0
2260,39973,0
2264,39992,0
2240,39985,0
2228,39998,0
2208,39968,0
2208,39962,0
2200,40003,0
2200,39992,0
2200,39962,0
2208,39979,0
2210,39957,0
2216,39987,0
2224,39999,0
2228,39970,0
2240,39962,0
2256,39994,0
2266,39972,0
2264,39971,0
2280,39989,0
2273,39958,0
2290,39970,0
2296,39990,0
2304,39980,0
2306,39986,0
2304,39954,0
2304,39974,0
2296,40002,0
2288,39962,0
2272,39961,0
2268,39989,0
2260,39973,0
2264,39952,0
2264,39989,0
2248,39958,0
2229,39961,0
2232,40007,0
2216,39962,0
2217,39965,0
2218,39969,0
2216,39972,0
2208,39990,0
2204,39980,0
2216,39962,0
2212,39982,0
2220,39983,0
2244,39963,0
2240,39982,0
2256,39957,0
2276,39962,0
2276,40005,0
2288,39984,0
2304,39968,0
2308,39946,0
2322,39981,0
2316,39977,0
2312,39986,0
2312,39968,0
2304,39961,0
2304,39994,0
2282,39978,0
2280,39986,0
2264,39970,0
2260,39973,0
2240,40004,0
2236,39980,0
2228,39969,0
2226,39990,0
2224,39965,0
2216,39987,0
2216,39985,0
2224,39958,0
2224,39956,0
2216,40000,0
2224,39974,0
2228,39955,0
2240,39985,0
2240,39956,0
2256,39983,0
2248,39988,0
2256,39972,0
2272,39946,0
2304,39980,0
2304,40003,0
2320,39967,0
2336,39996,0
2336,39973,0
2352,39980,0
2364,39990,0
2368,39990,0
2368,39969,0
2368,39961,0
2368,40006,0
2356,39983,0
2352,39969,0
2336,39995,0
2321,39964,0
2306,39976,0
2296,39987,0
2280,39959,0
2268,39954,0
2272,39994,0
2242,39984,0
2232,39951,0
2240,40001,0
2232,39961,0
2244,39965,0
2240,40015,0
2256,39966,0
2260,39958,0
2272,39988,0
2288,39993,0
2289,39972,0
2304,40003,0
2312,39980,0
2328,39968,0
2336,40008,0
2336,39967,0
2344,39999,0
2360,39963,0
2356,39982,0
2352,40002,0
2376,39965,0
2360,39955,0
2360,39991,0
2360,39976,0
2368,39970,0
2352,39997,0
2340,39966,0
2336,39950,0
2320,40024,0
2308,39977,0
2296,39974,0
2288,39983,0
2288,39976,0
2272,40002,0
2258,39978,0
2256,39966,0
2260,39985,0
2248,39986,0
2256,39979,0
2248,39991,0
2248,39951,0
2252,39966,0
2260,40013,0
2256,39980,0
2272,40000,0
2276,39999,0
2284,39955,0
2290,39998,0
2304,39976,0
2296,39971,0
2304,39987,0
2292,39967,0
2280,39971,0
2266,39986,0
2264,39962,0
2256,39934,0
2242,39999,0
2224,39979,0
2228,39964,0
2208,39997,0
2196,39968,0
2192,39993,0
2184,39994,0
2176,39964,0
2168,39979,0
2176,39980,0
2176,39990,0
2168,39998,0
2178,39961,0
2184,39957,0
2192,39994,0
2196,39980,0
2212,39947,0
2224,39996,0
2232,39961,0
2240,39974,0
2256,39994,0
2272,39976,0
2282,39963,0
2288,39967,0
2296,39978,0
2300,39985,0
2312,39971,0
2328,39939,0
2320,39994,0
2320,39986,0
2320,39973,0
2320,39983,0
2306,39960,0
2304,40008,0
2288,39985,0
2272,39968,0
2256,39992,0
2248,39959,0
2228,39983,0
2208,39992,0
2212,39967,0
2180,39961,0
2180,39987,0
2180,39979,0
2176,39950,0
2176,39988,0
2186,39955,0
2200,39960,0
2200,40004,0
2224,39967,0
2236,39956,0
2248,39989,0
2268,39993,0
2265,40008,0
2288,39963,0
2304,39972,0
2314,39960,0
2328,39984,0
2336,39956,0
2320,40003,0
2322,39963,0
2312,39970,0
2312,40005,0
2300,39963,0
2304,39982,0
2280,39970,0
2272,39978,0
2264,40005,0
2264,39965,0
2256,39970,0
2252,39987,0
2240,39981,0
2240,39977,0
2233,39998,0
2232,39963,0
2244,39960,0
2240,40001,0
2240,39971,0
2256,39957,0
2258,39979,0
2256,39988,0
2272,39975,0
2280,39994,0
2289,39976,0
2304,39983,0
2312,39990,0
2320,39984,0
2336,39968,0
2468,39953,0
2344,39988,0
2368,40003,0
2354,39988,0
2352,39999,0
2352,39967,0
2340,39978,0
2356,40008,0
2328,39962,0
2320,39970,0
2316,39998,0
2296,39987,0
2298,39988,0
2280,39998,0
2260,39978,0
2252,39950,0
2248,40014,0
2232,39981,0
2232,39967,0
2228,40000,0
2228,39979,0
2232,40000,0
2244,39989,0
2256,39967,0
2272,39982,0
2276,39990,0
2288,39985,0
2292,39992,0
2316,39989,0
2320,39962,0
2336,39995,0
2336,40013,0
2336,39984,0
2344,39997,0
2348,39958,0
2352,39993,0
2352,39989,0
2352,39973,0
2344,39974,0
2340,40000,0
2324,39984,0
2312,40004,0
2320,39981,0
2312,39964,0
2288,40013,0
2280,39987,0
2264,39978,0
2248,40004,0
2240,39969,0
2232,39999,0
2224,40011,0
2216,39981,0
2218,39979,0
2210,39995,0
2224,39993,0
2212,39976,0
2224,40004,0
2252,39962,0
2240,39963,0
2264,40023,0
2288,39989,0
2288,39995,0
2304,39982,0
2320,40025,0
2320,40011,0
2328,39990,0
2328,40009,0
2320,39980,0
2320,40000,0
2304,40004,0
2300,39981,0
2292,39983,0
2280,39999,0
2264,39991,0
2256,39992,0
2256,39998,0
2240,39970,0
2236,39993,0
2228,40013,0
2224,39983,0
2224,39985,0
2224,40001,0
2228,40006,0
2232,39987,0
2240,40003,0
2244,39978,0
2256,39976,0
2264,40019,0
2264,39980,0
2277,39969,0
2282,40001,0
2288,39981,0
2298,40001,0
2306,39977,0
2316,39997,0
2326,39982,0
2336,40020,0
2340,39994,0
2352,39972,0
2348,39995,0
2354,39982,0
2344,40004,0
2352,40006,0
2344,39987,0
2336,39993,0
2324,39991,0
2316,40004,0
2320,39997,0
2288,39992,0
2276,39973,0
2264,40008,0
2256,39990,0
2248,39978,0
2240,40011,0
2224,39965,0
2216,40002,0
2224,40008,0
2224,39979,0
2228,39981,0
2240,40004,0
2248,39995,0
2260,39984,0
2264,39998,0
2284,40001,0
2300,39997,0
2312,40018,0
2320,40009,0
2324,39982,0
2328,39957,0
2328,40023,0
2324,39996,0
2320,39986,0
2312,40011,0
2304,39974,0
2296,39999,0
2276,40012,0
2274,39987,0
2264,39998,0
2256,39994,0
2240,40004,0
2240,40014,0
2234,40000,0
2232,39987,0
2232,40017,0
2220,39992,0
2220,39994,0
2220,40007,0
2216,39988,0
2224,40001,0
2232,40016,0
2232,39988,0
2240,39973,0
2248,40005,0
2256,39997,0
2256,39985,0
2266,39995,0
2272,39981,0
2288,40002,0
2308,40027,0
2320,39993,0
2324,39993,0
2340,40002,0
2336,40006,0
2344,40032,0
2336,39990,0
2336,39995,0
2336,40006,0
2324,40003,0
2320,39993,0
2304,40001,0
2288,39974,0
2280,39985,0
2274,40019,0
2188,39990,0
2256,39971,0
2248,39996,0
2240,39993,0
2240,39996,0
2240,40024,0
2240,39990,0
2244,39994,0
2252,40025,0
2260,39995,0
2268,39997,0
2284,40011,0
2288,39985,0
2300,40023,0
2305,39995,0
2316,39982,0
2312,40008,0
2328,40002,0
2336,40015,0
2344,39995,0
2356,39998,0
2352,40004,0
2364,39994,0
2362,40009,0
2368,40016,0
2364,39995,0
2376,39983,0
2356,40033,0
2352,39995,0
2336,39975,0
2328,40015,0
2328,39997,0
2320,39992,0
2290,40005,0
2288,39998,0
2280,39957,0
2266,40022,0
2272,40012,0
2152,39993,0
2256,40013,0
2266,39978,0
2272,40005,0
2264,40026,0
2280,39987,0
2280,40010,0
2288,40005,0
2288,40002,0
2296,39986,0
2308,39995,0
2320,39995,0
2332,39993,0
2324,40014,0
2320,40004,0
2320,40023,0
2332,39983,0
2308,40002,0
2300,40031,0
2292,39999,0
2280,39979,0
2273,40008,0
2268,40007,0
2256,39990,0
2256,40023,0
2260,40002,0
2258,39992,0
2264,40045,0
2264,39997,0
2278,39993,0
2292,40015,0
2316,39996,0
2337,40028,0
2376,40018,0
2408,39997,0
2450,40013,0
2484,40024,0
2528,40018,0
2572,40021,0
2608,40011,0
2664,39998,0
2708,40012,0
2752,40027,0
2792,39997,0
2832,40003,0
2864,39994,0
2896,40047,0
2900,40000,0
2904,40005,0
3024,40017,0
2880,40004,0
2852,40019,0
2816,40022,0
2784,40004,0
2736,39988,0
2680,40039,0
2632,40008,0
2592,39992,0
2528,40015,0
2488,39986,0
2432,39999,0
2362,40028,0
2314,39998,0
2274,39982,0
2240,40014,0
2212,40017,0
2200,40015,0
2184,40023,0
2176,39984,0
2172,40031,0
2168,40024,0
2164,40008,0
2162,40012,0
2170,39983,0
2160,40026,0
2160,40006,0
2162,40003,0
2172,40024,0
2164,39994,0
2154,40029,0
2148,40032,0
2152,40000,0
2136,39994,0
2128,40035,0
2128,40016,0
2104,40009,0
2112,40019,0
2100,39987,0
2100,40019,0
2100,40036,0
2092,40008,0
2088,39997,0
2084,40021,0
2080,40019,0
2084,39998,0
2080,40026,0
2073,40007,0
2074,39991,0
2068,40048,0
2080,40003,0
2096,39994,0
2108,40032,0
2118,40012,0
2132,40044,0
2144,40024,0
2162,40012,0
2180,39997,0
2192,40030,0
2212,40041,0
2218,40033,0
2240,40009,0
2260,40018,0
2248,40043,0
2250,40010,0
2248,40028,0
2248,40012,0
2240,40014,0
2236,40045,0
2232,40013,0
2228,40008,0
2216,40017,0
2212,40025,0
2208,40019,0
2192,40034,0
2180,40008,0
2180,40004,0
2176,40057,0
2176,40013,0
2178,40006,0
2176,40031,0
2192,40013,0
2196,40031,0
2212,40044,0
2216,40007,0
2233,39994,0
2240,40042,0
2256,40047,0
2264,40047,0
2280,40011,0
2284,40040,0
2292,40044,0
2314,40022,0
2316,40041,0
2316,40018,0
2328,40005,0
2344,40053,0
2332,40031,0
2336,40008,0
2328,40031,0
2332,40016,0
2316,40033,0
2308,40042,0
2304,40003,0
2288,40010,0
2284,40045,0
2264,40035,0
2256,40016,0
2244,40038,0
2244,40011,0
2232,40026,0
2232,40048,0
2232,40013,0
2240,40006,0
2244,40036,0
2244,40024,0
2252,40009,0
2258,40040,0
2266,40007,0
2280,40026,0
2288,40040,0
2308,40031,0
2312,40005,0
2316,40034,0
2320,40023,0
2336,40040,0
2322,40042,0
2320,40017,0
2300,40034,0
2298,40042,0
2296,40031,0
2284,40046,0
2272,40012,0
2256,40021,0
2240,40060,0
2248,40019,0
2242,40024,0
2240,40034,0
2216,40028,0
2224,40032,0
2210,40050,0
2208,40025,0
2210,40000,0
2224,40054,0
2218,40032,0
2240,40011,0
2250,40049,0
2256,40013,0
2264,40034,0
2264,40054,0
2298,40021,0
2290,40018,0
2320,40040,0
2312,40036,0
2336,40039,0
2336,40019,0
2340,40041,0
2340,40032,0
2344,40015,0
2344,40051,0
2336,40018,0
2336,40004,0
2324,40071,0
2304,40037,0
2296,40026,0
2280,40053,0
2274,40024,0
2258,40069,0
2242,40037,0
2240,40023,0
2232,40047,0
2224,40044,0
2216,40043,0
2232,40051,0
2228,40022,0
2240,40019,0
2240,40061,0
2256,40037,0
2260,40025,0
2277,40038,0
2288,40021,0
2298,40027,0
2296,40057,0
2304,40035,0
2308,40021,0
2312,40055,0
2304,40045,0
2304,40059,0
2300,40025,0
2288,40010,0
2272,40053,0
2264,40031,0
2256,40022,0
2248,40040,0
2244,40017,0
2232,40025,0
2226,40049,0
2232,40025,0
2220,40006,0
2224,40052,0
2212,40052,0
2216,40011,0
2212,40057,0
2208,40016,0
2209,40034,0
2216,40066,0
2212,40040,0
2218,40035,0
2224,40040,0
2232,40040,0
2240,40061,0
2252,40049,0
2268,40040,0
2272,40039,0
2288,40009,0
2304,40024,0
2308,40024,0
2316,40023,0
2336,40023,0
2336,40023,0
2336,40023,0
2348,40023,0
2352,40023,0
2372,40023,0
2368,39990,0
2384,40038,0
2384,40038,0
2386,40038,0
2392,40038,0
2400,40038,0
2404,40038,0
2410,40012,0
2424,40004,0
2420,40004,0
2420,40004,0
2416,40004,0
2418,40004,0
2420,40004,0
2420,40004,0
2420,40021,0
2412,40021,0
2404,40021,0
2412,40021,0
2410,40021,0
2410,40021,0
2410,40021,0
2416,40021,0
2416,39970,0
2416,40009,0
2420,40005,0
2424,39982,0
2416,39997,0
2412,39970,0
2400,40011,0
2384,39998,0
2360,39981,0
2360,40006,0
2344,39959,0
2328,39996,0
2316,40004,0
2312,39977,0
2292,39973,0
2272,39998,0
2272,39998,0
2264,39991,0
2240,39999,0
2228,39972,0
2224,39959,0
2224,40010,0
2228,39973,0
2216,39965,0
2224,39992,0
2220,39984,0
2228,39983,0
2256,39971,0
2256,39967,0
2256,39971,0
2260,39999,0
2252,39971,0
2256,39968,0
2256,39997,0
2248,39969,0
2244,39984,0
2236,40004,0
2236,39975,0
2224,39958,0
2224,39996,0
2224,39985,0
2224,39959,0
2200,40007,0
2200,39957,0
2192,39979,0
2184,40015,0
2184,39986,0
2180,39975,0
2193,39975,0
2185,39987,0
2192,39987,0
2202,39971,0
2216,39956,0
2220,39987,0
2240,39985,0
2248,39971,0
2257,39994,0
2272,39960,0
2272,39986,0
2290,39958,0
2296,39976,0
2320,39955,0
2328,39959,0
2324,39990,0
2344,39997,0
2336,39956,0
2336,39957,0
2328,39971,0
2320,39988,0
2314,39957,0
2308,39984,0
2296,39956,0
2284,39953,0
2276,40011,0
2272,39965,0
2256,39958,0
2260,39964,0
2240,39974,0
2240,39978,0
2218,39994,0
2212,39958,0
2212,39976,0
2208,39994,0
2196,39974,0
2194,39981,0
2208,39968,0
2208,39967,0
2200,40006,0
2220,39970,0
2236,39963,0
2228,39986,0
2256,39958,0
2264,39978,0
2272,39957,0
2292,39983,0
2296,39991,0
2304,39976,0
2312,39967,0
2320,39989,0
2312,39955,0
2314,39935,0
2296,39999,0
2298,39962,0
2280,39947,0
2264,39996,0
2252,39962,0
2240,39972,0
2224,39995,0
2224,39959,0
2212,39968,0
2200,39987,0
2196,39962,0
2196,39977,0
2194,39966,0
2196,39954,0
2201,39986,0
2212,39955,0
2220,39958,0
2228,39979,0
2232,39953,0
2240,39984,0
2241,39975,0
2248,39951,0
2256,39970,0
2260,39965,0
2266,39985,0
2272,39947,0
2264,39985,0
2264,39942,0
2265,39951,0
2268,39986,0
2272,39957,0
2272,39942,0
2260,39970,0
2268,39978,0
2256,39970,0
2252,39968,0
2248,39954,0
2248,39982,0
2228,39971,0
2232,39961,0
2208,39982,0
2208,39942,0
2200,39973,0
2184,39998,0
2176,39952,0
2180,39961,0
2178,39959,0
2184,39969,0
2196,39951,0
2208,39968,0
2212,39947,0
2248,39940,0
2240,39998,0
2244,39960,0
2272,39942,0
2280,39954,0
2292,39951,0
2296,39982,0
2304,39966,0
2304,39946,0
2300,39968,0
2304,39979,0
2288,39972,0
2280,39989,0
2266,39949,0
2256,39953,0
2244,39992,0
2240,39959,0
2232,39960,0
2228,39976,0
2224,39958,0
2216,39963,0
2216,39977,0
2208,39958,0
2212,39935,0
2224,39997,0
2220,39979,0
2224,39948,0
2224,39978,0
2228,39949,0
2234,39974,0
2240,39989,0
2248,39957,0
2256,39930,0
2256,39976,0
2276,39967,0
2288,39969,0
2290,39984,0
2300,39958,0
2298,39957,0
2304,39979,0
2296,39948,0
2292,39942,0
2292,39975,0
2292,39971,0
2288,39951,0
2272,39980,0
2264,39957,0
2260,39955,0
2240,39986,0
2220,39965,0
2208,39968,0
2204,39979,0
2196,39953,0
2180,39972,0
2176,39978,0
2180,39956,0
2184,39949,0
2188,40005,0
2184,39973,0
2202,39951,0
2196,39983,0
2216,39949,0
2224,39989,0
2244,39967,0
2256,39956,0
2268,39978,0
2284,39967,0
2292,39985,0
2312,39956,0
2312,39985,0
2320,39976,0
2316,39987,0
2312,39964,0
2290,39939,0
2292,39985,0
2264,39948,0
2288,39973,0
2272,39987,0
2256,39974,0
2256,39957,0
2248,39977,0
2244,39969,0
2236,39988,0
2240,39968,0
2232,39962,0
2368,39980,0
2224,39977,0
2224,39964,0
2220,39985,0
2220,39954,0
2224,39971,0
2228,39991,0
2240,39952,0
2232,39963,0
2248,39974,0
2260,39967,0
2264,39961,0
2276,39978,0
2282,39974,0
2300,39971,0
2312,39973,0
2328,39964,0
2328,39954,0
2336,39961,0
2340,39964,0
2336,39999,0
2340,39970,0
2328,39954,0
2320,39976,0
2316,39961,0
2300,39963,0
2314,39981,0
2288,39943,0
2280,39940,0
2260,40006,0
2252,39964,0
2240,39955,0
2232,39963,0
2228,39950,0
2226,39991,0
2224,39974,0
2224,39956,0
2224,39973,0
2248,39989,0
2240,39977,0
2248,39973,0
2256,39960,0
2274,39950,0
2272,39993,0
2297,39959,0
2296,39947,0
2308,39965,0
2312,39981,0
2332,39983,0
2324,39951,0
2336,39962,0
2336,39969,0
2338,39957,0
2346,39959,0
2346,39978,0
2344,39942,0
2362,39937,0
2344,39987,0
2336,39958,0
2320,39949,0
2316,39978,0
2304,39959,0
2296,39954,0
2274,39980,0
2264,39953,0
2260,39933,0
2244,39982,0
2244,39977,0
2233,39963,0
2248,39964,0
2244,39948,0
2245,39978,0
2260,39970,0
2272,39964,0
2288,39978,0
2296,39947,0
2302,39974,0
2314,39966,0
2328,39967,0
2330,39953,0
2336,39948,0
2324,39962,0
2328,39970,0
2332,39961,0
2312,39946,0
2298,39980,0
2292,39969,0
2280,39966,0
2273,39976,0
2260,39950,0
2260,39963,0
2244,39995,0
2242,39964,0
2244,39955,0
2224,39978,0
2232,39970,0
2232,39953,0
2224,39987,0
2224,39952,0
2234,39944,0
2240,39997,0
2244,39963,0
2240,39943,0
2244,39970,0
2256,39958,0
2276,39982,0
2272,39982,0
2284,39967,0
2288,39961,0
2304,39980,0
2312,39979,0
2316,39981,0
2336,39955,0
2340,39962,0
2340,39998,0
2344,39968,0
2336,39963,0
2340,39973,0
2336,39957,0
2328,39974,0
2324,39989,0
2320,39965,0
2312,39950,0
2296,39989,0
2288,39966,0
2296,39958,0
2272,39974,0
2264,39953,0
2256,39974,0
2248,39992,0
2240,39959,0
2240,39951,0
2234,39986,0
2240,39970,0
2248,39947,0
2248,39978,0
2256,39950,0
2256,39941,0
2272,39998,0
2288,39964,0
2290,39950,0
2308,39947,0
2308,39973,0
2328,39969,0
2338,39959,0
2320,39968,0
2320,39965,0
2324,39974,0
2300,39993,0
2312,39954,0
2296,39958,0
2288,39985,0
2280,39979,0
2260,39958,0
2256,39989,0
2248,39944,0
2244,39977,0
2232,39989,0
2232,39960,0
2232,39958,0
2216,39971,0
2216,39964,0
2200,39965,0
2213,39986,0
2200,39961,0
2208,39944,0
2212,40005,0
2208,39977,0
2224,39955,0
2232,39979,0
2248,39959,0
2264,40002,0
2272,39978,0
2288,39998,0
2420,39949,0
2320,39982,0
2328,39967,0
2336,39987,0
2348,39966,0
2348,39958,0
2360,39997,0
2352,39967,0
2340,39963,0
2344,39993,0
2344,39951,0
2324,39982,0
2324,39978,0
2312,39954,0
2296,39963,0
2290,39990,0
2282,39985,0
2272,39973,0
2272,39976,0
2264,39960,0
2260,39966,0
2256,40005,0
2256,39965,0
2256,39954,0
2250,39979,0
2256,39977,0
2272,39959,0
2272,39993,0
2284,39966,0
2289,39968,0
2304,40015,0
2320,39971,0
2328,39971,0
2330,39996,0
2338,39996,0
2352,40014,0
2360,39966,0
2384,39954,0
2376,39991,0
2392,39976,0
2392,39974,0
2392,40005,0
2400,39964,0
2384,39977,0
2384,40004,0
2376,39981,0
2356,40001,0
2348,39970,0
2336,39966,0
2320,40007,0
2304,39976,0
2304,39984,0
2296,39981,0
2280,39988,0
2276,39987,0
2280,40001,0
2282,39969,0
2284,39969,0
2288,40016,0
2304,39988,0
2304,39971,0
2316,39988,0
2336,39974,0
2344,40005,0
2360,39961,0
2364,39974,0
2372,39969,0
2368,39983,0
2376,40016,0
2368,39976,0
2360,39978,0
2356,39993,0
2352,39985,0
2340,39983,0
2332,40001,0
2312,39967,0
2304,39964,0
2296,40027,0
2288,39993,0
2284,39967,0
2276,39994,0
2272,39980,0
2272,39983,0
2260,40002,0
2265,39972,0
2256,39958,0
2268,40010,0
2274,39994,0
2276,39988,0
2280,40009,0
2280,39972,0
2304,40019,0
2300,40006,0
2312,39990,0
2322,39987,0
2328,39991,0
2340,40030,0
2356,40004,0
2356,39990,0
2368,39987,0
2392,39996,0
2386,40002,0
2408,40004,0
2388,39996,0
2380,39973,0
2384,40021,0
2372,39990,0
2368,39980,0
2352,40000,0
2332,39973,0
2312,40000,0
2300,40008,0
2272,39978,0
2264,39966,0
2264,40000,0
2248,39992,0
2240,39976,0
2232,40001,0
2240,39972,0
2240,39966,0
2244,40018,0
2268,39981,0
2260,39969,0
2288,40004,0
2292,39996,0
2304,40000,0
2316,39987,0
2321,39976,0
2328,40001,0
2344,40021,0
2344,39986,0
2346,40012,0
2360,39982,0
2368,39976,0
2368,40029,0
2360,39987,0
2360,39987,0
2368,39997,0
2352,39987,0
2356,39999,0
2352,40014,0
2344,39977,0
2336,39990,0
2324,40010,0
2312,39989,0
2300,40005,0
2290,39981,0
2276,39994,0
2264,40025,0
2248,39999,0
2250,39991,0
2256,40015,0
2244,39995,0
2260,40002,0
2258,40018,0
2260,39995,0
2277,39980,0
2284,40022,0
2298,39997,0
2320,40009,0
2316,39997,0
2336,39977,0
2346,40010,0
2344,39990,0
2360,39989,0
2346,40012,0
2352,39980,0
2344,40007,0
2332,40008,0
2324,39986,0
2312,39973,0
2304,40011,0
2288,40003,0
2280,39967,0
2266,40016,0
2260,39983,0
2256,39989,0
2248,40024,0
2244,39994,0
2240,39972,0
2240,40012,0
2244,40013,0
2250,39982,0
2260,40007,0
2272,39992,0
2272,39978,0
2288,40025,0
2292,40001,0
2304,40007,0
2306,39997,0
2320,39995,0
2328,40016,0
2344,40006,0
2352,39994,0
2346,39989,0
2344,40007,0
2340,40017,0
2328,39983,0
2348,39989,0
2336,40009,0
2316,40003,0
2305,39996,0
2296,40018,0
2298,39988,0
2280,39993,0
2280,40039,0
2264,39983,0
2264,39992,0
2248,39997,0
2240,40006,0
2232,39994,0
2220,40013,0
2212,39982,0
2208,39962,0
2226,40031,0
2210,40004,0
2216,39977,0
2224,40017,0
2232,39995,0
2246,40017,0
2256,40014,0
2252,39980,0
2264,40003,0
2266,40018,0
2288,40013,0
2284,39991,0
2288,39989,0
2288,40006,0
2304,40002,0
2304,40001,0
2292,40015,0
2272,39995,0
2272,39970,0
2284,40040,0
2280,40005,0
2280,40000,0
2296,40009,0
2292,39993,0
2308,40006,0
2308,40021,0
2320,39997,0
2324,39975,0
2348,40030,0
2368,40006,0
2392,40006,0
2416,40015,0
2452,39989,0
2484,40031,0
2520,40015,0
2560,39999,0
2600,40023,0
2650,39990,0
2682,40022,0
2728,40025,0
2776,40021,0
2816,40018,0
2856,40012,0
2888,40029,0
2912,40022,0
2930,40007,0
2944,39980,0
2916,40035,0
2896,40010,0
2864,39986,0
2824,40014,0
2796,39993,0
2756,40000,0
2704,40033,0
2664,40000,0
2600,39983,0
2552,40032,0
2500,40007,0
2440,39998,0
2376,40025,0
2328,39992,0
2282,40000,0
2256,40043,0
2216,40001,0
2196,40005,0
2176,40010,0
2160,40019,0
2148,40032,0
2148,40009,0
2130,40001,0
2124,40022,0
2117,40026,0
2112,40018,0
2112,40015,0
2124,39999,0
2128,40004,0
2132,40025,0
2136,40008,0
2148,40026,0
2132,40007,0
2144,40018,0
2144,40035,0
2152,40018,0
2154,40002,0
2156,40014,0
2144,40032,0
2140,40017,0
2144,40032,0
2144,40008,0
2140,40009,0
2132,40052,0
2128,40017,0
2120,40003,0
2132,40018,0
2128,40013,0
2114,40027,0
2116,40024,0
2136,40001,0
2136,39998,0
2136,40050,0
2152,40013,0
2160,40004,0
2170,40033,0
2196,40001,0
2204,40043,0
2224,40030,0
2232,40016,0
2248,40028,0
2256,40033,0
2258,40020,0
2264,39984,0
2256,40028,0
2256,39997,0
2232,40032,0
2228,40035,0
2220,40007,0
2208,40015,0
2200,40010,0
2200,40024,0
2192,40025,0
2184,40029,0
2184,40017,0
2164,40024,0
2164,40044,0
2160,40021,0
2162,40038,0
2162,40012,0
2164,40014,0
2176,40045,0
2184,40012,0
2192,40011,0
2210,40028,0
2216,40024,0
2234,40027,0
2248,40031,0
2274,40028,0
2284,39996,0
2298,40032,0
2308,40040,0
2320,40028,0
2320,40034,0
2328,40014,0
2328,40035,0
2328,40029,0
2322,39997,0
2320,40003,0
2312,40043,0
2296,40024,0
2288,39987,0
2280,40036,0
2272,40006,0
2264,40012,0
2248,40046,0
2240,40015,0
2232,39998,0
2218,40036,0
2208,40030,0
2208,40026,0
2208,40036,0
2212,40013,0
2224,40030,0
2232,40051,0
2232,40020,0
2258,40034,0
2276,40012,0
2288,40026,0
2290,40056,0
2320,40035,0
2328,40013,0
2338,39984,0
2352,40040,0
2344,40018,0
2352,40013,0
2360,40033,0
2352,40008,0
2352,40035,0
2344,40054,0
2340,40016,0
2332,40016,0
2324,40046,0
2324,40037,0
2312,40022,0
2304,40042,0
2304,40005,0
2288,40008,0
2280,40060,0
2272,40033,0
2264,40004,0
2256,40041,0
2248,40037,0
2240,40036,0
2240,40029,0
2230,40015,0
2240,40038,0
2240,40037,0
2240,40030,0
2248,40046,0
2258,40006,0
2272,40048,0
2280,40035,0
2288,40037,0
2304,40054,0
2324,40004,0
2336,40046,0
2348,40056,0
2372,40025,0
2372,40024,0
2372,40046,0
2372,40043,0
2362,40034,0
2364,40028,0
2352,40025,0
2336,40046,0
2340,40044,0
2312,40026,0
2304,40054,0
2296,40017,0
2280,40041,0
2264,40050,0
2258,40030,0
2248,40026,0
2240,40040,0
2244,40044,0
2248,40032,0
2256,40045,0
2260,40021,0
2272,40006,0
2276,40072,0
2298,40027,0
2300,40014,0
2310,40048,0
2324,40034,0
2332,40032,0
2336,40030,0
2364,40043,0
2352,40035,0
2360,40030,0
2368,40047,0
2377,40027,0
2388,40016,0
2384,40050,0
2388,40037,0
2388,40026,0
2384,40053,0
2384,40025,0
2384,40036,0
2372,40056,0
2354,40028,0
2344,40044,0
2336,40027,0
2328,40050,0
2320,40060,0
2304,40021,0
2288,40025,0
2282,40051,0
2274,40040,0
2278,40029,0
2288,40044,0
2288,40019,0
2288,40014,0
2308,40073,0
2312,40017,0
2330,40002,0
2352,40041,0
2352,40042,0
2368,40022,0
2376,40040,0
2378,40019,0
2384,40036,0
2385,40029,0
2378,40034,0
2368,40029,0
2368,40018,0
2356,40014,0
2336,40051,0
2336,40031,0
2312,40043,0
2300,40017,0
2288,40014,0
2276,40047,0
2280,40015,0
2266,40015,0
2256,40023,0
2264,40021,0
2276,40032,0
2264,40029,0
2264,40008,0
2272,40008,0
2288,40033,0
2296,40007,0
2308,39999,0
2312,40026,0
2324,39999,0
2340,40009,0
2348,40030,0
2352,40025,0
2360,39979,0
2368,40015,0
2380,40014,0
2388,39995,0
2404,40008,0
2424,39988,0
2416,40042,0
2424,40002,0
2416,39995,0
2416,40014,0
2408,39985,0
2400,40004,0
2386,40021,0
2372,39995,0
2352,39973,0
2346,40019,0
2320,39993,0
2308,39999,0
2292,40018,0
2292,39988,0
2277,40016,0
2256,40013,0
2260,39990,0
2264,40006,0
2272,39981,0
2272,40001,0
2292,40002,0
2296,39986,0
2312,39994,0
2332,40011,0
2336,39999,0
2344,39989,0
2368,39989,0
2380,40002,0
2389,39986,0
2384,40010,0
2392,39962,0
2400,39996,0
2392,39963,0
2400,39986,0
2384,40006,0
2392,39986,0
2372,39951,0
2369,39988,0
2356,39992,0
2352,39959,0
2336,40003,0
2328,39966,0
2324,39964,0
2306,40016,0
2304,39974,0
2288,39981,0
2272,39996,0
2258,39973,0
2250,40003,0
2240,39982,0
2248,39971,0
2242,39990,0
2240,39981,0
2248,39979,0
2248,39996,0
2248,39968,0
2264,39969,0
2280,39978,0
2280,39983,0
2292,39972,0
2305,39978,0
2312,39979,0
2324,39997,0
2344,39961,0
2344,39962,0
2344,39985,0
2336,39986,0
2324,39974,0
2322,39994,0
2308,39963,0
2296,39969,0
2290,40008,0
2272,39969,0
2264,39959,0
2256,39986,0
2256,39968,0
2256,39977,0
2240,39996,0
2232,39974,0
2232,39952,0
2228,39989,0
2234,39980,0
2240,39979,0
2248,39978,0
2256,39949,0
2264,40002,0
2276,39987,0
2284,39973,0
2288,39987,0
2304,39961,0
2314,39996,0
2232,39948,0
2336,39973,0
2336,39979,0
2354,39957,0
2360,39972,0
2368,39992,0
2378,39950,0
2368,39948,0
2368,39998,0
2372,39976,0
2372,39944,0
2376,39990,0
2364,39955,0
2356,39962,0
2360,39998,0
2340,39959,0
2324,39957,0
2320,39984,0
2308,39980,0
2304,39966,0
2292,39973,0
2288,39955,0
2280,39998,0
2288,39990,0
2284,39960,0
2304,39991,0
2304,39956,0
2328,39980,0
2324,39994,0
2330,39956,0
2344,39958,0
2356,39981,0
2364,39984,0
2384,39950,0
2388,39980,0
2392,39967,0
2392,39953,0
2388,39992,0
2378,39956,0
2370,39961,0
2368,39964,0
2344,39966,0
2336,39984,0
2320,39980,0
2304,39971,0
2288,39977,0
2281,39970,0
2280,39967,0
2256,39982,0
2256,39948,0
2252,39953,0
2240,39996,0
2244,39953,0
2240,39956,0
2256,39970,0
2252,39959,0
2260,39972,0
2272,39969,0
2272,39951,0
2298,39934,0
2296,39993,0
2312,39964,0
2312,39978,0
2320,39956,0
2330,39951,0
2344,39995,0
2354,39967,0
2368,39951,0
2368,39972,0
2368,39956,0
2372,39976,0
2380,39975,0
2360,39954,0
2354,39958,0
2352,39978,0
2348,39966,0
2320,39956,0
2312,39970,0
2300,39952,0
2290,39994,0
2272,39968,0
2260,39954,0
2244,39972,0
2241,39939,0
2248,39969,0
2256,39976,0
2244,39942,0
2264,39951,0
2256,39982,0
2276,39963,0
2290,39952,0
2304,39974,0
2300,39943,0
2336,39964,0
2322,39990,0
2348,39965,0
2356,39946,0
2356,39973,0
2360,39959,0
2368,39943,0
2360,39969,0
2352,39945,0
2344,39929,0
2348,39993,0
2344,39953,0
2308,39941,0
2314,39967,0
2292,39966,0
2272,39960,0
2280,39972,0
2268,39942,0
2256,39957,0
2264,39978,0
2240,39963,0
2224,39971,0
2224,39957,0
2220,39953,0
2216,39995,0
2218,39959,0
2224,39958,0
2226,39962,0
2228,39947,0
2236,39962,0
2240,39975,0
2266,39951,0
2260,39949,0
2272,39974,0
2292,39963,0
2300,39963,0
2304,39964,0
2322,39944,0
2336,39983,0
2328,39979,0
2328,39948,0
2320,39971,0
2308,39947,0
2304,39969,0
2296,39987,0
2280,39960,0
2272,39953,0
2256,39987,0
2248,39974,0
2236,39957,0
2224,39976,0
2216,39939,0
2216,39972,0
2210,39985,0
2208,39962,0
2208,39949,0
2216,39968,0
2224,39965,0
2224,39950,0
2240,39987,0
2244,39959,0
2265,39953,0
2264,39993,0
2280,39952,0
2292,39952,0
2304,39942,0
2316,39965,0
2328,39973,0
2328,39958,0
2336,39945,0
2336,39964,0
2336,39983,0
2336,39970,0
2336,39974,0
2336,39962,0
2336,39946,0
2316,39998,0
2314,39960,0
2304,39959,0
2288,39972,0
2420,39974,0
2280,39977,0
2264,39974,0
2248,39947,0
2248,39945,0
2228,39992,0
2228,39968,0
2224,39958,0
2212,39985,0
2228,39950,0
2220,39962,0
2232,39990,0
2240,39946,0
2260,39936,0
2270,39984,0
2280,39974,0
2296,39955,0
2306,39975,0
2320,39959,0
2348,39973,0
2336,39989,0
2344,39964,0
2352,39983,0
2344,39945,0
2344,39975,0
2328,39981,0
2324,39947,0
2320,39953,0
2296,39978,0
2288,39973,0
2264,39956,0
2260,39975,0
2244,39949,0
2236,39952,0
2224,40009,0
2216,39959,0
2216,39930,0
2201,39973,0
2196,39973,0
2192,39974,0
2186,39992,0
2192,39962,0
2192,39963,0
2202,39997,0
2208,39967,0
2228,39985,0
2220,39960,0
2234,39960,0
2248,39974,0
2260,39981,0
2272,39964,0
2290,39975,0
2296,39978,0
2314,39968,0
2320,39970,0
2314,39980,0
2328,39959,0
2324,39999,0
2322,39979,0
2314,39956,0
2306,39978,0
2304,39959,0
2280,39978,0
2276,39987,0
2260,39961,0
2248,39960,0
2236,39984,0
2224,39972,0
2224,39967,0
2208,39984,0
2196,39949,0
2194,39981,0
2204,39994,0
2208,39956,0
2212,39948,0
2225,39960,0
2232,39973,0
2252,39955,0
2268,39983,0
2272,39951,0
2288,39964,0
2290,39981,0
2300,39966,0
2304,39960,0
2304,39959,0
2276,39970,0
2300,40008,0
2420,39971,0
2284,39963,0
2268,39980,0
2272,39973,0
2264,39974,0
2248,39986,0
2240,39963,0
2232,39953,0
2232,39988,0
2218,39962,0
2212,39943,0
2201,39977,0
2192,39962,0
2192,39963,0
2181,39986,0
2184,39964,0
2192,39942,0
2184,39992,0
2188,39976,0
2200,39941,0
2196,39978,0
2212,39951,0
2228,39969,0
2240,39997,0
2244,39965,0
2256,39975,0
2292,39963,0
2300,39977,0
2304,39988,0
2312,39964,0
2328,39956,0
2330,39992,0
2328,39986,0
2340,39974,0
2328,39984,0
2320,39957,0
2324,39968,0
2304,39993,0
2296,39966,0
2284,39957,0
2272,39983,0
2256,39986,0
2250,39956,0
2240,39990,0
2228,39958,0
2216,39963,0
2212,40002,0
2224,39976,0
2216,39987,0
2220,39975,0
2224,39984,0
2232,39996,0
2248,39977,0
2248,39973,0
2266,39985,0
2282,39984,0
2289,39981,0
2296,39980,0
2312,39955,0
2324,39976,0
2324,40011,0
2336,39965,0
2344,39953,0
2360,39989,0
2360,39975,0
2362,39997,0
2360,39989,0
2354,39970,0
2356,39982,0
2356,39993,0
2348,39982,0
2336,40006,0
2324,39976,0
2324,39963,0
2304,40011,0
2296,39982,0
2280,39971,0
2276,39994,0
2264,39962,0
2260,39993,0
2256,39989,0
2256,39975,0
2260,39953,0
2272,40005,0
2272,39983,0
2274,39962,0
2288,39991,0
2296,39960,0
2320,39985,0
2320,39992,0
2336,39990,0
2344,39967,0
2340,39965,0
2340,40021,0
2336,39979,0
2328,39979,0
2324,39982,0
2320,39973,0
2316,39984,0
2300,39999,0
2288,39974,0
2284,39957,0
2280,40015,0
2264,39987,0
2258,39967,0
2256,40002,0
2250,39973,0
2242,39982,0
2242,40010,0
2244,39975,0
2242,39981,0
2244,39983,0
2242,39988,0
2252,40006,0
2260,39974,0
2264,39969,0
2274,40013,0
2280,39990,0
2288,39979,0
2296,40001,0
2304,39985,0
2304,39983,0
2314,40008,0
2320,39981,0
2320,39981,0
2320,39966,0
2321,39979,0
2320,40017,0
2312,39984,0
2316,39962,0
2312,40015,0
2306,39993,0
2296,39963,0
2296,39995,0
2280,39980,0
2272,40006,0
2272,40017,0
2256,39986,0
2264,40000,0
2248,39973,0
2248,39998,0
2240,40011,0
2240,39980,0
2240,39979,0
2252,40001,0
2256,39996,0
2264,39983,0
2276,40005,0
2292,39976,0
2312,39974,0
2322,40031,0
2328,39986,0
2348,39997,0
2360,39995,0
2368,40019,0
2392,39995,0
2404,39999,0
2396,40000,0
2408,39976,0
2404,40006,0
2408,40018,0
2400,39980,0
2392,39982,0
2384,40014,0
2376,39989,0
2364,39984,0
2352,40005,0
2340,39977,0
2328,39997,0
2316,40016,0
2308,39981,0
2296,39966,0
2276,40007,0
2272,40003,0
2256,39981,0
2260,40010,0
2256,39980,0
2264,39973,0
2264,40025,0
2264,39994,0
2252,39993,0
2272,40003,0
2276,39988,0
2288,40018,0
2292,39992,0
2304,40004,0
2314,39995,0
2328,40000,0
2338,40016,0
2352,40014,0
2358,39987,0
2352,39966,0
2354,40033,0
2348,40005,0
2352,39982,0
2346,40011,0
2336,39977,0
2316,40003,0
2312,40011,0
2304,39990,0
2288,39982,0
2276,40017,0
2266,40015,0
2256,40001,0
2256,40001,0
2256,39985,0
2248,40024,0
2256,40024,0
2260,39991,0
2264,40003,0
2296,40006,0
2296,40019,0
2298,40013,0
2316,40001,0
2320,39999,0
2328,40016,0
2340,40004,0
2364,40019,0
2352,39994,0
2360,39995,0
2368,39996,0
2370,40005,0
2372,39986,0
2376,40013,0
2380,39982,0
2368,39980,0
2368,40023,0
2364,40000,0
2356,39972,0
2360,40016,0
2352,40009,0
2336,39989,0
2328,40018,0
2304,39983,0
2304,40002,0
2288,40039,0
2282,39996,0
2260,39992,0
2260,40009,0
2264,39999,0
2248,40016,0
2256,40008,0
2256,39995,0
2272,39997,0
2272,40016,0
2290,40001,0
2300,40011,0
2304,40009,0
2336,40017,0
2352,40017,0
2360,40001,0
2368,40023,0
2372,39996,0
2380,40011,0
2388,40004,0
2370,40028,0
2376,39995,0
2360,39998,0
2352,40024,0
2336,40003,0
2448,40012,0
2320,40012,0
2316,39997,0
2300,40033,0
2288,40011,0
2284,40000,0
2288,40029,0
2264,40005,0
2260,40011,0
2260,40022,0
2250,39997,0
2244,39992,0
2244,40036,0
2252,40015,0
2264,40008,0
2272,40021,0
2274,40000,0
2288,40018,0
2309,40026,0
2292,39995,0
2308,39998,0
2320,40005,0
2332,40043,0
2344,40031,0
2344,40008,0
2338,39999,0
2336,40028,0
2330,40023,0
2324,39996,0
2320,40023,0
2300,39984,0
2298,40017,0
2272,40037,0
2260,40002,0
2248,39996,0
2244,40018,0
2218,40021,0
2208,40003,0
2208,40027,0
2194,39992,0
2192,39985,0
2176,40050,0
2180,40005,0
2180,39992,0
2185,40026,0
2208,40012,0
2232,40007,0
2248,40035,0
2266,40004,0
2304,39992,0
2312,40045,0
2340,40017,0
2376,40010,0
2400,40023,0
2436,40004,0
2464,40023,0
2496,40014,0
2528,39990,0
2568,40025,0
2584,40014,0
2624,40013,0
2640,40030,0
2660,40011,0
2688,40004,0
2704,40041,0
2736,40016,0
2762,40015,0
2784,40025,0
2792,40010,0
2800,40031,0
2800,40036,0
2792,40002,0
2776,40029,0
2744,40017,0
2720,40030,0
2676,40034,0
2644,39999,0
2626,39999,0
2584,40042,0
2560,40028,0
2528,40005,0
2492,40021,0
2456,40004,0
2424,40014,0
2396,40041,0
2372,39993,0
2352,40012,0
2336,40012,0
2312,40054,0
2292,40029,0
2272,40019,0
2248,40032,0
2226,40019,0
2196,40037,0
2176,40049,0
2164,40021,0
2132,40016,0
2116,40049,0
2104,40018,0
2072,40024,0
2064,40039,0
2050,39998,0
2036,40031,0
2036,40041,0
2026,40014,0
2026,40010,0
2032,40030,0
2032,40033,0
2036,40009,0
2048,40041,0
2060,40010,0
2084,40010,0
2080,40052,0
2108,40021,0
2117,39996,0
2160,40018,0
2164,40058,0
2176,40039,0
2192,40010,0
2200,40026,0
2216,40004,0
2228,40057,0
2224,40029,0
2232,40027,0
2234,40030,0
2234,40019,0
2240,40043,0
2236,40051,0
2216,40019,0
2218,40014,0
2212,40057,0
2202,40031,0
2204,40000,0
2192,40047,0
2184,40017,0
2180,40016,0
2176,40060,0
2168,40016,0
2168,40012,0
2176,40037,0
2176,40047,0
2180,40034,0
2192,40047,0
2196,40027,0
2212,40046,0
2232,40054,0
2252,40027,0
2264,40048,0
2276,40016,0
2284,40044,0
2300,40043,0
2304,40041,0
2320,40040,0
2308,40016,0
2308,40043,0
2304,40056,0
2296,40026,0
2296,40026,0
2288,40054,0
2272,40034,0
2272,40018,0
2256,40047,0
2240,40013,0
2240,40019,0
2236,40062,0
2224,40031,0
2224,40012,0
2212,40039,0
2208,40044,0
2213,40026,0
2212,40056,0
2208,40028,0
2218,40010,0
2224,40072,0
2228,40040,0
2224,40013,0
2232,40043,0
2244,40050,0
2248,40052,0
2272,40048,0
2276,40031,0
2292,40028,0
2296,40059,0
2308,40040,0
2312,40044,0
2328,40021,0
2324,40019,0
2328,40076,0
2320,40033,0
2324,40008,0
2316,40048,0
2308,40027,0
2304,40041,0
2296,40052,0
2280,40031,0
2272,40027,0
2272,40066,0
2256,40057,0
2252,40047,0
2248,40048,0
2248,40034,0
2244,40054,0
2241,40056,0
2248,40045,0
2248,40042,0
2248,40043,0
2264,40060,0
2266,40061,0
2274,40057,0
2286,40033,0
2292,40078,0
2300,40049,0
2304,40055,0
2308,40064,0
2316,40022,0
2312,40061,0
2308,40046,0
2304,40038,0
2296,40066,0
2280,40029,0
2280,40056,0
2272,40064,0
2266,40046,0
2264,40028,0
2256,40059,0
2244,40063,0
2256,40032,0
2256,40055,0
2242,40044,0
2240,40048,0
2240,40078,0
2240,40046,0
2232,40041,0
2240,40061,0
2240,40058,0
2242,40051,0
2240,40075,0
2240,40040,0
2248,40072,0
2256,40083,0
2272,40048,0
2288,40067,0
2304,40065,0
2320,40044,0
2320,40083,0
2340,40068,0
2360,40036,0
2360,40039,0
2368,40073,0
2368,40084,0
2368,40055,0
2360,40048,0
2356,40049,0
2340,40074,0
2338,40051,0
2321,40062,0
2314,40049,0
2296,40050,0
2288,40084,0
2272,40053,0
2262,40043,0
2256,40070,0
2248,40048,0
2240,40056,0
2232,40057,0
2232,40047,0
2232,40037,0
2240,40077,0
2242,40056,0
2252,40052,0
2264,40068,0
2272,40033,0
2290,40062,0
2289,40079,0
2308,40051,0
2316,40066,0
2320,40073,0
2336,40074,0
2352,40057,0
2352,40074,0
2370,40062,0
2376,40079,0
2384,40068,0
2386,40067,0
2386,40054,0
2388,40031,0
2388,40086,0
2384,40049,0
2368,40052,0
2356,40070,0
2352,40039,0
2336,40062,0
2316,40074,0
2312,40047,0
2296,40037,0
2288,40070,0
2272,40062,0
2268,40047,0
2258,40061,0
2276,40028,0
2260,40032,0
2278,40081,0
2280,40037,0
2296,40021,0
2312,40064,0
2325,40066,0
2340,40047,0
2344,40037,0
2360,40052,0
2380,40030,0
2392,40067,0
2392,40039,0
2410,40038,0
2416,40015,0
2412,40073,0
2436,40048,0
2400,40035,0
2392,40044,0
2384,40024,0
2368,40070,0
2364,40057,0
2354,40030,0
2340,40033,0
2336,40041,0
2324,40042,0
2332,40045,0
2314,40025,0
2308,40030,0
2308,40044,0
2312,40031,0
2304,40026,0
2304,40047,0
2304,40010,0
2312,40040,0
2306,40059,0
2312,40022,0
2336,40013,0
2329,40033,0
2332,40035,0
2352,40038,0
2353,40050,0
2368,40036,0
2372,40010,0
2384,40038,0
2388,40012,0
2400,40041,0
2408,39995,0
2528,40010,0
2402,40043,0
2408,40006,0
2400,39999,0
2384,40027,0
2368,40030,0
2376,40005,0
2348,40032,0
2336,39998,0
2328,40012,0
2320,40034,0
2296,40013,0
2288,40013,0
2280,40010,0
2280,40011,0
2276,40040,0
2272,40022,0
2282,40005,0
2292,40015,0
2292,40028,0
2304,40010,0
2308,40024,0
2320,39999,0
2306,39998,0
2328,40042,0
2336,40000,0
2320,39999,0
2340,39997,0
2336,40000,0
2352,40001,0
2352,40027,0
2360,39993,0
2360,39987,0
2348,40037,0
2344,40004,0
2336,39981,0
2328,40018,0
2320,39988,0
2312,40006,0
2308,40035,0
2304,39988,0
2292,39986,0
2281,40012,0
2272,40012,0
2260,40008,0
2258,40008,0
2256,39988,0
2248,40010,0
2260,40021,0
2256,39993,0
2252,40004,0
2272,39990,0
2264,39999,0
2280,40014,0
2296,40001,0
2304,39989,0
2312,39990,0
2322,40000,0
2328,39995,0
2340,40011,0
2340,39982,0
2356,39978,0
2352,40035,0
2340,39985,0
2344,39974,0
2336,40007,0
2336,39990,0
2320,39981,0
2308,40017,0
2308,39989,0
2292,39982,0
2280,40039,0
2272,39998,0
2264,39985,0
2248,40008,0
2240,39982,0
2240,40011,0
2228,40013,0
2232,39989,0
2240,39992,0
2224,39993,0
2228,40017,0
2232,40010,0
2240,40001,0
2244,39988,0
2256,40016,0
2258,40014,0
2272,40009,0
2274,39997,0
2284,39977,0
2288,40011,0
2288,40019,0
2288,39972,0
2288,40016,0
2276,39985,0
2272,39991,0
2272,40025,0
2252,39985,0
2256,39962,0
2244,40024,0
2240,40011,0
2220,39992,0
2210,40007,0
2196,39974,0
2188,40002,0
2176,40016,0
2176,39986,0
2148,39999,0
2144,40001,0
2132,40000,0
2136,40004,0
2136,39994,0
2145,39982,0
2144,40014,0
2164,40009,0
2176,39995,0
2180,40007,0
2200,39992,0
2208,39992,0
2224,40009,0
2226,39999,0
2240,39977,0
2256,39971,0
2256,40014,0
2264,39995,0
2272,40000,0
2258,39991,0
2256,39977,0
2248,40027,0
2256,39998,0
2236,39984,0
2220,40006,0
2224,39980,0
2208,40008,0
2208,40013,0
2192,39980,0
2184,39972,0
2180,40017,0
2168,39986,0
2156,39978,0
2160,39996,0
2152,39967,0
2148,39979,0
2152,40010,0
2156,39965,0
2154,39954,0
2168,39998,0
2168,39999,0
2184,39964,0
2178,40014,0
2181,39979,0
2196,39999,0
2208,39984,0
2234,39981,0
2236,39976,0
2242,39977,0
2252,40013,0
2264,39981,0
2260,39974,0
2272,39989,0
2256,39973,0
2252,40001,0
2248,40009,0
2240,39978,0
2216,39964,0
2224,39997,0
2200,39988,0
2184,39970,0
2176,40006,0
2168,39978,0
2160,39986,0
2144,40022,0
2144,39976,0
2136,40007,0
2136,39980,0
2136,39998,0
2137,40011,0
2152,39988,0
2160,39981,0
2176,40008,0
2184,40015,0
2192,39991,0
2192,40010,0
2212,39992,0
2200,40012,0
2204,40005,0
2200,39990,0
2200,40007,0
2200,39986,0
2208,39973,0
2200,40012,0
2208,39978,0
2200,39963,0
2192,39994,0
2202,40009,0
2192,40003,0
2180,39992,0
2184,39978,0
2176,40008,0
2192,40012,0
2168,39995,0
2160,40007,0
2148,39986,0
2152,40002,0
2136,40021,0
2136,39993,0
2128,39993,0
2128,39993,0
2138,39995,0
2136,40003,0
2144,40008,0
2152,39977,0
2164,39989,0
2168,40028,0
2180,39997,0
2196,40012,0
2200,39991,0
2232,39990,0
2240,40016,0
2244,40018,0
2256,39990,0
2256,39993,0
2256,40008,0
2256,40005,0
2240,40014,0
2232,39985,0
2232,39980,0
2212,40021,0
2208,40013,0
2196,39988,0
2186,39995,0
2176,40014,0
2172,40010,0
2160,40017,0
2168,39994,0
2160,39984,0
2164,40020,0
2168,40004,0
2156,39986,0
2160,40021,0
2176,39990,0
2170,40008,0
2176,40038,0
2180,39994,0
2192,39983,0
2196,40009,0
2200,39991,0
2218,39994,0
2224,39989,0
2224,39989,0
2244,39997,0
2248,40026,0
2256,39993,0
2264,39989,0
2272,40010,0
2274,40002,0
2272,40004,0
2272,40011,0
2274,39983,0
2272,39977,0
2256,40033,0
2256,40005,0
2236,39975,0
2224,40012,0
2224,39994,0
2196,39999,0
2192,40013,0
2192,39995,0
2185,39981,0
2180,40003,0
2176,40023,0
2176,40020,0
2168,39993,0
2180,39986,0
2185,40037,0
2196,39992,0
2204,39991,0
2212,40011,0
2220,39988,0
2233,40016,0
2248,39999,0
2264,39998,0
2272,40007,0
2264,40057,0
2268,40005,0
2272,39991,0
2252,40005,0
2252,39981,0
2240,40010,0
2226,40026,0
2226,39987,0
2212,39990,0
2208,40005,0
2200,39997,0
2196,39981,0
2192,40010,0
2192,39996,0
2192,39967,0
2180,40026,0
2180,39994,0
2180,39983,0
2176,40012,0
2176,39985,0
2176,39994,0
2184,40013,0
2184,39998,0
2196,39988,0
2200,40022,0
2208,40008,0
2218,40009,0
2216,39992,0
2232,39982,0
2240,40014,0
2252,39991,0
2260,40003,0
2264,39988,0
2276,39976,0
2276,40027,0
2272,39979,0
2260,39972,0
2248,39997,0
2240,39993,0
2228,39983,0
2224,40012,0
2204,39983,0
2194,39969,0
2180,40032,0
2164,39994,0
2168,39971,0
2160,39995,0
2140,39983,0
2128,40013,0
2136,39999,0
2144,39994,0
2137,40006,0
2144,39995,0
2148,40016,0
2160,40011,0
2176,39980,0
2176,39972,0
2192,40014,0
2200,40004,0
2212,39977,0
2228,39983,0
2232,39990,0
2242,40018,0
2256,40009,0
2384,39995,0
2256,39964,0
2252,40013,0
2240,40006,0
2240,39980,0
2232,40010,0
2226,39978,0
2208,39984,0
2200,40032,0
2192,39992,0
2184,39989,0
2180,40014,0
2170,40006,0
2180,40010,0
2160,40016,0
2152,39994,0
2152,39986,0
2160,40025,0
2146,40002,0
2160,39998,0
2148,40013,0
2160,39993,0
2162,40014,0
2178,40021,0
2192,39996,0
2208,39984,0
2218,40028,0
2248,40010,0
2260,39990,0
2264,39984,0
2280,39994,0
2288,40019,0
2288,39997,0
2300,39995,0
2288,40001,0
2284,39994,0
2273,40010,0
2264,40008,0
2256,39985,0
2240,39960,0
2240,40006,0
2224,40004,0
2208,39971,0
2194,40018,0
2184,39983,0
2176,39990,0
2176,40033,0
2168,39980,0
2168,39973,0
2176,40013,0
2160,40001,0
2168,39998,0
2176,40021,0
2176,39983,0
2192,40001,0
2196,40033,0
2216,39989,0
2224,40007,0
2218,39995,0
2240,40010,0
2240,39984,0
2252,39995,0
2258,40003,0
2264,39982,0
2280,40024,0
2284,40003,0
2292,40025,0
2296,39996,0
2300,39996,0
2288,40038,0
2296,40009,0
2284,40008,0
2280,40012,0
2258,40012,0
2256,40015,0
2240,40019,0
2236,39999,0
2208,39991,0
2212,40042,0
2196,40021,0
2196,40006,0
2196,40020,0
2192,40002,0
2192,40013,0
2186,40023,0
2200,40003,0
2200,39986,0
2208,40020,0
2210,40018,0
2224,40005,0
2236,40020,0
2244,39979,0
2256,40019,0
2266,39989,0
2284,40014,0
2280,39993,0
2280,40001,0
2288,40014,0
2272,40014,0
2272,40021,0
2260,40001,0
2256,39999,0
2250,40048,0
2248,40013,0
2256,40025,0
2240,40009,0
2232,40003,0
2232,40028,0
2224,40016,0
2224,40002,0
2208,40008,0
2208,40020,0
2208,40010,0
2208,40025,0
2209,40000,0
2200,39996,0
2208,40044,0
2217,40015,0
2210,40000,0
2224,40015,0
2228,40013,0
2236,40014,0
2232,40019,0
2260,40036,0
2264,39997,0
2280,40013,0
2288,40016,0
2300,40022,0
2304,40026,0
2304,40001,0
2304,40016,0
2308,40029,0
2296,40007,0
2290,40004,0
2288,40018,0
2276,40022,0
2266,40023,0
2256,40020,0
2244,40007,0
2226,40031,0
2208,40022,0
2212,40012,0
2192,40034,0
2192,39999,0
2177,40013,0
2176,40038,0
2176,40010,0
2184,40011,0
2196,40028,0
2208,40014,0
2209,40007,0
2224,40029,0
2234,39997,0
2240,40002,0
2258,40038,0
2274,40006,0
2276,40028,0
2296,39992,0
2298,40010,0
2308,40025,0
2296,40014,0
2304,40027,0
2292,40001,0
2290,40024,0
2280,40038,0
2276,40003,0
2266,40007,0
2260,40020,0
2252,40029,0
2248,40014,0
2232,40025,0
2218,39999,0
2216,40004,0
2128,40042,0
2208,39998,0
2192,40005,0
2184,40022,0
2184,40010,0
2176,40014,0
2178,40025,0
2192,39992,0
2192,39981,0
2200,40042,0
2208,40011,0
2228,39991,0
2228,40027,0
2242,39996,0
2264,40040,0
2282,40018,0
2276,40008,0
2292,40025,0
2296,40039,0
2312,40048,0
2312,40011,0
2308,40011,0
2296,40015,0
2280,40025,0
2276,40027,0
2264,40042,0
2274,39996,0
2240,40000,0
2242,40050,0
2232,40012,0
2216,39998,0
2210,40032,0
2192,40012,0
2192,40014,0
2188,40040,0
2192,40004,0
2180,39992,0
2176,40041,0
2176,40026,0
2176,39993,0
2176,40030,0
2178,39994,0
2180,40007,0
2204,40050,0
2196,40005,0
2204,40003,0
2224,40019,0
2244,40040,0
2260,40017,0
2272,40031,0
2272,40025,0
2282,40030,0
2304,40034,0
2304,40016,0
2306,40033,0
2308,40000,0
2312,40031,0
2304,40047,0
2296,40012,0
2288,40023,0
2280,40033,0
2272,40032,0
2264,40035,0
2250,40031,0
2248,40009,0
2224,40003,0
2224,40048,0
2212,40013,0
2218,40024,0
2208,40031,0
2208,40019,0
2224,40034,0
2224,40034,0
2234,40012,0
2240,39996,0
2248,40048,0
2256,40020,0
2256,40003,0
2264,40019,0
2264,40037,0
2268,40039,0
2272,40011,0
2260,40014,0
2264,40031,0
2260,40021,0
2250,40025,0
2252,40036,0
2384,40010,0
2248,40010,0
2256,40044,0
2256,40020,0
2256,40003,0
2274,40034,0
2280,40011,0
2290,40015,0
2312,40040,0
2328,40012,0
2356,40007,0
2384,40029,0
2412,40031,0
2450,40009,0
2484,40039,0
2528,40008,0
2576,39991,0
2608,40047,0
2656,40014,0
2696,40000,0
2744,40038,0
2780,40021,0
2824,40023,0
2866,40038,0
2888,40005,0
2912,40016,0
2928,40028,0
2920,40052,0
2896,40024,0
2880,40018,0
2832,40036,0
2800,40035,0
2756,40027,0
2712,40035,0
2664,40033,0
2608,40013,0
2552,40059,0
2496,40029,0
2440,40019,0
2380,40044,0
2328,40029,0
2280,40026,0
2244,40045,0
2202,40025,0
2164,40019,0
2148,40062,0
2124,40027,0
2116,40023,0
2112,40034,0
2096,40011,0
2090,40032,0
2096,40050,0
2092,40020,0
2088,40002,0
2100,40029,0
2098,40043,0
2104,40010,0
2120,40013,0
2132,40025,0
2136,40037,0
2160,40022,0
2152,40031,0
2160,40013,0
2164,40015,0
2168,40066,0
2168,40028,0
2168,40017,0
2172,40040,0
2162,40033,0
2164,40049,0
2160,40046,0
2152,40027,0
2144,40010,0
2136,40072,0
2132,40035,0
2124,40023,0
2128,40051,0
2116,40020,0
2120,40041,0
2132,40054,0
2132,40018,0
2144,40014,0
2152,40033,0
2168,40034,0
2180,40026,0
2196,40055,0
2224,40029,0
2228,40046,0
2264,40054,0
2272,40047,0
2284,40013,0
2296,40012,0
2312,40059,0
2296,40035,0
2296,40023,0
2292,40043,0
2292,40016,0
2292,40033,0
2272,40054,0
2266,40023,0
2256,40008,0
2244,40052,0
2240,40044,0
2236,40021,0
2224,40057,0
2224,40024,0
2210,40033,0
2224,40057,0
2210,40033,0
2224,40003,0
2216,40040,0
2224,40048,0
2232,40024,0
2240,40049,0
2252,40020,0
2264,40035,0
2272,40070,0
2282,40034,0
2296,40037,0
2304,40039,0
2312,40036,0
2328,40041,0
2328,40045,0
2336,40035,0
2344,40021,0
2344,40040,0
2328,40046,0
2332,40031,0
2320,40034,0
2320,40056,0
2308,40046,0
2289,40040,0
2288,40049,0
2274,40029,0
2256,40036,0
2252,40082,0
2248,40040,0
2216,40040,0
2216,40052,0
2204,40050,0
2208,40051,0
2208,40048,0
2212,40032,0
2224,40028,0
2228,40067,0
2240,40033,0
2244,40025,0
2266,40055,0
2276,40020,0
2290,40040,0
2298,40047,0
2296,40047,0
2312,40018,0
2316,40052,0
2316,40056,0
2320,40024,0
2320,40057,0
2304,40023,0
2304,40032,0
2304,40072,0
2292,40048,0
2288,40034,0
2280,40041,0
2276,40049,0
2264,40051,0
2256,40032,0
2256,40042,0
2256,40057,0
2240,40050,0
2232,40036,0
2224,40062,0
2232,40028,0
2224,40046,0
2220,40072,0
2225,40044,0
2226,40036,0
2244,40059,0
2240,40050,0
2256,40046,0
2268,40060,0
2272,40030,0
2288,40036,0
2304,40054,0
2312,40036,0
2336,40025,0
2344,40048,0
2348,40028,0
2356,40072,0
2360,40039,0
2354,40032,0
2360,40054,0
2344,40039,0
2344,40055,0
2328,40050,0
2304,40028,0
2296,40028,0
2284,40081,0
2264,40043,0
2258,40040,0
2256,40052,0
2240,40039,0
2232,40060,0
2232,40060,0
2240,40035,0
2244,40041,0
2240,40052,0
2248,40051,0
2260,40041,0
2264,40058,0
2274,40026,0
2288,40052,0
2296,40068,0
2304,40030,0
2320,40031,0
2328,40044,0
2338,40070,0
2344,40041,0
2360,40040,0
2368,40028,0
2376,40063,0
2392,40044,0
2392,40009,0
2404,40060,0
2400,40029,0
2400,40030,0
2400,40082,0
2400,40043,0
2388,40011,0
2376,40051,0
2372,40048,0
2368,40031,0
2348,40059,0
2340,40028,0
2320,40010,0
2316,40083,0
2304,40040,0
2292,40030,0
2280,40054,0
2272,40043,0
2280,40049,0
2292,40061,0
2290,40036,0
2296,40019,0
2320,40063,0
2330,40044,0
2328,40029,0
2352,40035,0
2360,40037,0
2376,40040,0
2384,40041,0
2376,40063,0
2384,40018,0
2392,40027,0
2384,40068,0
2376,40031,0
2368,40032,0
2356,40043,0
2348,40035,0
2340,40048,0
2328,40043,0
2316,40021,0
2312,40013,0
2296,40056,0
2296,40036,0
2292,40015,0
2284,40036,0
2288,40006,0
2288,40045,0
2280,40047,0
2288,40021,0
2288,40019,0
2292,40040,0
2304,40038,0
2312,40020,0
2304,40033,0
2316,40008,0
2322,40018,0
2340,40059,0
2344,40011,0
2360,40025,0
2368,40007,0
2376,40038,0
2384,40039,0
2396,40017,0
2394,40031,0
2404,40019,0
2408,40033,0
2400,40040,0
2392,40019,0
2384,40008,0
2380,40037,0
2368,40031,0
2360,40006,0
2336,40024,0
2328,39999,0
2320,40017,0
2306,40035,0
2288,40003,0
2280,40004,0
2272,40016,0
2268,40018,0
2272,40010,0
2266,40012,0
2276,39995,0
2272,40001,0
2280,40030,0
2292,39994,0
2308,39983,0
2317,40006,0
2322,40004,0
2344,40020,0
2340,39983,0
2360,40000,0
2368,40002,0
2368,39998,0
2384,39995,0
2388,40011,0
2380,39984,0
2400,39970,0
2392,40037,0
2392,39990,0
2396,39971,0
2385,40011,0
2384,39985,0
2384,40001,0
2376,40012,0
2368,39982,0
2368,39978,0
2360,40013,0
2332,40002,0
2328,40002,0
2312,39999,0
2304,39980,0
2304,40027,0
2288,39994,0
2288,39978,0
2292,40003,0
2292,39977,0
2296,40000,0
2296,40007,0
2320,39986,0
2328,40009,0
2336,39990,0
2344,39990,0
2356,39995,0
2368,39993,0
2284,39995,0
2376,39994,0
2376,39964,0
2384,40001,0
2368,39976,0
2362,39955,0
2356,40027,0
2352,39990,0
2348,39969,0
2336,39997,0
2328,39977,0
2312,39998,0
2304,40004,0
2298,39977,0
2290,39983,0
2284,39998,0
2292,39992,0
2288,39981,0
2290,39990,0
2292,39971,0
2296,40014,0
2304,39998,0
2312,39983,0
2320,39986,0
2336,39981,0
2332,39995,0
2330,40007,0
2352,39970,0
2352,39970,0
2364,39990,0
2368,39980,0
2370,39990,0
2384,39979,0
2404,39971,0
2400,40007,0
2408,39971,0
2412,39979,0
2420,40003,0
2420,39963,0
2416,39997,0
2402,40000,0
2408,39977,0
2400,39970,0
2384,39986,0
2376,39985,0
2356,39974,0
2340,39996,0
2338,39965,0
2312,39972,0
2320,40010,0
2304,39973,0
2304,39949,0
2304,39993,0
2305,39982,0
2312,39952,0
2320,39999,0
2330,39973,0
2342,39949,0
2346,40019,0
2364,39970,0
2368,39975,0
2384,39982,0
2384,39976,0
2388,39998,0
2376,39994,0
2380,39971,0
2362,39954,0
2352,40005,0
2352,39994,0
2340,39978,0
2328,39991,0
2320,39964,0
2308,39995,0
2304,40002,0
2298,39971,0
2282,39977,0
2280,39975,0
2280,39998,0
2272,39999,0
2276,39975,0
2290,39957,0
2272,39998,0
2272,39979,0
2280,39974,0
2280,39991,0
2290,39951,0
2296,39987,0
2296,40000,0
2312,39966,0
2330,39968,0
2328,39990,0
2336,39971,0
2344,39959,0
2352,39982,0
2356,39980,0
2356,39966,0
2368,39981,0
2364,39986,0
2360,39967,0
2356,39951,0
2344,39983,0
2352,39973,0
2332,39967,0
2328,39985,0
2312,39957,0
2312,39982,0
2296,39996,0
2280,39955,0
2282,39965,0
2264,39979,0
2260,39971,0
2256,39960,0
2244,39990,0
2240,39947,0
2240,39962,0
2252,39995,0
2258,39953,0
2264,39953,0
2288,39973,0
2292,39969,0
2304,39960,0
2324,39991,0
2328,39955,0
2344,39949,0
2352,39991,0
2360,39983,0
2368,39969,0
2360,39946,0
2354,39953,0
2352,39997,0
2344,39964,0
2336,39942,0
2324,39979,0
2328,39953,0
2322,39950,0
2314,39982,0
2296,39947,0
2297,39933,0
2296,39999,0
2282,39961,0
2288,39949,0
2288,39984,0
2288,39951,0
2272,39959,0
2264,39988,0
2272,39960,0
2260,39946,0
2260,39989,0
2264,39987,0
2264,39960,0
2280,39973,0
2288,39953,0
2300,39990,0
2312,39990,0
2332,39960,0
2344,39963,0
2354,39960,0
2370,39977,0
2384,39975,0
2384,39956,0
2384,39972,0
2400,39956,0
2396,39984,0
2392,39991,0
2396,39954,0
2376,39959,0
2364,39992,0
2352,39975,0
2340,39969,0
2328,39993,0
2312,39955,0
2304,39968,0
2346,40001,0
2276,39963,0
2416,39944,0
2272,39985,0
2256,39992,0
2256,39965,0
2256,39989,0
2260,39956,0
2264,39962,0
2264,40007,0
2276,39971,0
2288,39972,0
2298,39971,0
2320,39979,0
2320,39985,0
2336,39983,0
2338,39972,0
2356,39946,0
2361,39996,0
2372,40000,0
2380,39967,0
2392,39960,0
2400,39969,0
2404,40004,0
2404,39971,0
2408,39957,0
2408,39968,0
2400,39975,0
2408,39977,0
2388,39984,0
2384,39973,0
2368,39952,0
2356,39992,0
2338,39990,0
2328,39971,0
2320,39980,0
2305,39973,0
2296,39984,0
2288,39992,0
2288,39975,0
2280,39962,0
2288,39988,0
2296,39975,0
2304,39968,0
2312,39989,0
2320,39955,0
2322,39968,0
2356,39971,0
2360,39985,0
2376,39974,0
2388,39946,0
2392,39982,0
2400,39974,0
2400,39995,0
2400,39969,0
2408,39968,0
2400,40007,0
2400,39972,0
2392,39973,0
2380,39971,0
2376,39964,0
2376,39984,0
2368,39998,0
2360,39961,0
2354,39960,0
2352,39996,0
2344,39972,0
2344,39963,0
2330,39993,0
2320,39955,0
2314,39983,0
2312,40004,0
2312,39968,0
2305,39952,0
2312,39977,0
2320,39974,0
2320,39944,0
2320,39988,0
2320,39954,0
2340,39970,0
2352,39989,0
2352,39964,0
2364,39965,0
2368,39940,0
2388,39964,0
2400,39995,0
2400,39950,0
2400,39970,0
2392,39972,0
2392,39984,0
2380,39983,0
2372,39979,0
2368,39953,0
2348,39992,0
2338,39973,0
2336,39971,0
2320,39988,0
2308,39956,0
2296,39987,0
2304,40000,0
2288,39966,0
2280,39955,0
2280,39969,0
2280,39975,0
2284,39967,0
2292,39985,0
2304,39950,0
2312,39945,0
2320,40006,0
2330,39955,0
2338,39956,0
2352,39962,0
2356,39969,0
2372,39987,0
2370,39981,0
2388,39963,0
2380,39977,0
2400,39968,0
2400,39969,0
2400,39982,0
2400,39961,0
2408,39964,0
2400,40004,0
2408,39973,0
2400,39964,0
2392,39986,0
2388,39964,0
2384,39969,0
2368,39992,0
2356,39966,0
2340,39935,0
2344,39988,0
2320,39979,0
2308,39944,0
2308,39985,0
2320,39950,0
2304,39969,0
2320,39995,0
2320,39966,0
2320,39950,0
2328,39986,0
2336,39988,0
2368,40023,0
2368,39969,0
2376,39969,0
2384,39982,0
2392,39981,0
2400,39976,0
2394,39977,0
2396,39964,0
2392,39984,0
2392,39977,0
2372,39984,0
2368,39956,0
2360,39962,0
2348,40001,0
2336,39973,0
2320,39965,0
2312,39982,0
2296,39963,0
2312,39981,0
2304,39987,0
2292,39964,0
2288,39951,0
2296,39998,0
2292,39981,0
2304,39956,0
2296,39990,0
2312,39962,0
2328,39969,0
2320,40004,0
2332,39961,0
2336,39944,0
2344,39999,0
2352,40023,0
2360,39994,0
2364,39975,0
2384,39961,0
2376,39976,0
2384,39984,0
2388,39977,0
2392,39994,0
2392,39965,0
2384,39988,0
2388,39994,0
2378,39962,0
2376,39966,0
2372,39990,0
2356,39982,0
2340,39965,0
2328,39992,0
2336,39972,0
2312,39954,0
2304,40024,0
2304,39973,0
2280,39982,0
2276,39993,0
2274,39986,0
2272,39989,0
2277,40003,0
2280,39970,0
2282,39957,0
2288,40012,0
2301,39979,0
2306,39987,0
2306,39998,0
2312,39974,0
2316,39987,0
2320,39993,0
2325,39972,0
2324,39971,0
2320,39975,0
2328,39997,0
2320,39999,0
2314,39972,0
2308,39966,0
2298,40013,0
2292,39982,0
2284,39960,0
2288,39992,0
2280,39982,0
2272,39978,0
2260,40012,0
2272,39981,0
2252,39977,0
2260,39998,0
2256,39999,0
2248,39986,0
2244,39984,0
2249,39980,0
2248,40013,0
2256,39992,0
2260,39975,0
2260,40009,0
2266,39972,0
2280,40002,0
2280,40007,0
2282,39976,0
2300,39972,0
2308,39979,0
2324,40014,0
2324,39996,0
2338,39983,0
2348,39976,0
2352,40004,0
2356,39993,0
2356,39990,0
2352,40005,0
2344,39970,0
2348,40003,0
2336,40014,0
2324,39975,0
2320,39976,0
2304,39991,0
2296,39996,0
2292,39982,0
2264,40003,0
2248,39976,0
2257,39961,0
2248,40013,0
2234,39985,0
2244,39977,0
2229,39997,0
2248,39984,0
2248,39986,0
2256,40022,0
2264,39989,0
2278,39991,0
2280,40017,0
2282,39988,0
2288,39996,0
2288,40006,0
2298,39994,0
2296,40010,0
2304,40010,0
2300,39972,0
2288,40005,0
2296,39987,0
2272,39977,0
2268,40010,0
2264,39982,0
2264,39972,0
2260,40021,0
2260,39999,0
2256,40007,0
2250,39988,0
2248,39973,0
2258,40021,0
2244,39998,0
2256,39996,0
2248,40000,0
2244,39975,0
2248,40001,0
2256,40004,0
2248,39982,0
2244,39965,0
2252,40002,0
2256,39995,0
2272,39969,0
2280,40000,0
2284,39973,0
2304,39988,0
2312,39987,0
2320,39987,0
2328,39984,0
2356,40000,0
2344,40022,0
2356,39998,0
2360,40007,0
2356,39987,0
2344,39983,0
2346,40025,0
2336,39977,0
2336,39987,0
2304,39997,0
2300,40001,0
2296,39986,0
2280,40018,0
2272,39981,0
2268,39963,0
2256,40029,0
2250,40003,0
2256,39983,0
2240,40013,0
2234,39991,0
2240,40009,0
2240,40016,0
2248,39998,0
2252,39991,0
2256,40011,0
2256,40015,0
2276,40007,0
2280,40011,0
2284,39978,0
2304,40017,0
2308,40009,0
2316,40005,0
2336,39996,0
2336,39993,0
2348,40030,0
2352,39997,0
2362,40001,0
2372,40016,0
2368,39982,0
2376,40011,0
2361,40009,0
2360,39986,0
2352,39969,0
2304,40029,0
2328,40011,0
2308,39978,0
2302,40016,0
2288,39989,0
2276,39997,0
2272,40028,0
2258,39994,0
2248,39971,0
2240,40011,0
2240,40013,0
2244,40011,0
2240,40004,0
2248,39988,0
2252,40023,0
2264,40023,0
2273,39999,0
2276,40007,0
2296,39993,0
2300,40014,0
2328,40050,0
2324,40010,0
2340,40007,0
2344,39994,0
2356,39998,0
2348,40023,0
2340,39993,0
2360,39980,0
2352,40018,0
2344,40009,0
2340,40007,0
2340,40014,0
2328,39992,0
2320,40017,0
2320,40026,0
2308,40000,0
2304,40021,0
2304,39980,0
2288,40017,0
2282,40036,0
2276,39996,0
2272,39988,0
2288,40007,0
2288,40020,0
2276,39993,0
2284,40024,0
2288,39992,0
2284,39986,0
2296,40032,0
2297,39995,0
2312,40009,0
2320,39998,0
2332,40018,0
2336,40031,0
2348,39993,0
2344,40029,0
2352,39980,0
2344,40021,0
2344,40031,0
2328,40004,0
2320,39992,0
2312,40024,0
2296,40015,0
2280,39979,0
2268,40019,0
2256,40002,0
2248,39982,0
2240,40036,0
2224,39997,0
2224,40006,0
2216,40012,0
2208,40013,0
2210,40020,0
2208,40020,0
2216,39995,0
2216,40009,0
2218,40028,0
2228,40002,0
2232,40024,0
2249,40002,0
2256,40007,0
2284,40019,0
2280,40007,0
2296,40007,0
2304,39999,0
2304,40004,0
2316,40013,0
2328,40005,0
2344,40024,0
2346,39991,0
2354,40010,0
2360,40030,0
2368,39988,0
2372,39996,0
2376,40031,0
2386,40018,0
2392,39989,0
2400,40032,0
2416,40001,0
2432,39997,0
2456,40041,0
2468,40004,0
2496,40001,0
2528,40027,0
2560,40013,0
2592,40033,0
2632,40012,0
2668,40009,0
2720,40023,0
2752,40026,0
2800,40014,0
2836,40032,0
2864,40001,0
2898,40031,0
2916,40031,0
2920,40014,0
2920,40000,0
2896,40016,0
2882,40020,0
2864,40007,0
2818,40034,0
2792,40000,0
2744,39996,0
2704,40046,0
2656,40019,0
2608,40016,0
2544,40027,0
2488,40013,0
2434,40052,0
2392,40030,0
2346,40012,0
2304,40011,0
2264,40026,0
2240,40017,0
2212,40033,0
2186,40019,0
2164,40000,0
2152,40043,0
2136,40026,0
2128,40013,0
2116,40033,0
2132,40000,0
2128,40031,0
2116,40036,0
2112,40013,0
2128,40020,0
2242,40028,0
2248,40031,0
2265,40008,0
2272,40032,0
2290,40046,0
2288,40016,0
2304,39999,0
2306,40040,0
2316,40025,0
2312,40001,0
2328,40029,0
2336,39996,0
2336,40020,0
2344,40053,0
2360,40015,0
2368,40027,0
2372,40023,0
2372,40044,0
2388,40046,0
2400,40016,0
2388,40012,0
2392,40040,0
2400,40037,0
2408,40024,0
2402,40029,0
2408,40023,0
2416,40023,0
2404,40059,0
2412,40017,0
2410,40023,0
2408,40041,0
2416,40033,0
2416,40024,0
2420,40024,0
2418,40024,0
2424,40039,0
2420,40039,0
2424,40039,0
2424,40039,0
2416,40039,0
2408,40039,0
2400,40039,0
2384,40044,0
2376,40015,0
2368,40015,0
2348,40015,0
2328,40015,0
2324,40015,0
2300,40015,0
2300,40020,0
2288,40007,0
2272,40007,0
2272,40007,0
2264,40007,0
2264,40007,0
2266,40007,0
2281,40007,0
2280,40041,0
2288,40041,0
2304,40041,0
2304,40041,0
2320,40041,0
2336,40041,0
2344,40041,0
2356,40037,0
2348,40054,0
2372,40025,0
2372,40006,0
2376,40050,0
2380,40041,0
2384,40015,0
2376,40053,0
2384,40024,0
2368,40044,0
2362,40038,0
2356,40027,0
2344,40038,0
2336,40025,0
2336,40045,0
2320,40052,0
2312,40035,0
2300,40016,0
2288,40039,0
2280,40036,0
2264,40044,0
2248,40042,0
2240,40005,0
2226,40039,0
2224,40059,0
2218,40026,0
2226,40004,0
2288,40031,0
2304,40042,0
2304,40046,0
2314,40026,0
2312,40055,0
2320,40027,0
2316,40049,0
2324,40047,0
2312,40025,0
2304,40029,0
2288,40056,0
2288,40049,0
2280,40026,0
2256,40045,0
2262,40012,0
2256,40035,0
2248,40065,0
2240,40031,0
2240,40009,0
2240,40045,0
2240,40043,0
2242,40029,0
2256,40053,0
2264,40032,0
2274,40039,0
2282,40067,0
2292,40038,0
2304,40046,0
2312,40029,0
2328,40043,0
2326,40071,0
2340,40030,0
2348,40031,0
2352,40050,0
2352,40051,0
2380,40044,0
2360,40027,0
2384,40020,0
2388,40052,0
2376,40056,0
2380,40033,0
2372,40059,0
2372,40036,0
2368,40036,0
2352,40072,0
2344,40034,0
2336,40043,0
2308,40034,0
2292,40045,0
2274,40067,0
2256,40041,0
2240,40029,0
2224,40046,0
2218,40047,0
2216,40037,0
2212,40064,0
2212,40010,0
2229,40023,0
2229,40071,0
2240,40030,0
2256,40032,0
2264,40046,0
2276,40032,0
2292,40037,0
2308,40036,0
2314,40033,0
2338,40015,0
2346,40029,0
2344,40010,0
2360,40041,0
2360,40012,0
2360,40000,0
2372,40060,0
2372,40026,0
2368,39995,0
2364,40031,0
2356,40013,0
2352,40019,0
2340,40046,0
2336,40021,0
2324,39985,0
2316,40047,0
2304,40020,0
2292,40002,0
2280,40028,0
2280,40006,0
2272,40039,0
2264,40043,0
2276,40006,0
2272,40027,0
2274,40001,0
2280,40021,0
2280,40030,0
2298,40004,0
2300,40010,0
2320,39979,0
2336,40038,0
2340,40021,0
2360,39990,0
2354,40003,0
2344,40002,0
2352,39991,0
2352,40026,0
2352,39987,0
2340,39977,0
2336,40038,0
2332,40011,0
2321,39992,0
2324,40017,0
2308,39993,0
2300,40018,0
2284,40015,0
2284,39997,0
2276,40010,0
2272,39995,0
2264,40006,0
2272,40014,0
2272,39994,0
2272,39984,0
2280,40029,0
2277,39985,0
2288,39985,0
2296,40005,0
2296,39981,0
2316,40011,0
2324,40021,0
2328,39982,0
2340,39968,0
2346,39983,0
2356,40010,0
2368,39976,0
2360,39978,0
2356,39971,0
2352,40012,0
2356,39997,0
2346,39971,0
2344,40003,0
2328,39957,0
2324,39981,0
2312,40007,0
2312,39969,0
2300,39952,0
2296,39986,0
2288,39987,0
2282,39961,0
2272,39999,0
2252,39976,0
2252,39960,0
2240,40017,0
2242,39976,0
2240,39989,0
2240,39976,0
2240,39992,0
2240,40004,0
2250,39973,0
2264,39968,0
2284,39990,0
2288,39988,0
2292,39978,0
2304,39968,0
2320,39977,0
2260,39962,0
2348,40007,0
2348,39982,0
2348,39973,0
2348,39975,0
2336,39974,0
2328,40014,0
2320,39976,0
2312,39978,0
2300,39997,0
2284,39986,0
2280,39987,0
2274,39999,0
2268,39970,0
2258,39956,0
2264,40015,0
2244,39982,0
2256,39961,0
2240,39985,0
2244,39972,0
2244,39989,0
2252,40004,0
2244,39971,0
2250,39972,0
2252,40013,0
2256,39985,0
2272,39961,0
2272,39984,0
2280,39966,0
2284,40006,0
2292,39971,0
2312,39969,0
2320,39980,0
2328,39982,0
2344,40003,0
2360,40000,0
2372,39960,0
2376,39969,0
2372,39998,0
2368,39975,0
2368,39974,0
2364,39985,0
2348,39955,0
2338,39988,0
2336,40001,0
2320,39970,0
2308,39963,0
2294,39981,0
2280,39982,0
2256,39963,0
2256,39985,0
2240,39958,0
2232,39945,0
2232,40007,0
2224,39968,0
2232,39965,0
2248,39994,0
2256,39977,0
2248,39987,0
2264,39989,0
2276,39963,0
2276,39970,0
2296,39977,0
2304,39974,0
2312,39970,0
2328,39957,0
2322,39972,0
2330,40003,0
2336,39954,0
2344,39944,0
2348,39988,0
2356,39962,0
2356,39985,0
2354,39984,0
2348,39964,0
2352,39957,0
2340,40000,0
2340,39973,0
2328,39990,0
2324,39969,0
2308,39964,0
2296,39997,0
2288,39957,0
2272,39973,0
2260,39987,0
2248,39956,0
2240,39987,0
2240,39979,0
2244,39947,0
2240,39958,0
2240,39994,0
2248,39971,0
2244,39961,0
2249,39973,0
2268,39972,0
2272,39987,0
2280,39976,0
2292,39965,0
2308,39937,0
2316,39958,0
2320,39995,0
2316,39958,0
2312,39959,0
2320,39971,0
2308,39957,0
2292,39966,0
2276,39972,0
2272,39942,0
2256,39938,0
2248,40001,0
2232,39967,0
2224,39940,0
2212,39989,0
2232,39936,0
2200,39961,0
2196,39983,0
2200,39956,0
2200,39945,0
2208,39974,0
2209,39969,0
2224,39973,0
2228,39960,0
2232,39952,0
2256,39991,0
2252,39975,0
2252,39957,0
2272,39954,0
2276,39955,0
2280,39980,0
2288,39980,0
2288,39961,0
2290,39954,0
2280,39978,0
2280,39974,0
2268,39960,0
2264,39985,0
2256,39962,0
2252,39956,0
2226,39996,0
2224,39965,0
2216,39940,0
2212,39974,0
2208,39972,0
2192,39948,0
2180,39990,0
2180,39965,0
2168,39968,0
2154,39991,0
2164,39986,0
2156,39982,0
2160,39982,0
2161,39963,0
2176,39994,0
2176,39966,0
2196,39966,0
2202,39984,0
2221,39961,0
2236,39983,0
2240,39971,0
2256,39974,0
2260,39969,0
2272,39983,0
2272,39979,0
2264,39945,0
2256,39981,0
2252,39961,0
2240,39977,0
2228,39999,0
2216,39965,0
2210,39971,0
2200,39972,0
2176,39985,0
2168,39994,0
2168,39960,0
2288,39953,0
2152,40002,0
2144,39975,0
2136,39961,0
2144,39986,0
2144,39951,0
2128,39981,0
2136,39999,0
2128,39963,0
2140,39962,0
2148,39976,0
2152,39989,0
2168,39949,0
2180,39985,0
2184,39952,0
2192,39950,0
2212,39984,0
2228,39980,0
2240,39979,0
2256,39951,0
2272,39971,0
2280,40001,0
2280,39965,0
2280,39948,0
2292,39991,0
2288,39981,0
2284,39966,0
2288,39991,0
2276,39962,0
2266,39966,0
2260,40017,0
2248,39970,0
2248,39996,0
2228,39974,0
2208,39966,0
2216,40011,0
2208,39978,0
2197,39965,0
2208,39985,0
2200,39977,0
2194,39988,0
2208,39990,0
2216,39960,0
2218,39965,0
2232,40010,0
2240,39978,0
2274,39957,0
2252,39983,0
2288,39972,0
2274,39984,0
2296,39973,0
2300,39968,0
2288,39987,0
2298,39980,0
2304,39960,0
2304,39994,0
2312,39955,0
2296,39962,0
2304,40015,0
2290,39988,0
2296,39986,0
2276,39994,0
2274,39973,0
2264,40012,0
2248,39975,0
2244,39981,0
2240,39993,0
2244,39972,0
2224,39990,0
2228,39990,0
2200,39965,0
2200,39962,0
2193,40012,0
2208,39978,0
2200,39981,0
2208,39995,0
2210,39962,0
2226,39993,0
2236,40005,0
2260,39982,0
2272,39990,0
2290,39981,0
2288,39990,0
2306,39990,0
2296,39981,0
2300,39989,0
2444,39978,0
2288,39989,0
2276,39999,0
2268,39964,0
2256,39966,0
2236,40008,0
2226,39985,0
2220,39975,0
2208,39992,0
2192,39956,0
2192,39976,0
2176,39996,0
2176,39970,0
2168,39952,0
2176,39996,0
2184,39991,0
2184,39964,0
2192,40001,0
2196,39970,0
2212,39981,0
2224,40011,0
2232,39974,0
2248,39985,0
2252,39978,0
2256,39985,0
2272,39982,0
2288,40003,0
2280,39984,0
2288,39968,0
2288,40004,0
2292,39981,0
2300,39968,0
2296,39997,0
2296,39981,0
2288,39990,0
2288,39997,0
2284,39968,0
2276,39971,0
2272,39997,0
2264,39989,0
2252,40001,0
2244,39964,0
2236,39966,0
2220,40022,0
2216,39986,0
2200,39975,0
2194,39988,0
2184,39966,0
2176,39988,0
2192,39995,0
2196,39973,0
2196,39947,0
2216,39994,0
2220,39983,0
2236,39969,0
2250,40003,0
2260,39957,0
2280,40011,0
2300,39994,0
2304,39975,0
2324,39986,0
2320,39967,0
2336,39988,0
2328,40007,0
2328,39970,0
2316,39952,0
2306,39998,0
2304,39993,0
2288,39969,0
2274,40004,0
2256,39978,0
2256,40000,0
2240,40004,0
2228,39980,0
2218,40007,0
2208,39979,0
2202,39991,0
2192,40012,0
2208,39970,0
2180,39980,0
2180,39991,0
2184,40000,0
2184,39980,0
2192,40000,0
2196,39970,0
2200,39989,0
2218,40019,0
2212,39973,0
2228,39963,0
2244,39961,0
2256,39991,0
2268,40005,0
2288,39959,0
2296,39981,0
2302,40005,0
2312,39993,0
2308,39989,0
2320,40000,0
2320,39975,0
2322,39983,0
2316,40023,0
2308,39980,0
2308,39972,0
2300,40008,0
2296,39993,0
2290,39987,0
2284,40017,0
2276,39986,0
2266,39983,0
2256,40025,0
2256,39997,0
2264,39992,0
2256,40010,0
2252,39974,0
2256,40015,0
2264,40007,0
2260,39981,0
2272,40007,0
2284,39991,0
2281,40008,0
2288,40006,0
2292,39999,0
2296,39989,0
2308,39977,0
2308,40011,0
2314,39989,0
2320,39997,0
2336,39977,0
2324,40004,0
2332,40021,0
2336,39990,0
2336,39972,0
2336,40005,0
2328,40002,0
2336,39975,0
2320,40012,0
2312,39991,0
2305,39988,0
2306,40023,0
2296,39998,0
2288,40002,0
2276,39992,0
2276,40008,0
2264,40020,0
2260,40015,0
2256,39995,0
2260,40013,0
2260,40020,0
2272,40001,0
2272,40016,0
2280,40008,0
2290,39995,0
2292,40034,0
2306,40010,0
2312,40006,0
2324,40003,0
2340,40008,0
2336,40032,0
2344,40015,0
2352,39997,0
2336,39986,0
2336,40028,0
2328,40013,0
2328,40015,0
2312,39995,0
2296,39999,0
2280,40041,0
2276,40010,0
2266,39996,0
2250,40010,0
2248,40002,0
2232,40011,0
2228,40017,0
2224,40000,0
2218,39975,0
2212,40032,0
2216,40011,0
2216,39988,0
2216,40028,0
2220,39991,0
2232,40003,0
2240,40031,0
2244,40008,0
2252,39987,0
2258,40025,0
2276,40032,0
2276,40014,0
2292,40001,0
2296,40009,0
2300,40040,0
2312,40008,0
2320,40003,0
2324,40020,0
2324,39989,0
2320,39992,0
2316,40034,0
2320,40001,0
2304,39988,0
2296,40017,0
2284,40014,0
2280,40001,0
2264,40019,0
2256,39992,0
2244,39995,0
2232,40047,0
2216,39995,0
2218,39996,0
2197,40010,0
2208,40015,0
2192,40020,0
2192,40023,0
2202,40004,0
2212,40017,0
2228,40025,0
2256,40017,0
2272,40022,0
2276,40008,0
2300,39983,0
2304,40029,0
2320,40019,0
2340,40030,0
2336,39997,0
2348,40006,0
2352,40040,0
2352,40002,0
2356,39992,0
2336,40024,0
2328,40020,0
2332,40019,0
2320,40014,0
2328,40002,0
2296,40013,0
2296,40047,0
2276,40012,0
2276,40014,0
2272,40025,0
2256,40011,0
2256,40022,0
2248,40027,0
2244,40006,0
2242,40005,0
2240,40040,0
2244,40016,0
2244,39997,0
2252,40031,0
2256,40000,0
2262,40000,0
2272,40027,0
2280,40012,0
2296,40012,0
2296,40012,0
2312,40011,0
2320,40014,0
2328,40023,0
2336,39992,0
2352,39990,0
2352,40052,0
2352,40007,0
2352,39988,0
2348,40020,0
2336,40020,0
2456,40006,0
2332,40037,0
2312,40006,0
2292,40010,0
2280,40037,0
2272,40014,0
2256,40017,0
2244,40013,0
2240,40006,0
2228,40052,0
2228,40019,0
2244,40008,0
2232,40029,0
2232,40020,0
2240,40030,0
2250,40044,0
2256,40011,0
2272,40009,0
2264,40046,0
2274,40023,0
2280,40028,0
2292,40007,0
2288,40000,0
2290,40021,0
2288,40011,0
2272,40028,0
2292,39993,0
2296,39999,0
2296,40057,0
2296,40010,0
2296,39987,0
2296,40026,0
2306,40025,0
2304,40010,0
2284,40037,0
2276,40016,0
2276,39990,0
2280,40049,0
2264,40017,0
2261,40013,0
2248,40040,0
2252,40006,0
2240,40033,0
2240,40033,0
2250,40009,0
2244,40027,0
2256,40014,0
2264,40026,0
2272,40042,0
2296,39998,0
2298,40004,0
2308,40023,0
2320,40021,0
2324,40036,0
2336,40024,0
2336,40008,0
2344,40052,0
2344,40026,0
2328,40009,0
2328,40024,0
2336,40014,0
2314,40039,0
2304,40037,0
2284,40009,0
2280,40011,0
2266,40039,0
2260,40031,0
2264,40024,0
2244,40034,0
2240,40007,0
2232,40034,0
2224,40046,0
2242,40019,0
2224,40020,0
2216,40034,0
2224,40036,0
2224,40028,0
2240,40036,0
2240,40006,0
2240,40020,0
2260,40063,0
2252,40013,0
2256,40007,0
2272,40006,0
2264,40047,0
2276,40048,0
2280,40019,0
2280,40029,0
2288,40034,0
2284,40036,0
2276,40032,0
2276,40037,0
2272,40021,0
2264,40016,0
2264,40059,0
2248,40015,0
2244,40011,0
2236,40030,0
2236,40017,0
2224,40029,0
2220,40055,0
2220,40024,0
2220,40004,0
2232,40046,0
2240,40030,0
2248,40004,0
2272,40042,0
2296,40018,0
2328,40022,0
2368,40049,0
2404,40013,0
2436,40016,0
2488,40048,0
2529,40036,0
2576,40031,0
2624,40042,0
2676,40025,0
2720,40018,0
2768,40032,0
2816,40018,0
2872,40035,0
2912,40014,0
2932,40022,0
2944,40058,0
2952,40024,0
2944,39999,0
2928,40043,0
2896,40042,0
2860,40013,0
2824,40052,0
2772,40020,0
2728,40025,0
2696,40058,0
2632,40024,0
2580,40024,0
2528,40037,0
2468,40038,0
2432,40054,0
2368,40033,0
2336,40028,0
2308,40031,0
2288,40046,0
2264,40037,0
2244,40043,0
2240,40022,0
2230,40025,0
2216,40058,0
2217,40027,0
2216,40033,0
2212,40016,0
2212,40040,0
2194,40019,0
2192,40034,0
2192,40019,0
2168,40040,0
2154,40038,0
2144,40053,0
2124,40040,0
2112,40027,0
2106,40047,0
2090,40044,0
2074,40036,0
2060,40047,0
2052,40031,0
2038,40027,0
2036,40064,0
2028,40026,0
2032,40035,0
2016,40040,0
2008,40044,0
2020,40044,0
2016,40047,0
2024,40019,0
2048,40019,0
2048,40058,0
2072,40032,0
2088,40016,0
2106,40048,0
2112,40019,0
2128,40057,0
2148,40036,0
2164,40038,0
2184,40052,0
2192,40039,0
2202,40024,0
2208,40050,0
2208,40024,0
2220,40012,0
2218,40054,0
2226,40045,0
2224,40019,0
2224,40056,0
2212,40017,0
2208,40029,0
2200,40065,0
2188,40031,0
2184,40014,0
2168,40056,0
2160,40059,0
2160,40045,0
2144,40047,0
2136,40036,0
2136,40056,0
2138,40063,0
2138,40033,0
2148,40058,0
2162,40034,0
2168,40039,0
2172,40077,0
2192,40030,0
2192,40038,0
2208,40035,0
2233,40046,0
2240,40068,0
2260,40063,0
2260,40055,0
2276,40055,0
2272,40058,0
2272,40028,0
2272,40051,0
2266,40025,0
2264,40048,0
2252,40074,0
2236,40041,0
2232,40029,0
2224,40049,0
2216,40045,0
2196,40034,0
2198,40073,0
2180,40044,0
2176,40018,0
2176,40083,0
2160,40040,0
2168,40055,0
2152,40054,0
2152,40046,0
2160,40084,0
2164,40046,0
2176,40046,0
2176,40056,0
2192,40061,0
2200,40064,0
2208,40067,0
2224,40044,0
2240,40042,0
2240,40077,0
2260,40052,0
2264,40069,0
2274,40038,0
2288,40037,0
2296,40084,0
2304,40046,0
2304,40028,0
2296,40056,0
2296,40039,0
2288,40041,0
2280,40064,0
2272,40047,0
2264,40020,0
2248,40092,0
2248,40054,0
2228,40029,0
2216,40069,0
2208,40030,0
2188,40053,0
2180,40081,0
2176,40045,0
2176,40039,0
2176,40070,0
2188,40069,0
2200,40069,0
2208,40050,0
2220,40045,0
2240,40071,0
2244,40066,0
2257,40047,0
2260,40072,0
2280,40062,0
2292,40061,0
2288,40067,0
2296,40050,0
2304,40075,0
2320,40058,0
2308,40073,0
2290,40082,0
2296,40049,0
2300,40046,0
2288,40072,0
2284,40070,0
2272,40050,0
2272,40071,0
2272,40040,0
2256,40057,0
2264,40089,0
2248,40051,0
2244,40044,0
2240,40071,0
2232,40067,0
2232,40056,0
2240,40080,0
2224,40045,0
2228,40032,0
2232,40104,0
2240,40060,0
2248,40036,0
2257,40078,0
2274,40051,0
2280,40066,0
2280,40071,0
2292,40065,0
2296,40048,0
2296,40079,0
2292,40079,0
2288,40053,0
2284,40066,0
2276,40061,0
2256,40057,0
2248,40067,0
2228,40082,0
2216,40057,0
2208,40062,0
2194,40100,0
2192,40054,0
2170,40063,0
2168,40071,0
2164,40069,0
2160,40065,0
2154,40080,0
2162,40058,0
2168,40034,0
2178,40103,0
2188,40061,0
2216,40063,0
2218,40070,0
2232,40050,0
2248,40093,0
2272,40079,0
2266,40058,0
2288,40051,0
2304,40052,0
2308,40091,0
2316,40064,0
2320,40050,0
2336,40069,0
2344,40086,0
2340,40067,0
2344,40069,0
2336,40064,0
2336,40053,0
2328,40096,0
2312,40058,0
2312,40044,0
2300,40066,0
2288,40042,0
2272,40067,0
2274,40077,0
2256,40044,0
2244,40041,0
2256,40070,0
2232,40066,0
2232,40057,0
2212,40056,0
2224,40032,0
2224,40059,0
2228,40060,0
2242,40039,0
2248,40036,0
2264,40059,0
2276,40051,0
2292,40039,0
2312,40041,0
2312,40053,0
2316,40036,0
2352,40053,0
2352,40035,0
2368,40058,0
2368,40025,0
2368,40046,0
2362,40054,0
2352,40024,0
2344,40054,0
2340,40032,0
2328,40040,0
2312,40054,0
2304,40036,0
2288,40024,0
2276,40037,0
2264,40054,0
2256,40028,0
2256,40046,0
2242,40005,0
2244,40024,0
2244,40069,0
2244,40024,0
2252,40017,0
2256,40038,0
2261,40020,0
2288,40037,0
2276,40039,0
2296,40008,0
2296,40004,0
2304,40043,0
2314,40015,0
2328,40040,0
2336,40028,0
2352,40004,0
2348,40025,0
2364,40012,0
2376,40003,0
2372,40014,0
2380,40004,0
2376,40004,0
2376,40035,0
2368,39999,0
2352,39975,0
2344,40032,0
2336,40017,0
2320,40003,0
2304,40015,0
2290,39994,0
2272,40050,0
2264,40007,0
2248,39997,0
2240,40014,0
2232,39989,0
2224,40029,0
2220,40023,0
2228,39986,0
2224,39992,0
2240,40037,0
2236,40007,0
2244,39997,0
2274,40008,0
2260,39984,0
2276,40026,0
2288,40019,0
2296,40000,0
2296,39990,0
2308,39995,0
2320,40013,0
2320,40023,0
2320,39986,0
2320,39977,0
2320,40017,0
2328,40009,0
2320,39981,0
2312,40010,0
2312,39982,0
2316,39994,0
2314,40023,0
2296,39989,0
2296,39971,0
2288,40006,0
2276,40001,0
2272,39980,0
2266,40005,0
2260,39986,0
2260,39980,0
2256,40030,0
2260,40000,0
2264,39995,0
2272,40001,0
2264,39997,0
2264,40011,0
2288,40000,0
2280,39988,0
2300,40009,0
2304,40020,0
2320,39990,0
2328,40015,0
2336,39995,0
2344,39983,0
2344,40027,0
2354,39989,0
2344,39981,0
2340,40008,0
2340,40003,0
2328,39988,0
2324,40010,0
2312,39983,0
2296,39978,0
2284,40022,0
2296,40000,0
2280,39992,0
2252,40000,0
2260,39972,0
2264,40021,0
2250,39999,0
2240,39993,0
2244,40009,0
2248,39976,0
2257,40007,0
2256,40018,0
2272,39986,0
2272,39982,0
2288,40012,0
2304,40000,0
2300,39974,0
2308,39991,0
2328,39988,0
2324,39988,0
2328,40019,0
2328,40017,0
2344,40007,0
2340,39974,0
2344,39984,0
2352,40015,0
2348,39969,0
2352,39975,0
2344,40010,0
2336,39997,0
2336,39980,0
2328,40013,0
2320,39980,0
2308,39982,0
2296,40024,0
2288,39982,0
2264,39987,0
2256,39989,0
2241,40007,0
2240,40008,0
2224,39991,0
2210,39973,0
2224,39992,0
2212,40004,0
2228,39994,0
2224,40001,0
2242,39973,0
2248,39993,0
2252,40024,0
2272,39986,0
2276,39993,0
2312,39972,0
2312,39999,0
2312,39983,0
2328,40009,0
2328,39971,0
2328,39960,0
2340,40014,0
2320,39986,0
2314,39988,0
2306,39994,0
2304,39971,0
2284,39997,0
2272,39994,0
2264,39980,0
2252,39970,0
2248,40002,0
2240,39993,0
2232,39986,0
2224,39980,0
2224,39972,0
2224,40013,0
2224,40001,0
2224,39963,0
2228,39994,0
2232,39971,0
2248,39998,0
2256,39994,0
2256,39975,0
2260,39971,0
2265,39995,0
2276,39982,0
2288,39966,0
2298,39977,0
2312,39980,0
2320,39982,0
2320,40011,0
2336,39975,0
2330,39971,0
2336,39985,0
2336,39979,0
2336,39990,0
2324,39989,0
2320,39961,0
2312,39968,0
2296,40006,0
2282,39976,0
2272,39968,0
2260,39991,0
2244,39963,0
2240,39967,0
2224,39998,0
2224,39976,0
2208,39954,0
2208,40002,0
2208,39984,0
2208,39964,0
2216,40003,0
2224,39966,0
2240,39974,0
2244,39998,0
2256,39968,0
2272,39970,0
2280,39979,0
2288,39978,0
2298,39993,0
2304,39984,0
2304,39989,0
2316,39980,0
2320,39986,0
2320,39999,0
2320,39965,0
2320,39959,0
2314,40009,0
2308,39980,0
2308,39970,0
2308,39997,0
2304,39964,0
2290,39974,0
2288,40001,0
2284,39965,0
2272,39951,0
2268,40001,0
2264,39982,0
2272,39957,0
2260,39990,0
2256,39964,0
2256,39972,0
2256,40013,0
2256,39977,0
2256,39972,0
2262,39983,0
2272,39999,0
2266,39998,0
2284,39970,0
2284,39995,0
2300,39967,0
2312,40009,0
2312,39986,0
2312,39981,0
2336,39982,0
2328,39986,0
2328,40007,0
2320,39983,0
2320,39969,0
2316,39985,0
2288,39990,0
2288,40001,0
2284,40000,0
2260,39979,0
2260,39964,0
2248,40007,0
2234,39979,0
2226,39975,0
2216,39986,0
2218,39977,0
2210,39997,0
2216,40004,0
2208,39976,0
2224,39960,0
2224,40001,0
2248,40004,0
2240,39964,0
2260,39990,0
2272,39959,0
2280,39978,0
2288,39970,0
2288,39997,0
2304,39980,0
2309,39963,0
2308,40008,0
2314,39972,0
2308,39997,0
2304,39945,0
2298,39972,0
2292,40002,0
2280,39966,0
2280,39952,0
2264,39991,0
2264,39978,0
2248,39973,0
2244,40002,0
2228,39958,0
2232,39970,0
2216,40007,0
2200,39983,0
2208,39974,0
2192,39987,0
2184,39964,0
2184,40003,0
2188,39995,0
2200,39978,0
2196,39991,0
2208,39981,0
2216,39992,0
2236,39996,0
2244,39975,0
2252,39970,0
2276,40000,0
2284,39982,0
2290,39966,0
2304,39993,0
2450,39974,0
2308,39991,0
2304,39993,0
2300,39979,0
2288,39961,0
2282,39996,0
2264,39984,0
2260,39981,0
2244,39990,0
2232,39955,0
2224,39985,0
2212,40008,0
2212,39970,0
2208,39982,0
2208,39990,0
2196,39988,0
2208,39978,0
2208,39994,0
2192,39952,0
2196,39950,0
2201,40024,0
2208,39966,0
2216,39956,0
2217,39992,0
2224,39967,0
2240,39990,0
2252,39988,0
2260,39984,0
2264,39964,0
2280,39994,0
2284,39985,0
2296,39983,0
2312,39983,0
2312,39970,0
2320,39979,0
2336,39996,0
2336,39975,0
2328,39972,0
2328,39992,0
2320,39987,0
2316,39996,0
2296,39973,0
2288,39971,0
2276,40001,0
2272,39977,0
2260,39967,0
2240,39993,0
2228,39958,0
2218,39983,0
2201,40003,0
2192,39974,0
2192,39966,0
2188,39993,0
2188,39983,0
2196,39980,0
2208,39989,0
2216,39962,0
2228,39962,0
2240,40012,0
2248,39967,0
2264,39984,0
2272,39973,0
2284,39990,0
2296,39998,0
2292,40002,0
2298,39977,0
2316,39961,0
2304,40013,0
2312,39989,0
2316,39985,0
2336,39978,0
2324,39972,0
2336,40002,0
2336,39988,0
2328,39974,0
2328,39989,0
2320,39984,0
2308,40001,0
2292,40008,0
2296,39976,0
2280,39971,0
2266,40018,0
2256,39984,0
2256,39977,0
2260,40002,0
2248,39966,0
2248,39974,0
2264,40005,0
2256,39980,0
2272,39956,0
2276,40000,0
2277,39988,0
2300,39976,0
2312,39975,0
2322,39979,0
2328,39987,0
2336,40002,0
2336,39962,0
2336,40001,0
2328,39974,0
2308,39973,0
2304,40020,0
2288,39984,0
2276,39957,0
2272,40009,0
2256,39993,0
2242,39991,0
2240,39994,0
2224,39972,0
2212,39987,0
2216,40013,0
2204,39985,0
2196,39999,0
2201,39975,0
2200,39994,0
2192,40008,0
2208,39976,0
2214,39984,0
2218,39996,0
2240,39993,0
2248,39986,0
2264,40005,0
2262,39967,0
2272,39966,0
2288,39990,0
2292,40003,0
2300,39974,0
2312,39991,0
2312,39986,0
2316,40020,0
2320,39976,0
2320,39971,0
2316,39999,0
2304,39995,0
2304,39969,0
2298,40005,0
2282,39975,0
2288,39964,0
2276,40024,0
2260,39989,0
2256,39990,0
2252,40002,0
2240,39986,0
2228,40007,0
2216,40009,0
2220,39984,0
2196,39980,0
2194,40014,0
2196,39997,0
2192,40003,0
2196,39981,0
2216,39986,0
2216,40022,0
2232,39987,0
2258,39999,0
2264,40004,0
2277,39989,0
2292,40017,0
2308,39980,0
2320,39987,0
2328,39999,0
2336,39990,0
2337,40003,0
2336,39998,0
2330,39994,0
2320,39982,0
2312,40028,0
2304,39987,0
2290,39992,0
2280,40007,0
2288,39982,0
2256,40013,0
2248,40009,0
2248,39988,0
2152,39978,0
2232,40015,0
2224,39998,0
2224,39975,0
2228,40012,0
2224,39973,0
2224,39977,0
2232,40022,0
2232,39987,0
2240,39988,0
2264,40008,0
2260,40001,0
2270,40015,0
2272,40004,0
2288,40004,0
2297,40005,0
2312,40024,0
2329,39975,0
2348,40020,0
2368,39987,0
2372,39989,0
2364,40029,0
2368,39988,0
2376,39991,0
2368,40002,0
2378,40002,0
2388,39984,0
2360,40017,0
2360,39989,0
2320,39976,0
2320,40033,0
2304,39988,0
2282,39988,0
2272,40006,0
2272,40004,0
2272,40025,0
2264,39994,0
2272,39992,0
2256,40000,0
2264,39990,0
2272,39997,0
2272,40015,0
2280,39991,0
2288,39987,0
2298,40025,0
2308,40013,0
2320,40006,0
2338,39985,0
2344,39980,0
2346,40014,0
2352,39975,0
2360,40022,0
2356,39971,0
2360,39986,0
2368,40023,0
2356,39986,0
2352,39996,0
2356,39995,0
2344,40011,0
2344,40018,0
2336,40001,0
2320,39995,0
2320,40006,0
2306,40006,0
2288,39980,0
2288,40011,0
2276,39980,0
2264,39985,0
2256,40032,0
2258,39995,0
2266,39980,0
2260,40005,0
2274,39999,0
2272,39992,0
2284,40022,0
2292,39999,0
2300,39982,0
2314,40013,0
2324,40001,0
2344,39985,0
2352,40000,0
2346,39996,0
2352,40040,0
2340,39986,0
2336,39993,0
2328,40017,0
2452,39996,0
2305,40006,0
2292,40018,0
2272,39979,0
2268,39975,0
2244,40020,0
2244,39998,0
2228,39978,0
2240,40017,0
2224,39975,0
2220,39995,0
2216,40024,0
2216,39998,0
2216,39978,0
2232,40009,0
2232,40009,0
2248,39993,0
2248,40014,0
2256,39981,0
2272,40018,0
2280,40013,0
2280,40003,0
2292,40012,0
2304,39978,0
2308,40015,0
2316,39988,0
2320,39991,0
2328,39986,0
2344,40007,0
2344,40004,0
2340,40015,0
2352,40006,0
2352,39988,0
2352,40014,0
2345,40020,0
2338,40001,0
2328,40006,0
2322,39980,0
2308,39998,0
2296,40023,0
2288,39987,0
2272,39985,0
2248,40005,0
2244,40006,0
2228,39986,0
2232,40004,0
2220,39990,0
2218,39978,0
2224,40042,0
2228,39998,0
2228,39986,0
2240,40014,0
2252,39984,0
2256,40006,0
2274,40021,0
2292,39993,0
2298,40015,0
2320,40026,0
2324,39993,0
2336,40003,0
2328,40013,0
2336,39981,0
2336,39998,0
2338,40024,0
2314,39997,0
2308,40006,0
2296,40001,0
2276,40005,0
2260,40024,0
2256,40000,0
2244,39986,0
2228,40027,0
2216,40001,0
2208,40004,0
2196,40016,0
2188,39987,0
2176,40014,0
2168,40029,0
2161,39994,0
2156,39969,0
2152,40022,0
2160,40024,0
2176,39985,0
2184,40031,0
2208,39999,0
2218,40007,0
2232,40025,0
2260,40027,0
2288,40017,0
2324,39988,0
2352,40029,0
2392,40019,0
2428,39998,0
2476,39980,0
2524,40023,0
2548,40023,0
2592,39984,0
2624,40029,0
2656,39998,0
2680,40014,0
2700,40035,0
2724,40005,0
2752,40027,0
2784,40001,0
2800,40007,0
2820,40046,0
2820,40002,0
2832,40004,0
2832,40018,0
2808,40020,0
2792,40016,0
2768,40030,0
2752,39992,0
2720,40002,0
2696,40048,0
2672,40006,0
2652,39991,0
2616,40026,0
2580,40007,0
2548,40025,0
2504,40022,0
2472,40012,0
2432,40008,0
2388,40020,0
2352,40009,0
2320,40014,0
2288,40002,0
2252,39981,0
2224,40049,0
2192,40007,0
2170,40007,0
2152,40027,0
2132,40008,0
2116,40034,0
2096,40011,0
2080,40010,0
2064,40019,0
2048,40030,0
2040,40024,0
2020,40035,0
2008,40011,0
2000,40001,0
2001,40047,0
1992,40015,0
1992,40014,0
2000,40025,0
2008,39997,0
2032,40018,0
2038,40035,0
2056,40011,0
2064,39993,0
2088,40002,0
2100,40025,0
2124,40012,0
2144,39984,0
2160,40009,0
2168,40038,0
2176,40017,0
2184,40008,0
2188,40028,0
2208,39995,0
2184,40024,0
2185,40041,0
2176,40012,0
2162,39986,0
2168,40021,0
2160,40028,0
2146,39992,0
2144,40035,0
2136,40005,0
2132,40016,0
2136,40064,0
2128,40016,0
2140,40013,0
2138,40012,0
2136,40014,0
2152,40040,0
2152,40012,0
2176,40010,0
2160,40025,0
