ECG,IR,PCG
1880,32625,0
1874,32598,0
1872,32651,0
1862,32636,0
1856,32639,0
1852,32672,0
1848,32647,0
1848,32658,0
1842,32648,0
1836,32695,0
1832,32691,0
1834,32691,0
1828,32694,0
1829,32663,0
1828,32717,0
1832,32711,0
1834,32702,0
1840,32721,0
1840,32716,0
1844,32744,0
1850,32712,0
1856,32723,0
1796,32726,0
1805,32729,0
1805,32759,0
1804,32742,0
1809,32746,0
1824,32737,0
1888,32767,0
1896,32780,0
1884,32747,0
1893,32754,0
1892,32734,0
1884,32762,0
1884,32750,0
1873,32751,0
1872,32746,0
1862,32770,0
1857,32767,0
1848,32742,0
1848,32750,0
1848,32724,0
1856,32752,0
1844,32758,0
1848,32740,0
1848,32735,0
1861,32707,0
1848,32753,0
1860,32718,0
1860,32717,0
1856,32711,0
1872,32723,0
1864,32720,0
1876,32698,0
1816,32697,0
1820,32696,0
1828,32701,0
1830,32707,0
1842,32673,0
1860,32675,0
1928,32664,0
1926,32671,0
1930,32678,0
1928,32647,0
1928,32647,0
1922,32627,0
1904,32642,0
1892,32638,0
1884,32626,0
1874,32611,0
1860,32633,0
1852,32625,0
1840,32614,0
1846,32609,0
1840,32601,0
1842,32626,0
1834,32604,0
1834,32594,0
1842,32594,0
1841,32583,0
1840,32613,0
1850,32585,0
1857,32585,0
1865,32584,0
1860,32591,0
1861,32605,0
1808,32586,0
1808,32589,0
1818,32578,0
1820,32612,0
1829,32619,0
1840,32589,0
1904,32601,0
1910,32588,0
1909,32620,0
1908,32627,0
1906,32609,0
1908,32597,0
1908,32634,0
1900,32619,0
1888,32646,0
1884,32642,0
1878,32646,0
1876,32639,0
1876,32682,0
1876,32673,0
1872,32680,0
1872,32691,0
1868,32699,0
1861,32731,0
1860,32728,0
1860,32730,0
1864,32744,0
1860,32756,0
1872,32790,0
1872,32770,0
1874,32787,0
1880,32795,0
1832,32812,0
1828,32836,0
1838,32814,0
1852,32838,0
1860,32831,0
1880,32876,0
1946,32893,0
1950,32873,0
1946,32884,0
1956,32885,0
1940,32903,0
1928,32936,0
1920,32924,0
1900,32938,0
1880,32957,0
1864,32968,0
1856,32957,0
1840,32997,0
1834,33019,0
1837,32988,0
1836,32997,0
1832,33006,0
1832,33043,0
1840,33058,0
1845,33039,0
1848,33044,0
1852,33034,0
1856,33075,0
1856,33095,0
1866,33069,0
1858,33089,0
1856,33055,0
1800,33108,0
1800,33111,0
1788,33097,0
1796,33094,0
1798,33086,0
1810,33109,0
1876,33122,0
1886,33107,0
1888,33110,0
1892,33144,0
1890,33114,0
1880,33138,0
1872,33126,0
1862,33117,0
1858,33119,0
1844,33115,0
1844,33130,0
1844,33115,0
1832,33114,0
1832,33109,0
1832,33136,0
1834,33138,0
1824,33113,0
1826,33124,0
1832,33122,0
1832,33136,0
1836,33151,0
1833,33122,0
1836,33129,0
1848,33130,0
1778,33136,0
1796,33146,0
1792,33121,0
1804,33134,0
1806,33129,0
1810,33149,0
1824,33153,0
1876,33129,0
1892,33136,0
1876,33120,0
1872,33156,0
1856,33144,0
1848,33145,0
1840,33144,0
1822,33157,0
1824,33151,0
1824,33169,0
1812,33149,0
1796,33159,0
1791,33140,0
1796,33188,0
1800,33180,0
1808,33162,0
1810,33185,0
1828,33157,0
1824,33203,0
1836,33204,0
1840,33183,0
1846,33198,0
1852,33196,0
1853,33219,0
1856,33205,0
1848,33206,0
1804,33212,0
1808,33201,0
1816,33243,0
1813,33242,0
1818,33233,0
1834,33250,0
1904,33231,0
1912,33274,0
1914,33293,0
1918,33278,0
1920,33300,0
1918,33306,0
1908,33298,0
1898,33311,0
1896,33335,0
1874,33324,0
1864,33353,0
1864,33338,0
1856,33336,0
1850,33343,0
1842,33333,0
1828,33371,0
1826,33344,0
1824,33347,0
1804,33355,0
1808,33356,0
1800,33375,0
1796,33370,0
1798,33366,0
1788,33356,0
1790,33373,0
1800,33397,0
1732,33377,0
1744,33366,0
1749,33370,0
1760,33367,0
1772,33375,0
1784,33357,0
1856,33357,0
1858,33349,0
1856,33359,0
1858,33352,0
1858,33333,0
1856,33325,0
1848,33327,0
1834,33330,0
1828,33292,0
1825,33280,0
1824,33258,0
1824,33281,0
1824,33278,0
1818,33235,0
1824,33228,0
1820,33206,0
1830,33224,0
1824,33214,0
1816,33176,0
1828,33156,0
1828,33137,0
1833,33152,0
1840,33142,0
1840,33111,0
1840,33095,0
1830,33092,0
1793,33087,0
1792,33086,0
1792,33050,0
1802,33035,0
1806,33026,0
1828,33039,0
1881,33032,0
1890,33001,0
1889,32996,0
1896,32972,0
1888,32971,0
1866,32967,0
1858,32960,0
1856,32937,0
1840,32927,0
1828,32947,0
1826,32924,0
1816,32908,0
1816,32915,0
1812,32894,0
1816,32914,0
1808,32898,0
1808,32887,0
1810,32881,0
1818,32861,0
1824,32888,0
1824,32867,0
1826,32864,0
1824,32861,0
1824,32859,0
1826,32864,0
1824,32845,0
1776,32843,0
1778,32842,0
1792,32845,0
1800,32853,0
1820,32830,0
1840,32826,0
1912,32819,0
1929,32832,0
1940,32843,0
1944,32836,0
1944,32814,0
1938,32803,0
1932,32814,0
1928,32828,0
1914,32820,0
1905,32820,0
1900,32797,0
1889,32825,0
1888,32835,0
1876,32810,0
1876,32820,0
1868,32802,0
1856,32838,0
1866,32840,0
1864,32800,0
1864,32819,0
1856,32813,0
1856,32849,0
1848,32846,0
1856,32822,0
1852,32824,0
1865,32832,0
1808,32825,0
1824,32860,0
1828,32837,0
1840,32838,0
1856,32837,0
1868,32837,0
1936,32856,0
1940,32843,0
1940,32837,0
1936,32851,0
1936,32848,0
1936,32855,0
1920,32846,0
1910,32871,0
1904,32866,0
1892,32861,0
1884,32879,0
1880,32891,0
1868,32871,0
1866,32873,0
1864,32885,0
1857,32877,0
1860,32899,0
1864,32898,0
1872,32893,0
1874,32902,0
1872,32870,0
1872,32925,0
1880,32916,0
1880,32909,0
1884,32912,0
1888,32901,0
1834,32932,0
1836,32919,0
1840,32921,0
1856,32912,0
1868,32925,0
1884,32936,0
1954,32918,0
1976,32917,0
1970,32925,0
1978,32930,0
1970,32946,0
1968,32934,0
1952,32936,0
1944,32938,0
1920,32931,0
1912,32917,0
1910,32949,0
1890,32933,0
1880,32932,0
1876,32943,0
1872,32921,0
1864,32954,0
1860,32943,0
1872,32930,0
1861,32940,0
1968,32909,0
1876,32950,0
1880,32943,0
1882,32928,0
1885,32925,0
1896,32908,0
1896,32946,0
1845,32952,0
1856,32923,0
1858,32922,0
1860,32903,0
1872,32932,0
1880,32932,0
1944,32910,0
1946,32901,0
1944,32881,0
1946,32912,0
1944,32879,0
1936,32901,0
1924,32894,0
1916,32882,0
1908,32905,0
1905,32881,0
1904,32870,0
1904,32865,0
1889,32878,0
1896,32893,0
1896,32857,0
1893,32861,0
1892,32836,0
1892,32868,0
1890,32873,0
1892,32839,0
1892,32844,0
1894,32817,0
1896,32841,0
1900,32849,0
1890,32821,0
1896,32812,0
1840,32798,0
1837,32815,0
1840,32817,0
1844,32789,0
1844,32790,0
1846,32775,0
1898,32792,0
1889,32792,0
1884,32766,0
1866,32746,0
1844,32770,0
1828,32770,0
1786,32766,0
1790,32747,0
1784,32755,0
1772,32758,0
1768,32730,0
1770,32730,0
1778,32708,0
1800,32742,0
1824,32744,0
1854,32713,0
1888,32705,0
1930,32690,0
1976,32723,0
2044,32722,0
2116,32695,0
2212,32709,0
2308,32685,0
2420,32713,0
2504,32725,0
2624,32708,0
2752,32696,0
2872,32689,0
2998,32721,0
3128,32723,0
3240,32703,0
3376,32705,0
3490,32702,0
3600,32721,0
3692,32732,0
3744,32746,0
3748,32715,0
3752,32717,0
3752,32722,0
3744,32713,0
3736,32725,0
3728,32711,0
3688,32713,0
3624,32699,0
3548,32734,0
3448,32709,0
3352,32705,0
3236,32702,0
3124,32689,0
3012,32719,0
2900,32696,0
2794,32704,0
2698,32696,0
2616,32661,0
2556,32697,0
2492,32688,0
2448,32671,0
2368,32658,0
2336,32639,0
2316,32662,0
2296,32661,0
2284,32636,0
2268,32626,0
2296,32600,0
2284,32637,0
2264,32621,0
2238,32607,0
2208,32578,0
2184,32579,0
2152,32579,0
2116,32562,0
2080,32581,0
2052,32554,0
2012,32579,0
1992,32536,0
1960,32549,0
1940,32532,0
1912,32522,0
1896,32541,0
1878,32519,0
1860,32505,0
1852,32501,0
1838,32494,0
1824,32515,0
1824,32488,0
1808,32484,0
1812,32478,0
1805,32493,0
1808,32509,0
1748,32486,0
1748,32480,0
1752,32473,0
1752,32485,0
1760,32501,0
1754,32486,0
1824,32493,0
1820,32491,0
1816,32498,0
1812,32518,0
1794,32505,0
1780,32522,0
1760,32503,0
1752,32510,0
1736,32523,0
1724,32524,0
1712,32533,0
1708,32535,0
1700,32540,0
1700,32569,0
1696,32543,0
1698,32556,0
1700,32551,0
1704,32587,0
1704,32595,0
1708,32579,0
1708,32587,0
1720,32584,0
1712,32617,0
1722,32624,0
1721,32611,0
1724,32620,0
1652,32611,0
1658,32648,0
1652,32667,0
1664,32638,0
1668,32656,0
1680,32663,0
1752,32670,0
1759,32701,0
1752,32690,0
1750,32696,0
1752,32711,0
1746,32726,0
1730,32708,0
1720,32750,0
1714,32745,0
1708,32738,0
1702,32759,0
1698,32777,0
1696,32762,0
1688,32771,0
1690,32771,0
1692,32800,0
1692,32813,0
1698,32782,0
1688,32787,0
1708,32794,0
1712,32817,0
1716,32837,0
1716,32818,0
1724,32820,0
1728,32809,0
1740,32842,0
1672,32843,0
1676,32824,0
1684,32821,0
1686,32822,0
1696,32825,0
1707,32842,0
1785,32806,0
1788,32810,0
1790,32813,0
1788,32798,0
1778,32800,0
1770,32790,0
1766,32781,0
1752,32767,0
1748,32775,0
1732,32760,0
1736,32754,0
1728,32731,0
1732,32753,0
1726,32739,0
1728,32708,0
1732,32701,0
1732,32676,0
1744,32698,0
1736,32689,0
1748,32648,0
1741,32640,0
1764,32603,0
1752,32630,0
1754,32619,0
1758,32589,0
1762,32570,0
1696,32537,0
1708,32552,0
1716,32541,0
1718,32525,0
1722,32512,0
1734,32481,0
1805,32503,0
1810,32489,0
1810,32449,0
1812,32458,0
1808,32439,0
1808,32456,0
1804,32410,0
1794,32423,0
1776,32396,0
1770,32391,0
1760,32370,0
1760,32400,0
1760,32396,0
1756,32366,0
1752,32360,0
1752,32334,0
1754,32378,0
1756,32355,0
1756,32352,0
1760,32339,0
1765,32320,0
1770,32355,0
1784,32356,0
1784,32326,0
1790,32320,0
1796,32316,0
1740,32352,0
1750,32349,0
1770,32315,0
1776,32315,0
1796,32307,0
1800,32339,0
1876,32337,0
1872,32309,0
1877,32315,0
1876,32309,0
1873,32318,0
1856,32297,0
1840,32316,0
1832,32318,0
1816,32308,0
1809,32303,0
1794,32321,0
1784,32323,0
1776,32305,0
1776,32304,0
1772,32301,0
1776,32301,0
1781,32330,0
1784,32304,0
1776,32299,0
1780,32306,0
1785,32309,0
1791,32318,0
1796,32293,0
1792,32298,0
1792,32299,0
1788,32287,0
1728,32310,0
1728,32279,0
1740,32271,0
1752,32269,0
1770,32264,0
1789,32279,0
1877,32254,0
1896,32242,0
1902,32245,0
1915,32244,0
1912,32231,0
1912,32225,0
1906,32240,0
1892,32220,0
1888,32216,0
1866,32214,0
1858,32208,0
1845,32208,0
1858,32220,0
1840,32194,0
1832,32197,0
1825,32186,0
1828,32203,0
1832,32210,0
1836,32183,0
1832,32186,0
1836,32176,0
1840,32186,0
1840,32188,0
1844,32169,0
1848,32176,0
1853,32172,0
1792,32156,0
1804,32187,0
1796,32188,0
1809,32171,0
1816,32174,0
1824,32158,0
1889,32192,0
1896,32183,0
1901,32176,0
1901,32276,0
1898,32193,0
1888,32194,0
1880,32181,0
1872,32201,0
1864,32190,0
1860,32209,0
1856,32218,0
1850,32196,0
1856,32210,0
1861,32206,0
1856,32193,0
1866,32234,0
1849,32212,0
1854,32221,0
1850,32219,0
1850,32226,0
1844,32238,0
1848,32225,0
1842,32237,0
1852,32223,0
1784,32249,0
1792,32265,0
1800,32238,0
1824,32251,0
1828,32248,0
1848,32263,0
1856,32276,0
1928,32257,0
1944,32263,0
1942,32271,0
1942,32255,0
1936,32276,0
1925,32297,0
1904,32265,0
1890,32267,0
1882,32277,0
1874,32271,0
1862,32294,0
1852,32271,0
1846,32276,0
1848,32261,0
1848,32274,0
1852,32294,0
1856,32292,0
1856,32273,0
1856,32285,0
1866,32276,0
1872,32302,0
1872,32278,0
1876,32281,0
1880,32297,0
1888,32301,0
1884,32306,0
1830,32285,0
1836,32280,0
1844,32287,0
1848,32293,0
1874,32307,0
1882,32293,0
1956,32295,0
1972,32283,0
1980,32296,0
1981,32317,0
1984,32288,0
1982,32273,0
1980,32302,0
1968,32310,0
1961,32308,0
1956,32303,0
1936,32308,0
1937,32333,0
1936,32307,0
1924,32313,0
1916,32310,0
1916,32306,0
1912,32338,0
1920,32319,0
1912,32322,0
1916,32322,0
1918,32316,0
1922,32353,0
1928,32339,0
1928,32331,0
1932,32339,0
1936,32321,0
1880,32358,0
1880,32360,0
1888,32358,0
1881,32348,0
1896,32330,0
1892,32376,0
1960,32386,0
1965,32367,0
1958,32368,0
1956,32357,0
1952,32375,0
1944,32363,0
2047,32379,0
1928,32371,0
1929,32369,0
1916,32364,0
1908,32371,0
1908,32358,0
1919,32389,0
1900,32384,0
1912,32376,0
1908,32375,0
1910,32344,0
1916,32386,0
1908,32383,0
1904,32362,0
1904,32360,0
1904,32346,0
1892,32373,0
1892,32376,0
1884,32354,0
1882,32350,0
1824,32334,0
1832,32363,0
1828,32357,0
1837,32340,0
1845,32344,0
1858,32336,0
1928,32356,0
1942,32352,0
1944,32355,0
1940,32352,0
1940,32357,0
1932,32338,0
1920,32359,0
1909,32377,0
1896,32355,0
1880,32371,0
1873,32355,0
1858,32391,0
1852,32384,0
1852,32375,0
1848,32375,0
1848,32367,0
1852,32408,0
1852,32409,0
1852,32388,0
1856,32396,0
1864,32375,0
1872,32413,0
1872,32432,0
1880,32402,0
1876,32421,0
1884,32392,0
1824,32438,0
1824,32438,0
1832,32425,0
1840,32429,0
1846,32430,0
1858,32460,0
1928,32467,0
1934,32451,0
1928,32458,0
1933,32448,0
1930,32457,0
1912,32480,0
1900,32467,0
1888,32470,0
1876,32513,0
1868,32473,0
1862,32507,0
1856,32509,0
1852,32498,0
1852,32502,0
1852,32481,0
1852,32513,0
1860,32530,0
1848,32499,0
1856,32498,0
1850,32492,0
1848,32514,0
1844,32516,0
1842,32494,0
1844,32497,0
1850,32493,0
1860,32494,0
1796,32504,0
1800,32490,0
1816,32486,0
1832,32472,0
1840,32485,0
1856,32495,0
1944,32457,0
1936,32452,0
1934,32441,0
1928,32444,0
1924,32434,0
1914,32424,0
1904,32432,0
1890,32430,0
1888,32399,0
1852,32380,0
1852,32384,0
1834,32369,0
1834,32361,0
1832,32358,0
1828,32338,0
1820,32343,0
1834,32337,0
1826,32310,0
1832,32304,0
1840,32284,0
1848,32302,0
1846,32294,0
1850,32267,0
1873,32259,0
1876,32238,0
1876,32259,0
1828,32268,0
1836,32226,0
1848,32219,0
1856,32204,0
1872,32223,0
1882,32224,0
1952,32193,0
1958,32190,0
1960,32187,0
1956,32199,0
1956,32184,0
1956,32188,0
1948,32185,0
1938,32182,0
1928,32172,0
1920,32180,0
1906,32170,0
1904,32205,0
1888,32206,0
1884,32182,0
1872,32194,0
1872,32185,0
1860,32214,0
1840,32226,0
1864,32202,0
1852,32218,0
1848,32208,0
1848,32235,0
1849,32251,0
1856,32246,0
1864,32242,0
1872,32249,0
1820,32258,0
1833,32281,0
1844,32284,0
1856,32290,0
1868,32285,0
1876,32302,0
1948,32329,0
1956,32312,0
1956,32323,0
1948,32324,0
1940,32344,0
1928,32341,0
1912,32373,0
1904,32372,0
1884,32363,0
1866,32358,0
1860,32393,0
1852,32414,0
1844,32384,0
1840,32399,0
1833,32379,0
1830,32421,0
1832,32430,0
1832,32410,0
1836,32414,0
1840,32416,0
1692,32425,0
1844,32448,0
1848,32413,0
1848,32427,0
1852,32425,0
1864,32432,0
1796,32457,0
1802,32444,0
1810,32434,0
1818,32429,0
1829,32425,0
1837,32463,0
1912,32448,0
1926,32443,0
1914,32444,0
1920,32349,0
1900,32438,0
1884,32458,0
1876,32451,0
1864,32438,0
1852,32446,0
1848,32425,0
1832,32422,0
1820,32405,0
1816,32439,0
1820,32434,0
1820,32401,0
1816,32392,0
1812,32376,0
1824,32387,0
1820,32410,0
1824,32377,0
1826,32367,0
1836,32370,0
1834,32358,0
1844,32379,0
1784,32360,0
1797,32351,0
1804,32351,0
1818,32322,0
1828,32365,0
1842,32360,0
1856,32331,0
1917,32332,0
1928,32306,0
1926,32341,0
1924,32332,0
1908,32349,0
1896,32334,0
1880,32307,0
1872,32338,0
1832,32318,0
1840,32341,0
1824,32312,0
1816,32323,0
1808,32305,0
1802,32343,0
1794,32361,0
1790,32333,0
1796,32332,0
1800,32334,0
1796,32361,0
1800,32370,0
1800,32352,0
1808,32365,0
1796,32359,0
1800,32379,0
1796,32409,0
1794,32382,0
1732,32395,0
1724,32410,0
1728,32401,0
1728,32434,0
1729,32440,0
1734,32427,0
1804,32443,0
1806,32443,0
1798,32478,0
1800,32501,0
1784,32467,0
1780,32497,0
1760,32508,0
1754,32493,0
1748,32506,0
1748,32501,0
1744,32551,0
1762,32561,0
1776,32532,0
1796,32552,0
1820,32535,0
1848,32574,0
1900,32586,0
1948,32563,0
2008,32578,0
2082,32568,0
2176,32601,0
2266,32610,0
2376,32596,0
2484,32592,0
2592,32599,0
2696,32609,0
2776,32629,0
2888,32611,0
2992,32620,0
3096,32619,0
3208,32621,0
3308,32641,0
3408,32637,0
3472,32628,0
3517,32635,0
3540,32613,0
3552,32606,0
3520,32645,0
3464,32653,0
3384,32645,0
3296,32667,0
3196,32664,0
3096,32677,0
2992,32639,0
2908,32650,0
2812,32640,0
2728,32675,0
2640,32685,0
2576,32667,0
2504,32666,0
2448,32659,0
2402,32684,0
2362,32693,0
2330,32673,0
2321,32679,0
2297,32683,0
2288,32685,0
2272,32705,0
2210,32680,0
2196,32684,0
2176,32689,0
2148,32679,0
2138,32713,0
2100,32693,0
2120,32691,0
2097,32696,0
2064,32690,0
2036,32723,0
2002,32713,0
1976,32703,0
1936,32726,0
1912,32697,0
1884,32708,0
1848,32715,0
1824,32708,0
1800,32688,0
1776,32728,0
1762,32733,0
1742,32720,0
1720,32720,0
1712,32709,0
1696,32751,0
1684,32755,0
1670,32734,0
1658,32736,0
1648,32727,0
1640,32766,0
1636,32754,0
1628,32736,0
1632,32749,0
1564,32740,0
1554,32756,0
1556,32771,0
1568,32751,0
1569,32761,0
1578,32757,0
1653,32778,0
1660,32795,0
1657,32789,0
1658,32785,0
1644,32806,0
1640,32792,0
1617,32805,0
1608,32798,0
1608,32819,0
1588,32820,0
1576,32829,0
1570,32826,0
1568,32863,0
1562,32851,0
1568,32852,0
1570,32860,0
1576,32849,0
1578,32891,0
1578,32885,0
1586,32881,0
1592,32898,0
1588,32885,0
1600,32929,0
1600,32925,0
1600,32910,0
1610,32920,0
1540,32912,0
1546,32950,0
1544,32966,0
1556,32937,0
1554,32954,0
1562,32931,0
1640,32976,0
1654,32993,0
1640,32978,0
1632,32983,0
1625,32986,0
1609,33002,0
1602,32989,0
1590,32999,0
1576,33014,0
1568,33015,0
1556,33040,0
1552,33043,0
1552,33037,0
1544,33039,0
1544,33039,0
1546,33060,0
1544,33087,0
1544,33070,0
1540,33064,0
1544,33081,0
1544,33073,0
1552,33099,0
1520,33102,0
1552,33086,0
1549,33097,0
1553,33084,0
1480,33121,0
1500,33131,0
1502,33106,0
1508,33122,0
1524,33115,0
1540,33137,0
1616,33150,0
1630,33125,0
1636,33129,0
1632,33138,0
1632,33143,0
1622,33128,0
1612,33121,0
1600,33146,0
1592,33156,0
1582,33162,0
1572,33152,0
1564,33157,0
1564,33146,0
1564,33165,0
1564,33173,0
1560,33157,0
1584,33160,0
1570,33160,0
1572,33180,0
1584,33193,0
1588,33173,0
1600,33185,0
1605,33183,0
1604,33187,0
1600,33221,0
1608,33220,0
1536,33214,0
1536,33226,0
1528,33220,0
1540,33266,0
1538,33254,0
1553,33248,0
1636,33270,0
1652,33250,0
1658,33303,0
1648,33303,0
1642,33308,0
1644,33305,0
1632,33315,0
1637,33306,0
1624,33328,0
1613,33346,0
1610,33344,0
1596,33382,0
1584,33371,0
1576,33368,0
1581,33384,0
1584,33378,0
1580,33435,0
1584,33440,0
1590,33415,0
1590,33437,0
1600,33426,0
1604,33469,0
1616,33484,0
1613,33459,0
1620,33475,0
1626,33474,0
1576,33500,0
1576,33521,0
1588,33513,0
1594,33510,0
1604,33522,0
1608,33557,0
1688,33572,0
1684,33561,0
1682,33563,0
1672,33728,0
1668,33593,0
1656,33604,0
1652,33597,0
1645,33615,0
1637,33623,0
1632,33615,0
1628,33650,0
1632,33659,0
1632,33643,0
1636,33660,0
1633,33645,0
1636,33694,0
1640,33703,0
1636,33677,0
1640,33695,0
1644,33694,0
1648,33713,0
1648,33726,0
1640,33718,0
1644,33706,0
1576,33718,0
1586,33713,0
1594,33739,0
1597,33732,0
1612,33723,0
1620,33715,0
1628,33705,0
1712,33734,0
1718,33740,0
1713,33713,0
1713,33712,0
1704,33728,0
1700,33731,0
1684,33701,0
1668,33708,0
1668,33690,0
1658,33673,0
1660,33705,0
1644,33693,0
1644,33668,0
1642,33666,0
1641,33635,0
1641,33673,0
1648,33651,0
1648,33623,0
1656,33620,0
1656,33600,0
1666,33624,0
1660,33619,0
1664,33579,0
1662,33583,0
1664,33560,0
1660,33578,0
1592,33590,0
1604,33556,0
1600,33537,0
1600,33515,0
1612,33544,0
1616,33549,0
1697,33517,0
1709,33507,0
1706,33509,0
1712,33513,0
1704,33486,0
1704,33521,0
1696,33494,0
1688,33496,0
1684,33475,0
1674,33485,0
1662,33486,0
1658,33468,0
1648,33499,0
1636,33501,0
1626,33469,0
1632,33479,0
1622,33464,0
1620,33493,0
1622,33505,0
1624,33474,0
1612,33482,0
1622,33468,0
1620,33488,0
1628,33492,0
1632,33483,0
1632,33484,0
1568,33477,0
1580,33472,0
1588,33507,0
1592,33500,0
1604,33477,0
1612,33491,0
1692,33461,0
1700,33497,0
1696,33509,0
1688,33490,0
1704,33479,0
1672,33513,0
1664,33501,0
1648,33486,0
1634,33501,0
1636,33509,0
1620,33489,0
1608,33485,0
1608,33484,0
1600,33514,0
1592,33521,0
1602,33494,0
1592,33492,0
1600,33484,0
1596,33514,0
1604,33525,0
1602,33491,0
1612,33504,0
1608,33494,0
1616,33515,0
1608,33517,0
1608,33507,0
1552,33496,0
1560,33501,0
1570,33474,0
1584,33517,0
1600,33514,0
1614,33494,0
1696,33495,0
1705,33468,0
1709,33514,0
1709,33514,0
1700,33496,0
1696,33489,0
1685,33500,0
1760,33493,0
1662,33474,0
1656,33498,0
1648,33480,0
1634,33476,0
1625,33463,0
1608,33496,0
1605,33504,0
1600,33474,0
1588,33481,0
1586,33469,0
1586,33470,0
1580,33498,0
1588,33480,0
1592,33472,0
1600,33473,0
1604,33455,0
1600,33485,0
1620,33494,0
1552,33468,0
1562,33461,0
1572,33460,0
1580,33488,0
1592,33496,0
1592,33462,0
1660,33472,0
1670,33469,0
1666,33479,0
1656,33487,0
1650,33465,0
1646,33481,0
1640,33471,0
1626,33475,0
1618,33496,0
1606,33466,0
1592,33489,0
1588,33507,0
1592,33475,0
1584,33477,0
1584,33484,0
1576,33490,0
1580,33502,0
1576,33486,0
1576,33492,0
1576,33498,0
1576,33479,0
1576,33518,0
1584,33508,0
1577,33495,0
1584,33494,0
1578,33482,0
1508,33521,0
1524,33523,0
1520,33490,0
1528,33506,0
1538,33498,0
1544,33501,0
1622,33526,0
1644,33513,0
1634,33505,0
1636,33515,0
1642,33513,0
1644,33534,0
1636,33523,0
1632,33526,0
1632,33524,0
1618,33523,0
1609,33522,0
1600,33544,0
1588,33552,0
1582,33532,0
1582,33543,0
1572,33540,0
1566,33532,0
1568,33576,0
1564,33574,0
1564,33545,0
1568,33561,0
1568,33545,0
1564,33576,0
1564,33585,0
1572,33565,0
1564,33561,0
1500,33564,0
1496,33568,0
1508,33584,0
1504,33577,0
1525,33567,0
1532,33581,0
1604,33561,0
1613,33605,0
1616,33605,0
1614,33596,0
1606,33599,0
1602,33615,0
1592,33607,0
1588,33628,0
1580,33636,0
1572,33613,0
1570,33625,0
1562,33610,0
1560,33642,0
1560,33654,0
1560,33642,0
1552,33638,0
1556,33635,0
1552,33654,0
1556,33667,0
1556,33668,0
1550,33660,0
1552,33663,0
1553,33655,0
1549,33690,0
1560,33695,0
1562,33673,0
1492,33672,0
1490,33682,0
1498,33672,0
1506,33705,0
1518,33693,0
1529,33692,0
1616,33700,0
1620,33678,0
1620,33725,0
1616,33727,0
1605,33703,0
1590,33711,0
1584,33714,0
1572,33704,0
1560,33741,0
1552,33733,0
1532,33718,0
1528,33735,0
1520,33711,0
1514,33745,0
1508,33749,0
1521,33729,0
1512,33732,0
1494,33721,0
1517,33738,0
1526,33754,0
1532,33725,0
1540,33729,0
1532,33728,0
1536,33725,0
1472,33752,0
1469,33760,0
1476,33734,0
1478,33737,0
1494,33732,0
1502,33744,0
1520,33765,0
1600,33734,0
1612,33723,0
1608,33728,0
1602,33701,0
1592,33723,0
1580,33730,0
1568,33730,0
1548,33753,0
1528,33738,0
1512,33723,0
1504,33729,0
1496,33705,0
1477,33714,0
1480,33727,0
1488,33709,0
1490,33714,0
1492,33711,0
1500,33696,0
1506,33731,0
1512,33720,0
1526,33703,0
1616,33721,0
1537,33693,0
1540,33720,0
1548,33733,0
1569,33701,0
1504,33703,0
1512,33712,0
1528,33684,0
1540,33715,0
1552,33724,0
1564,33707,0
1650,33702,0
1654,33695,0
1654,33733,0
1664,33737,0
1648,33723,0
1640,33732,0
1624,33706,0
1616,33728,0
1608,33741,0
1600,33725,0
1578,33729,0
1568,33719,0
1562,33748,0
1548,33753,0
1552,33728,0
1544,33736,0
1552,33728,0
1552,33762,0
1554,33773,0
1553,33751,0
1568,33742,0
1568,33761,0
1568,33749,0
1564,33780,0
1564,33779,0
1568,33768,0
1492,33783,0
1497,33748,0
1508,33793,0
1512,33807,0
1520,33772,0
1536,33781,0
1608,33772,0
1618,33804,0
1610,33813,0
1612,33797,0
1600,33803,0
1590,33813,0
1578,33809,0
1564,33801,0
1546,33827,0
1532,33832,0
1524,33849,0
1514,33813,0
1508,33822,0
1496,33822,0
1500,33828,0
1496,33848,0
1500,33830,0
1510,33807,0
1510,33817,0
1520,33800,0
1528,33820,0
1534,33804,0
1542,33800,0
1554,33804,0
1560,33801,0
1564,33825,0
1500,33807,0
1509,33803,0
1512,33803,0
1517,33783,0
1528,33822,0
1536,33825,0
1616,33801,0
1620,33807,0
1619,33800,0
1604,33810,0
1600,33799,0
1592,33803,0
1572,33811,0
1556,33808,0
1552,33791,0
1525,33825,0
1514,33801,0
1514,33797,0
1392,33791,0
1510,33822,0
1504,33835,0
1497,33807,0
1500,33816,0
1504,33808,0
1508,33831,0
1504,33846,0
1514,33829,0
1524,33823,0
1520,33834,0
1526,33836,0
1532,33856,0
1542,33841,0
1482,33851,0
1488,33848,0
1504,33841,0
1508,33878,0
1520,33852,0
1540,33865,0
1612,33861,0
1618,33853,0
1610,33888,0
1618,33891,0
1600,33907,0
1582,33882,0
1564,33901,0
1556,33903,0
1544,33874,0
1534,33881,0
1521,33893,0
1508,33889,0
1496,33911,0
1492,33903,0
1494,33891,0
1500,33901,0
1504,33881,0
1504,33918,0
1504,33911,0
1516,33890,0
1508,33894,0
1512,33893,0
1514,33897,0
1515,33905,0
1514,33897,0
1501,33888,0
1428,33896,0
1424,33869,0
1416,33908,0
1408,33892,0
1411,33882,0
1404,33883,0
1482,33862,0
1478,33897,0
1466,33888,0
1460,33864,0
1456,33841,0
1450,33867,0
1436,33859,0
1432,33865,0
1420,33868,0
1414,33815,0
1412,33850,0
1420,33849,0
1412,33825,0
1421,33811,0
1436,33798,0
1456,33826,0
1485,33829,0
1516,33801,0
1552,33793,0
1598,33789,0
1646,33766,0
1716,33791,0
1800,33771,0
1896,33753,0
2002,33771,0
2104,33742,0
2168,33767,0
2286,33750,0
2408,33733,0
2520,33733,0
2640,33703,0
2768,33736,0
2904,33744,0
3026,33701,0
3116,33714,0
3192,33690,0
3264,33695,0
3304,33690,0
3324,33681,0
3328,33689,0
3304,33697,0
3248,33671,0
3168,33664,0
3076,33665,0
2980,33631,0
2884,33668,0
2792,33667,0
2708,33633,0
2616,33640,0
2528,33621,0
2448,33646,0
2364,33645,0
2288,33616,0
2228,33622,0
2164,33623,0
2120,33603,0
2080,33630,0
2032,33637,0
1952,33594,0
1924,33608,0
1909,33593,0
1888,33620,0
1862,33629,0
1850,33601,0
1890,33600,0
1866,33616,0
1840,33592,0
1808,33635,0
1776,33612,0
1738,33633,0
1706,33626,0
1658,33624,0
1616,33660,0
1586,33641,0
1560,33638,0
1534,33649,0
1480,33664,0
1452,33682,0
1434,33647,0
1406,33662,0
1386,33661,0
1373,33669,0
1364,33691,0
1356,33683,0
1344,33680,0
1348,33691,0
1344,33667,0
1348,33711,0
1344,33728,0
1342,33697,0
1264,33709,0
1259,33705,0
1272,33705,0
1280,33729,0
1273,33711,0
1286,33703,0
1368,33698,0
1368,33707,0
1359,33729,0
1344,33591,0
1321,33732,0
1324,33598,0
1318,33598,0
1312,33598,0
1304,33598,0
1288,33598,0
1281,33598,0
1264,33598,0
1264,33587,0
1253,33587,0
1245,33587,0
1245,33587,0
1236,33587,0
1238,33587,0
1233,33587,0
1234,33571,0
1235,33571,0
1236,33571,0
1232,33571,0
1236,33571,0
1240,33571,0
1228,33571,0
1224,33734,0
1224,33576,0
1226,33576,0
1221,33576,0
1233,33576,0
1226,33576,0
1301,33576,0
1303,33769,0
1301,33571,0
1295,33571,0
1280,33766,0
1269,33775,0
1258,33802,0
1244,33779,0
1240,33792,0
1238,33795,0
1234,33776,0
1225,33820,0
1216,33828,0
1218,33800,0
1220,33815,0
1226,33798,0
1236,33835,0
1236,33839,0
1246,33817,0
1260,33818,0
1264,33823,0
1274,33833,0
1293,33847,0
1297,33836,0
1308,33830,0
1320,33826,0
1252,33811,0
1260,33852,0
1272,33846,0
1299,33830,0
1300,33831,0
1389,33832,0
1378,33814,0
1372,33812,0
1368,33832,0
1364,33856,0
1360,33831,0
1352,33824,0
1346,33827,0
1356,33833,0
1350,33852,0
1352,33825,0
1360,33833,0
1364,33836,0
1250,33809,0
1382,33843,0
1380,33847,0
1392,33820,0
1388,33816,0
1314,33806,0
1312,33831,0
1316,33823,0
1316,33797,0
1320,33787,0
1324,33799,0
1330,33787,0
1330,33798,0
1344,33789,0
1344,33776,0
1434,33771,0
1440,33745,0
1426,33780,0
1428,33777,0
1408,33770,0
1396,33758,0
1380,33776,0
1368,33745,0
1364,33736,0
1342,33724,0
1330,33732,0
1324,33725,0
1320,33747,0
1317,33726,0
1314,33709,0
1324,33721,0
1332,33691,0
1325,33727,0
1342,33715,0
1350,33689,0
1356,33682,0
1360,33672,0
1372,33702,0
1372,33701,0
1370,33672,0
1381,33672,0
1304,33659,0
1306,33684,0
1324,33672,0
1315,33651,0
1322,33640,0
1328,33643,0
1418,33623,0
1412,33641,0
1413,33642,0
1418,33623,0
1404,33636,0
1424,33610,0
1404,33610,0
1392,33625,0
1392,33606,0
1385,33631,0
1386,33625,0
1384,33601,0
1392,33597,0
1389,33588,0
1392,33599,0
1396,33611,0
1408,33577,0
1398,33575,0
1404,33560,0
1401,33551,0
1400,33589,0
1404,33576,0
1400,33548,0
1404,33561,0
1408,33537,0
1408,33551,0
1336,33558,0
1344,33528,0
1344,33527,0
1348,33528,0
1360,33508,0
1373,33546,0
1457,33545,0
1461,33509,0
1454,33516,0
1452,33494,0
1440,33483,0
1432,33491,0
1428,33498,0
1408,33500,0
1248,33533,0
1392,33522,0
1376,33493,0
1384,33503,0
1390,33494,0
1380,33496,0
1388,33518,0
1382,33492,0
1386,33491,0
1397,33504,0
1400,33477,0
1400,33508,0
1401,33511,0
1402,33488,0
1406,33484,0
1412,33490,0
1412,33489,0
1400,33508,0
1333,33497,0
1341,33495,0
1338,33499,0
1345,33462,0
1356,33509,0
1365,33516,0
1462,33483,0
1477,33490,0
1470,33490,0
1477,33475,0
1488,33491,0
1476,33511,0
1472,33499,0
1466,33486,0
1448,33479,0
1448,33499,0
1432,33479,0
1424,33486,0
1425,33492,0
1416,33461,0
1412,33466,0
1412,33472,0
1412,33440,0
1413,33489,0
1432,33481,0
1426,33462,0
1444,33460,0
1444,33452,0
1448,33446,0
1458,33466,0
1460,33439,0
1462,33438,0
1396,33435,0
1402,33411,0
1412,33444,0
1434,33434,0
1436,33412,0
1452,33414,0
1530,33403,0
1535,33392,0
1536,33413,0
1544,33407,0
1544,33391,0
1540,33408,0
1528,33405,0
1520,33398,0
1500,33389,0
1498,33378,0
1493,33403,0
1496,33396,0
1490,33390,0
1493,33384,0
1495,33364,0
1492,33409,0
1496,33415,0
1508,33380,0
1512,33387,0
1514,33383,0
1512,33390,0
1514,33416,0
1513,33393,0
1520,33391,0
1526,33401,0
1524,33380,0
1453,33419,0
1460,33415,0
1464,33398,0
1472,33407,0
1488,33403,0
1504,33428,0
1588,33443,0
1606,33407,0
1606,33424,0
1612,33532,0
1613,33422,0
1604,33442,0
1600,33416,0
1592,33441,0
1580,33442,0
1576,33439,0
1572,33443,0
1560,33457,0
1554,33466,0
1560,33460,0
1552,33454,0
1556,33456,0
1552,33449,0
1548,33486,0
1552,33491,0
1560,33468,0
1556,33477,0
1572,33466,0
1580,33494,0
1584,33501,0
1520,33482,0
1532,33487,0
1536,33482,0
1548,33481,0
1556,33517,0
1569,33501,0
1582,33497,0
1661,33505,0
1672,33478,0
1672,33532,0
1666,33546,0
1664,33647,0
1656,33506,0
1648,33529,0
1630,33538,0
1618,33546,0
1620,33527,0
1594,33557,0
1592,33562,0
1588,33539,0
1577,33552,0
1580,33555,0
1569,33553,0
1574,33585,0
1576,33580,0
1580,33581,0
1588,33582,0
1584,33564,0
1592,33600,0
1594,33617,0
1596,33595,0
1600,33610,0
1608,33610,0
1546,33597,0
1542,33635,0
1556,33652,0
1565,33622,0
1569,33626,0
1587,33624,0
1680,33637,0
1678,33655,0
1682,33640,0
1684,33639,0
1694,33647,0
1696,33648,0
1685,33659,0
1676,33647,0
1672,33637,0
1661,33651,0
1662,33650,0
1665,33629,0
1652,33628,0
1668,33642,0
1664,33622,0
1658,33640,0
1672,33659,0
1664,33632,0
1668,33631,0
1672,33610,0
1674,33643,0
1674,33656,0
1672,33632,0
1672,33639,0
1668,33612,0
1672,33636,0
1608,33651,0
1604,33625,0
1602,33626,0
1602,33638,0
1604,33611,0
1612,33640,0
1686,33646,0
1690,33622,0
1693,33629,0
1694,33622,0
1706,33645,0
1713,33628,0
1708,33649,0
1710,33641,0
1716,33636,0
1708,33659,0
1704,33644,0
1706,33647,0
1700,33638,0
1708,33656,0
1700,33663,0
1698,33664,0
1692,33662,0
1692,33659,0
1696,33649,0
1692,33684,0
1688,33693,0
1692,33657,0
1704,33666,0
1713,33644,0
1708,33682,0
1720,33695,0
1664,33675,0
1664,33685,0
1666,33661,0
1676,33662,0
1680,33689,0
1686,33682,0
1753,33674,0
1763,33669,0
1752,33655,0
1754,33691,0
1744,33675,0
1732,33661,0
1728,33636,0
1714,33658,0
1704,33673,0
1688,33660,0
1716,33653,0
1680,33649,0
1684,33659,0
1692,33672,0
1692,33644,0
1696,33644,0
1704,33642,0
1706,33627,0
1718,33653,0
1720,33645,0
1736,33623,0
1736,33623,0
1740,33603,0
1744,33630,0
1756,33637,0
1764,33598,0
1712,33602,0
1728,33584,0
1724,33612,0
1736,33607,0
1754,33582,0
1768,33583,0
1846,33574,0
1860,33554,0
1851,33597,0
1856,33599,0
1864,33574,0
1846,33551,0
1842,33542,0
1824,33560,0
1816,33534,0
1800,33538,0
1796,33526,0
1788,33547,0
1776,33542,0
1660,33521,0
1778,33523,0
1772,33513,0
1768,33506,0
1778,33533,0
1776,33528,0
1776,33505,0
1782,33508,0
1790,33492,0
1784,33532,0
1784,33550,0
1785,33521,0
1788,33525,0
1729,33526,0
1724,33537,0
1732,33567,0
1742,33554,0
1744,33550,0
1760,33557,0
1832,33549,0
1846,33598,0
1842,33608,0
1842,33597,0
1833,33599,0
1832,33598,0
1826,33632,0
1812,33648,0
1808,33668,0
1804,33631,0
1794,33675,0
1789,33685,0
1788,33675,0
1784,33684,0
1780,33691,0
1784,33702,0
1778,33729,0
1780,33718,0
1784,33710,0
1784,33724,0
1800,33721,0
1784,33759,0
1794,33775,0
1800,33735,0
1800,33760,0
1816,33753,0
1760,33767,0
1765,33795,0
1780,33769,0
1784,33776,0
1794,33777,0
1808,33759,0
1872,33808,0
1880,33806,0
1880,33774,0
1870,33771,0
1866,33783,0
1856,33784,0
1840,33790,0
1820,33774,0
1816,33753,0
1796,33777,0
1788,33759,0
1772,33736,0
1776,33724,0
1768,33704,0
1782,33729,0
1780,33730,0
1786,33681,0
1785,33686,0
1792,33661,0
1788,33646,0
1800,33659,0
1796,33639,0
1800,33606,0
1809,33585,0
1796,33554,0
1792,33567,0
1728,33562,0
1736,33523,0
1740,33506,0
1744,33491,0
1740,33462,0
1748,33477,0
1832,33460,0
1837,33430,0
1834,33415,0
1842,33387,0
1740,33402,0
1826,33374,0
1824,33352,0
1814,33357,0
1800,33349,0
1792,33330,0
1784,33302,0
1780,33301,0
1780,33263,0
1776,33289,0
1784,33277,0
1784,33248,0
1788,33237,0
1790,33228,0
1790,33237,0
1796,33226,0
1797,33203,0
1796,33182,0
1796,33192,0
1793,33147,0
1790,33171,0
1784,33160,0
1720,33141,0
1712,33134,0
1712,33110,0
1704,33145,0
1700,33143,0
1700,33110,0
1760,33113,0
1759,33105,0
1750,33108,0
1728,33169,0
1722,33103,0
1712,33093,0
1708,33120,0
1708,33096,0
1713,33078,0
1732,33108,0
1748,33111,0
1778,33092,0
1800,33088,0
1840,33083,0
1884,33098,0
1937,33105,0
2002,33087,0
2080,33096,0
2162,33091,0
2264,33084,0
2362,33115,0
2472,33111,0
2576,33096,0
2684,33104,0
2768,33082,0
2874,33127,0
2996,33135,0
3108,33115,0
3216,33124,0
3316,33115,0
3408,33144,0
3476,33157,0
3530,33141,0
3542,33142,0
3546,33163,0
3512,33251,0
3452,33177,0
3376,33183,0
3284,33178,0
3192,33185,0
3096,33212,0
3008,33206,0
2920,33214,0
2848,33221,0
2764,33204,0
2692,33243,0
2632,33253,0
2560,33236,0
2506,33239,0
2468,33246,0
2440,33243,0
2420,33276,0
2408,33271,0
2388,33261,0
2376,33268,0
2360,33247,0
2342,33282,0
2280,33293,0
2256,33271,0
2228,33272,0
2198,33259,0
2165,33263,0
2131,33285,0
2154,33283,0
2129,33263,0
2096,33258,0
2064,33249,0
2026,33251,0
2036,33281,0
2004,33253,0
1924,33241,0
1896,33237,0
1872,33228,0
1852,33231,0
1828,33201,0
1810,33240,0
1784,33217,0
1768,33203,0
1756,33210,0
1752,33171,0
1740,33213,0
1730,33222,0
1722,33185,0
1714,33188,0
1704,33173,0
1712,33185,0
1708,33188,0
1708,33160,0
1704,33164,0
1636,33169,0
1636,33150,0
1644,33180,0
1648,33191,0
1654,33162,0
1660,33162,0
1738,33156,0
1736,33183,0
1734,33200,0
1728,33193,0
1712,33166,0
1704,33199,0
1696,33233,0
1686,33215,0
1680,33227,0
1668,33236,0
1664,33258,0
1650,33251,0
1652,33252,0
1650,33261,0
1648,33250,0
1652,33294,0
1648,33312,0
1644,33295,0
1648,33314,0
1656,33316,0
1660,33313,0
1660,33349,0
1656,33359,0
1654,33355,0
1656,33368,0
1656,33366,0
1590,33401,0
1592,33404,0
1594,33391,0
1604,33400,0
1610,33409,0
1628,33400,0
1700,33434,0
1706,33451,0
1706,33436,0
1709,33451,0
1700,33451,0
1700,33458,0
1698,33459,0
1692,33480,0
1688,33481,0
1676,33496,0
1680,33501,0
1684,33495,0
1674,33491,0
1676,33494,0
1673,33486,0
1676,33522,0
1674,33529,0
1688,33512,0
1560,33510,0
1688,33495,0
1696,33528,0
1704,33539,0
1712,33499,0
1712,33514,0
1712,33511,0
1720,33497,0
1665,33527,0
1660,33533,0
1668,33499,0
1672,33494,0
1680,33485,0
1692,33499,0
1754,33514,0
1757,33480,0
1754,33470,0
1749,33470,0
1748,33332,0
1800,33326,0
1804,33318,0
1792,33298,0
1796,33323,0
1772,33321,0
1778,33298,0
1760,33301,0
1746,33285,0
1744,33319,0
1734,33318,0
1732,33298,0
1732,33294,0
1732,33293,0
1738,33276,0
1742,33320,0
1748,33309,0
1744,33295,0
1746,33308,0
1752,33292,0
1748,33314,0
1754,33325,0
1748,33314,0
1744,33314,0
1740,33317,0
1732,33303,0
1722,33340,0
1710,33340,0
1698,33326,0
1752,33328,0
1742,33338,0
1727,33350,0
1718,33368,0
1712,33356,0
1712,33356,0
1712,33356,0
1714,33356,0
1712,33356,0
1808,33375,0
1744,33366,0
1752,33366,0
1764,33366,0
1776,33366,0
1786,33366,0
1792,33366,0
1798,33366,0
1816,33386,0
1808,33386,0
1812,33386,0
1808,33386,0
1816,33386,0
1816,33386,0
1808,33386,0
1808,33371,0
1812,33371,0
1752,33371,0
1754,33371,0
1764,33371,0
1776,33371,0
1793,33371,0
1810,33323,0
1882,33397,0
1896,33397,0
1890,33397,0
1890,33397,0
1888,33333,0
1888,33308,0
1872,33302,0
1860,33276,0
1856,33298,0
1852,33299,0
1840,33262,0
1836,33256,0
1828,33241,0
1828,33216,0
1848,33238,0
1833,33235,0
1840,33200,0
1840,33203,0
1844,33189,0
1840,33179,0
1844,33192,0
1844,33169,0
1844,33142,0
1840,33133,0
1848,33123,0
1840,33133,0
1780,33126,0
1782,33086,0
1772,33088,0
1776,33078,0
1784,33049,0
1862,32754,0
1852,33064,0
1848,33035,0
1840,33023,0
1832,33020,0
1828,33007,0
1828,32984,0
1816,32962,0
1820,32983,0
1812,32970,0
1816,32945,0
1816,32941,0
1816,32911,0
1816,32932,0
1818,32918,0
1816,32890,0
1816,32871,0
1820,32862,0
1760,32832,0
1764,32852,0
1770,32853,0
1796,32812,0
1792,32808,0
1804,32797,0
1812,32786,0
1832,32805,0
1824,32776,0
1834,32771,0
1889,32763,0
1882,32731,0
1872,32772,0
1858,32766,0
1836,32725,0
1818,32736,0
1796,32724,0
1778,32702,0
1772,32717,0
1764,32709,0
1752,32687,0
1756,32717,0
1748,32723,0
1756,32689,0
1754,32688,0
1768,32679,0
1776,32690,0
1788,32700,0
1792,32703,0
1804,32675,0
1808,32684,0
1824,32669,0
1824,32692,0
1830,32699,0
1825,32683,0
1832,32682,0
1760,32685,0
1766,32667,0
1764,32698,0
1772,32695,0
1782,32683,0
1788,32695,0
1852,32669,0
1856,32710,0
1856,32729,0
1858,32691,0
1848,32725,0
1842,32725,0
1836,32713,0
1828,32710,0
1826,32740,0
1820,32719,0
1816,32713,0
1816,32747,0
1808,32737,0
1808,32728,0
1808,32737,0
1810,32735,0
1809,32761,0
1820,32774,0
1824,32748,0
1824,32756,0
1828,32770,0
1820,32752,0
1818,32794,0
1824,32803,0
1824,32791,0
1828,32790,0
1772,32792,0
1776,32806,0
1784,32829,0
1800,32815,0
1808,32817,0
1824,32817,0
1909,32814,0
1910,32857,0
1914,32854,0
1922,32843,0
1908,32828,0
1904,32843,0
1900,32851,0
1888,32842,0
1872,32847,0
1876,32879,0
1864,32863,0
1864,32841,0
1856,32852,0
1860,32834,0
1856,32866,0
1861,32876,0
1852,32840,0
1850,32825,0
1848,32826,0
1844,32811,0
1852,32856,0
1844,32840,0
1840,32818,0
1842,32812,0
1848,32807,0
1852,32828,0
1796,32822,0
1812,32809,0
1824,32804,0
1846,32802,0
1856,32779,0
1880,32819,0
1952,32811,0
1968,32784,0
1970,32791,0
1968,32782,0
1972,32763,0
1962,32779,0
1952,32778,0
1940,32752,0
1929,32771,0
1920,32743,0
1908,32773,0
1908,32784,0
1900,32757,0
1900,32758,0
1908,32756,0
1914,32741,0
1912,32776,0
1916,32775,0
1921,32748,0
1930,32752,0
1932,32748,0
1940,32774,0
1936,32771,0
1940,32757,0
1936,32753,0
1940,32758,0
1880,32735,0
1882,32786,0
1876,32786,0
1880,32765,0
1884,32759,0
1882,32774,0
1938,32751,0
1944,32785,0
1954,32784,0
1952,32758,0
1952,32760,0
1960,32758,0
1968,32779,0
1962,32790,0
1968,32771,0
1964,32784,0
1960,32770,0
1976,32748,0
1952,32754,0
1952,32737,0
1956,32763,0
1944,32767,0
1948,32750,0
1956,32737,0
1944,32749,0
1956,32749,0
1952,32763,0
1960,32743,0
1961,32725,0
1966,32746,0
1972,32706,0
1988,32749,0
1936,32757,0
1938,32723,0
1942,32743,0
1952,32725,0
1952,32732,0
1953,32747,0
2012,32738,0
2008,32733,0
2004,32737,0
2000,32713,0
1996,32763,0
1992,32724,0
1992,32747,0
1992,32741,0
1996,32756,0
1986,32738,0
1992,32766,0
1988,32758,0
1994,32746,0
1996,32753,0
2004,32741,0
2012,32761,0
2016,32781,0
2025,32765,0
2024,32748,0
2028,32767,0
2028,32733,0
2032,32783,0
2028,32785,0
2028,32759,0
2032,32755,0
2036,32765,0
1972,32752,0
1976,32787,0
1969,32794,0
1968,32754,0
1964,32765,0
1965,32775,0
2016,32758,0
2014,32778,0
2014,32782,0
2009,32758,0
2012,32755,0
2014,32764,0
2016,32761,0
2020,32776,0
2018,32759,0
2018,32741,0
2020,32745,0
2021,32713,0
2008,32750,0
2024,32760,0
2022,32723,0
2024,32729,0
2032,32731,0
2024,32717,0
2028,32742,0
2036,32723,0
2028,32714,0
2036,32709,0
2034,32688,0
2044,32712,0
2046,32715,0
2047,32693,0
2008,32684,0
2001,32689,0
2004,32660,0
2004,32699,0
2000,32711,0
2000,32662,0
2052,32659,0
2046,32658,0
2038,32646,0
2036,32660,0
2036,32660,0
2046,32653,0
2052,32647,0
2056,32644,0
2072,32615,0
2066,32646,0
2080,32650,0
2082,32626,0
2080,32628,0
2072,32619,0
2080,32641,0
2080,32642,0
2076,32634,0
2070,32628,0
2064,32628,0
2058,32605,0
2060,32640,0
2060,32646,0
2064,32616,0
2060,32609,0
2066,32615,0
2072,32600,0
2016,32643,0
2018,32645,0
2026,32614,0
2037,32616,0
2036,32616,0
2052,32617,0
2120,32646,0
2120,32633,0
2121,32626,0
2116,32738,0
2108,32634,0
2104,32645,0
2092,32633,0
2080,32646,0
2080,32680,0
2066,32649,0
2064,32650,0
2068,32669,0
2064,32645,0
2068,32687,0
2068,32699,0
2074,32670,0
2064,32678,0
2076,32679,0
2068,32682,0
2076,32714,0
2072,32719,0
2076,32694,0
2073,32699,0
2072,32691,0
2012,32727,0
2013,32734,0
2016,32712,0
2012,32719,0
2008,32729,0
2019,32703,0
2024,32755,0
2090,32752,0
2104,32727,0
2106,32741,0
2113,32736,0
2112,32738,0
2106,32745,0
2106,32743,0
2104,32738,0
2104,32772,0
2100,32773,0
2096,32790,0
2076,32769,0
2084,32773,0
2072,32773,0
2072,32754,0
2060,32791,0
2058,32789,0
2060,32772,0
2064,32761,0
2066,32770,0
2069,32757,0
2068,32784,0
2080,32796,0
2080,32759,0
2092,32766,0
2084,32765,0
2048,32743,0
2050,32790,0
2056,32790,0
2052,32756,0
2064,32764,0
2072,32752,0
2114,32744,0
2122,32782,0
2126,32773,0
2120,32752,0
2114,32751,0
2124,32751,0
2112,32778,0
2106,32782,0
2098,32751,0
2089,32773,0
2096,32759,0
2100,32761,0
2088,32749,0
2096,32780,0
2092,32796,0
2096,32774,0
2098,32780,0
2101,32791,0
2108,32774,0
2106,32814,0
2112,32831,0
2106,32805,0
2104,32810,0
2100,32819,0
2096,32791,0
2092,32836,0
2032,32833,0
2038,32831,0
2026,32833,0
2037,32822,0
2040,32854,0
2048,32874,0
2104,32845,0
2124,32853,0
2118,32861,0
2122,32850,0
2114,32864,0
2104,32871,0
2092,32884,0
2084,32888,0
2064,32883,0
2050,32898,0
2032,32880,0
2016,32892,0
1996,32887,0
2000,32893,0
1980,32908,0
1980,32896,0
1976,32901,0
1976,32905,0
1980,32880,0
1988,32914,0
2000,32934,0
2008,32910,0
2047,32908,0
2056,32905,0
2080,32913,0
2106,32930,0
2096,32925,0
2124,32920,0
2168,32923,0
2236,32907,0
2293,32940,0
2369,32943,0
2504,32913,0
2594,32920,0
2688,32923,0
2789,32911,0
2896,32927,0
2984,32916,0
3076,32914,0
3164,32921,0
3272,32935,0
3368,32929,0
3456,32925,0
3552,32952,0
3644,32958,0
3714,32934,0
3740,32936,0
3744,32934,0
3752,32934,0
3744,32953,0
3736,32953,0
3718,32938,0
3680,32941,0
3624,32932,0
3552,32956,0
3480,32969,0
3404,32965,0
3324,32958,0
3232,32957,0
3152,32945,0
3066,32980,0
2992,32982,0
2920,32961,0
2864,32977,0
2842,32968,0
2804,32959,0
2762,32996,0
2732,33007,0
2704,32978,0
2672,33005,0
2640,33004,0
2600,32973,0
2564,33000,0
2524,33032,0
2488,33003,0
2466,33013,0
2430,33008,0
2404,32998,0
2376,33038,0
2356,33046,0
2324,33026,0
2300,33038,0
2276,33027,0
2424,33048,0
2236,33068,0
2216,33046,0
2194,33052,0
2168,33046,0
2146,33053,0
2128,33082,0
2066,33089,0
2048,33071,0
2032,33093,0
2032,33089,0
2024,33073,0
2024,33104,0
2076,33123,0
2072,33094,0
2070,33115,0
2070,33113,0
2047,33118,0
2040,33139,0
2026,33121,0
2016,33143,0
2000,33146,0
1992,33120,0
1980,33164,0
1986,33175,0
1968,33145,0
1964,33155,0
1952,33158,0
1964,33157,0
1952,33193,0
1944,33181,0
1952,33174,0
1944,33183,0
1944,33167,0
1944,33193,0
1948,33206,0
1898,33191,0
1954,33191,0
1948,33193,0
1896,33188,0
1902,33218,0
1912,33232,0
1913,33204,0
1906,33200,0
1914,33212,0
1972,33190,0
1981,33229,0
1956,33220,0
1958,33208,0
1944,33193,0
1936,33211,0
1936,33206,0
1917,33217,0
1912,33212,0
1904,33216,0
1904,33232,0
1900,33225,0
1900,33217,0
1914,33223,0
1914,33210,0
1916,33227,0
1924,33241,0
1928,33221,0
1940,33219,0
1937,33224,0
1940,33208,0
1944,33231,0
1937,33238,0
1936,33218,0
1936,33220,0
1936,33215,0
1880,33199,0
1884,33237,0
1888,33243,0
1896,33226,0
1900,33216,0
1904,33212,0
1970,33214,0
1978,33238,0
1992,33227,0
1984,33216,0
1984,33212,0
1980,33216,0
1978,33229,0
1966,33232,0
1960,33219,0
1968,33227,0
2072,33203,0
1948,33252,0
1948,33265,0
1944,33228,0
1936,33243,0
1940,33225,0
1936,33213,0
1944,33266,0
1944,33268,0
1948,33249,0
1948,33259,0
1964,33237,0
1964,33266,0
1964,33284,0
1968,33273,0
1972,33271,0
1920,33277,0
1924,33263,0
1924,33313,0
1928,33318,0
1932,33302,0
1938,33304,0
1997,33312,0
1996,33310,0
1992,33342,0
1996,33443,0
1980,33340,0
1984,33360,0
1964,33368,0
1960,33354,0
1956,33356,0
1952,33367,0
1946,33403,0
1944,33398,0
1940,33399,0
1944,33404,0
1938,33386,0
1938,33429,0
1948,33438,0
1946,33413,0
1948,33421,0
1956,33426,0
1952,33409,0
1960,33453,0
1960,33461,0
1968,33440,0
1920,33448,0
1924,33441,0
1932,33428,0
1942,33466,0
1952,33468,0
1968,33441,0
1984,33448,0
2044,33435,0
2046,33439,0
2052,33450,0
2046,33440,0
2032,33443,0
2026,33454,0
2008,33427,0
2000,33447,0
1992,33423,0
1980,33420,0
1986,33418,0
1968,33418,0
1972,33422,0
1972,33415,0
1984,33403,0
1988,33405,0
1988,33384,0
2002,33388,0
2006,33406,0
2010,33400,0
2016,33371,0
2012,33378,0
2016,33365,0
2012,33381,0
2016,33376,0
2016,33357,0
1968,33345,0
1972,33348,0
1968,33321,0
1970,33358,0
1984,33357,0
1984,33327,0
2040,33325,0
2046,33321,0
2041,33299,0
2036,33338,0
2040,33307,0
2044,33332,0
2036,33325,0
2040,33305,0
2036,33306,0
2040,33295,0
2042,33286,0
2044,33295,0
2058,33272,0
2058,33296,0
2064,33300,0
2068,33278,0
2072,33279,0
2080,33280,0
2072,33268,0
2080,33290,0
2080,33302,0
2088,33279,0
2092,33281,0
2088,33276,0
2096,33281,0
2096,33305,0
2044,33298,0
2050,33268,0
2048,33290,0
2049,33280,0
2050,33284,0
2044,33296,0
2104,33303,0
2102,33276,0
2096,33286,0
2092,33278,0
2088,33300,0
2084,33286,0
2080,33287,0
2077,33287,0
2080,33323,0
2076,33281,0
2088,33300,0
2084,33325,0
2088,33304,0
2084,33309,0
2082,33307,0
2096,33279,0
2096,33334,0
2090,33329,0
2108,33310,0
2100,33310,0
2106,33317,0
2088,33301,0
2082,33326,0
2084,33342,0
2074,33310,0
2064,33320,0
2012,33319,0
2022,33300,0
2016,33336,0
2022,33348,0
2030,33318,0
2038,33322,0
2104,33327,0
2114,33302,0
2116,33340,0
2128,33337,0
2104,33338,0
2098,33334,0
2100,33327,0
2084,33325,0
2066,33328,0
2066,33342,0
2057,33326,0
2040,33323,0
2028,33320,0
2024,33315,0
2012,33338,0
2024,33343,0
2016,33323,0
2010,33316,0
2024,33310,0
2021,33309,0
2042,33339,0
2040,33322,0
2056,33316,0
2064,33305,0
1952,33297,0
2080,33310,0
2036,33308,0
2038,33292,0
2048,33282,0
2056,33287,0
2058,33279,0
2056,33303,0
2112,33300,0
2120,33297,0
2104,33298,0
2100,33294,0
2092,33307,0
2084,33293,0
2076,33334,0
2064,33307,0
2056,33326,0
2064,33313,0
2044,33345,0
2041,33342,0
2042,33324,0
2040,33329,0
2032,33326,0
2040,33337,0
2028,33349,0
2040,33359,0
2032,33343,0
2056,33349,0
2046,33339,0
2047,33359,0
2044,33369,0
2056,33371,0
2052,33368,0
2060,33370,0
2004,33365,0
2024,33377,0
2032,33395,0
2034,33405,0
2064,33381,0
2080,33386,0
2124,33376,0
2138,33417,0
2130,33419,0
2132,33404,0
2122,33418,0
2120,33426,0
2116,33420,0
2102,33410,0
2096,33433,0
2084,33419,0
2072,33433,0
2064,33412,0
2060,33452,0
2058,33468,0
2046,33440,0
2052,33446,0
2052,33458,0
2049,33445,0
2052,33475,0
2047,33489,0
2064,33477,0
2064,33471,0
2066,33478,0
2076,33469,0
2082,33500,0
2080,33515,0
2044,33503,0
2048,33504,0
2060,33513,0
2056,33497,0
2084,33528,0
2074,33544,0
2136,33520,0
2136,33525,0
2134,33532,0
2130,33538,0
2128,33543,0
2120,33551,0
2120,33548,0
2108,33554,0
2100,33569,0
2090,33567,0
2076,33543,0
2076,33556,0
2066,33537,0
2056,33552,0
2064,33571,0
2064,33563,0
2068,33539,0
2060,33544,0
2068,33529,0
2072,33542,0
2076,33556,0
2082,33534,0
2090,33528,0
2096,33531,0
2100,33507,0
2104,33545,0
2056,33543,0
2058,33519,0
2070,33509,0
2080,33512,0
2074,33482,0
2076,33521,0
2128,33527,0
2132,33493,0
2120,33495,0
2109,33484,0
2100,33510,0
2096,33488,0
2086,33466,0
2080,33478,0
2076,33495,0
2074,33499,0
2076,33473,0
2084,33462,0
2088,33470,0
2096,33456,0
2100,33483,0
2090,33488,0
2104,33470,0
2112,33462,0
2112,33462,0
2112,33453,0
2112,33474,0
2116,33485,0
2112,33472,0
2112,33459,0
2106,33465,0
2100,33442,0
2052,33474,0
2048,33488,0
2056,33458,0
2060,33453,0
2072,33458,0
2076,33427,0
2136,33473,0
2148,33477,0
2146,33463,0
2144,33508,0
2136,33458,0
2128,33451,0
2114,33459,0
2104,33479,0
2096,33463,0
2080,33465,0
2064,33474,0
2064,33455,0
2068,33480,0
2064,33495,0
2074,33473,0
2082,33469,0
2092,33476,0
2088,33463,0
2096,33506,0
2104,33507,0
2106,33482,0
2112,33480,0
2116,33481,0
2116,33483,0
2076,33514,0
2080,33500,0
2092,33497,0
2100,33501,0
2114,33488,0
2114,33503,0
2128,33526,0
2180,33492,0
2182,33507,0
2184,33506,0
2177,33474,0
2172,33508,0
2152,33505,0
2290,33492,0
2128,33506,0
2120,33508,0
2108,33506,0
2097,33481,0
2100,33514,0
2088,33517,0
2092,33488,0
2090,33495,0
2096,33487,0
2096,33469,0
2092,33500,0
2096,33505,0
2100,33467,0
2100,33460,0
2104,33465,0
2096,33432,0
2100,33471,0
2104,33472,0
2100,33439,0
2052,33440,0
2074,33423,0
2070,33426,0
2080,33442,0
2088,33427,0
2104,33399,0
2172,33412,0
2185,33395,0
2178,33410,0
2182,33418,0
2176,33386,0
2170,33407,0
2160,33404,0
2150,33365,0
2128,33388,0
2120,33354,0
2114,33387,0
2108,33395,0
2100,33358,0
2096,33360,0
2088,33363,0
2080,33336,0
2084,33368,0
2080,33377,0
2080,33351,0
2088,33353,0
2084,33358,0
2088,33329,0
2082,33371,0
2092,33384,0
2088,33354,0
2088,33366,0
2028,33358,0
2036,33357,0
2036,33371,0
2038,33384,0
2048,33356,0
2064,33361,0
2128,33365,0
2132,33362,0
2136,33383,0
2130,33390,0
2124,33393,0
2116,33377,0
2106,33361,0
2098,33366,0
2088,33384,0
2084,33385,0
2080,33371,0
2072,33401,0
2072,33411,0
2074,33394,0
2082,33396,0
2084,33393,0
2080,33384,0
2088,33422,0
2101,33433,0
2108,33405,0
2113,33416,0
2129,33420,0
2138,33400,0
2136,33446,0
2152,33432,0
2144,33418,0
2104,33417,0
2108,33408,0
2112,33443,0
2116,33451,0
2120,33435,0
2124,33428,0
2180,33434,0
2182,33417,0
2188,33461,0
2186,33465,0
2172,33458,0
2176,33441,0
2176,33455,0
2168,33446,0
2164,33468,0
2148,33455,0
2148,33445,0
2138,33470,0
2136,33489,0
2132,33460,0
2129,33465,0
2136,33475,0
2136,33456,0
2162,33496,0
2138,33504,0
2144,33486,0
2140,33486,0
2136,33494,0
2136,33476,0
2152,33520,0
2136,33535,0
2132,33508,0
2084,33507,0
2090,33517,0
2090,33507,0
2096,33543,0
2108,33562,0
2124,33531,0
2176,33540,0
2180,33547,0
2176,33535,0
2174,33584,0
2176,33567,0
2168,33577,0
2160,33561,0
2148,33576,0
2136,33556,0
2132,33579,0
2128,33592,0
2122,33578,0
2120,33575,0
2124,33614,0
2122,33621,0
2124,33591,0
2120,33596,0
2124,33596,0
2124,33591,0
2122,33628,0
2130,33628,0
2128,33604,0
2128,33607,0
2132,33607,0
2136,33597,0
2128,33635,0
2080,33645,0
2080,33623,0
2080,33622,0
2082,33613,0
2100,33638,0
2104,33640,0
2156,33630,0
2156,33625,0
2154,33628,0
2152,33599,0
2144,33640,0
2148,33642,0
2136,33650,0
2140,33621,0
2132,33635,0
2122,33632,0
2122,33631,0
2124,33633,0
2124,33652,0
2124,33656,0
2120,33651,0
2124,33640,0
2124,33641,0
2128,33635,0
2120,33671,0
2112,33683,0
2224,33651,0
2112,33669,0
2112,33669,0
2112,33658,0
2116,33702,0
2116,33711,0
2064,33683,0
2076,33683,0
2080,33682,0
2088,33680,0
2100,33718,0
2112,33724,0
2172,33691,0
2185,33703,0
2176,33697,0
2172,33705,0
2164,33711,0
2152,33725,0
2144,33722,0
2136,33742,0
2120,33741,0
2116,33739,0
2106,33732,0
2100,33731,0
2096,33743,0
2088,33715,0
2088,33766,0
2088,33775,0
2088,33748,0
2082,33754,0
2080,33758,0
2076,33739,0
2068,33776,0
2064,33790,0
2052,33758,0
2044,33769,0
2044,33770,0
2036,33769,0
1972,33805,0
1980,33798,0
1966,33790,0
1968,33784,0
1972,33787,0
1976,33802,0
2032,33829,0
2048,33820,0
2064,33813,0
2074,33812,0
2096,33792,0
2112,33835,0
2132,33813,0
2162,33825,0
2192,33847,0
2234,33845,0
2300,33830,0
2369,33826,0
2448,33841,0
2544,33824,0
2644,33861,0
2744,33857,0
2852,33835,0
2960,33835,0
3064,33842,0
3172,33834,0
3276,33868,0
3386,33876,0
3496,33856,0
3608,33851,0
3704,33857,0
3748,33842,0
3780,33875,0
3800,33878,0
3796,33859,0
3808,33864,0
3800,33856,0
3792,33863,0
3752,33874,0
3748,33894,0
3710,33853,0
3604,33905,0
3520,33871,0
3424,33870,0
3320,33871,0
3208,33868,0
3100,33883,0
3004,33887,0
2906,33863,0
2824,33866,0
2760,33859,0
2704,33848,0
2680,33885,0
2624,33885,0
2596,33861,0
2568,33869,0
2544,33868,0
2524,33847,0
2488,33897,0
2464,33893,0
2436,33873,0
2416,33871,0
2340,33876,0
2312,33857,0
2290,33895,0
2264,33903,0
2244,33869,0
2233,33884,0
2212,33880,0
2248,33884,0
2238,33896,0
2208,33882,0
2181,33878,0
2160,33905,0
2136,33889,0
2108,33873,0
2072,33895,0
2050,33873,0
2018,33885,0
1996,33868,0
1986,33902,0
1964,33904,0
1946,33886,0
1944,33881,0
1928,33868,0
1932,33860,0
1926,33894,0
1920,33899,0
1918,33876,0
1922,33879,0
1924,33884,0
1924,33882,0
1930,33909,0
1924,33901,0
1924,33893,0
1872,33893,0
1873,33900,0
1872,33898,0
1888,33929,0
1881,33931,0
1877,33918,0
1938,33914,0
1940,33930,0
1929,33920,0
1924,33962,0
1912,33935,0
1896,33940,0
1872,33955,0
1860,33963,0
1840,33965,0
1826,33967,0
1816,33974,0
1812,33979,0
1800,33968,0
1800,34006,0
1812,34016,0
1816,33990,0
1808,33998,0
1812,34012,0
1812,34003,0
1816,34027,0
1824,34044,0
1816,34022,0
1818,34018,0
1820,34031,0
1824,34029,0
1824,34057,0
1762,34067,0
1768,34051,0
1768,34053,0
1776,34058,0
1782,34049,0
1788,34073,0
1858,34100,0
1862,34074,0
1852,34090,0
1852,34093,0
1840,34086,0
1832,34114,0
1816,34110,0
1805,34121,0
1792,34142,0
1788,34128,0
1776,34146,0
1776,34120,0
1768,34119,0
1770,34126,0
1778,34140,0
1768,34151,0
1768,34168,0
1768,34141,0
1778,34135,0
1780,34147,0
1788,34145,0
1784,34187,0
1784,34175,0
1784,34163,0
1794,34169,0
1790,34170,0
1736,34172,0
1744,34196,0
1746,34204,0
1749,34176,0
1760,34187,0
1776,34176,0
1846,34204,0
1849,34217,0
1844,34220,0
1844,34214,0
1842,34220,0
1822,34222,0
1828,34236,0
1824,34217,0
1818,34224,0
1816,34245,0
1816,34250,0
1813,34233,0
1818,34234,0
1812,34226,0
1812,34237,0
1816,34261,0
1832,34267,0
1824,34235,0
1824,34253,0
1836,34246,0
1836,34243,0
1842,34271,0
1821,34265,0
1850,34250,0
1856,34249,0
1852,34246,0
1796,34262,0
1808,34284,0
1816,34268,0
1824,34276,0
1832,34268,0
1834,34254,0
1896,34277,0
1894,34291,0
1890,34277,0
1877,34286,0
1876,34277,0
1860,34284,0
1848,34307,0
1834,34275,0
1832,34319,0
1824,34315,0
1822,34289,0
1820,34293,0
1820,34296,0
1824,34309,0
1842,34329,0
1844,34317,0
1852,34306,0
1849,34311,0
1856,34293,0
1864,34334,0
1862,34343,0
1864,34331,0
1864,34320,0
1864,34326,0
1872,34318,0
1873,34337,0
1828,34357,0
1842,34349,0
1856,34339,0
1862,34346,0
1824,34357,0
1888,34342,0
1956,34370,0
1960,34369,0
1954,34345,0
1956,34352,0
1948,34351,0
1944,34329,0
1928,34354,0
1932,34367,0
1920,34395,0
1904,34365,0
1898,34373,0
1894,34376,0
1884,34367,0
1880,34403,0
1888,34411,0
1888,34383,0
1884,34391,0
1890,34399,0
1888,34380,0
1892,34411,0
1892,34415,0
1904,34396,0
1914,34390,0
1920,34397,0
1920,34370,0
1924,34408,0
1876,34425,0
1882,34398,0
1894,34397,0
1900,34399,0
1906,34373,0
1916,34400,0
1980,34415,0
1982,34387,0
1980,34395,0
1974,34388,0
1972,34390,0
1964,34395,0
1952,34385,0
1952,34389,0
1940,34405,0
1930,34387,0
1928,34382,0
1924,34377,0
1920,34393,0
1940,34408,0
1914,34382,0
1924,34377,0
1921,34379,0
1932,34353,0
1944,34385,0
1946,34390,0
1954,34367,0
1960,34360,0
1970,34357,0
1972,34332,0
1976,34373,0
1976,34375,0
1928,34342,0
1928,34335,0
1933,34339,0
1942,34323,0
1942,34359,0
1952,34366,0
2012,34331,0
2013,34329,0
2012,34331,0
1990,34202,0
1990,34321,0
1978,34312,0
1972,34330,0
1968,34312,0
1956,34307,0
1952,34307,0
1952,34292,0
1952,34282,0
1952,34318,0
1952,34313,0
1952,34281,0
1840,34285,0
1944,34266,0
1958,34281,0
1956,34289,0
1952,34267,0
1940,34250,0
1956,34252,0
1948,34242,0
1944,34250,0
1890,34265,0
1896,34221,0
1896,34225,0
1909,34227,0
1913,34212,0
1932,34231,0
1944,34241,0
2012,34220,0
2022,34197,0
2025,34203,0
2026,34180,0
2028,34129,0
2018,34188,0
2024,34202,0
2004,34176,0
2000,34186,0
1992,34186,0
1984,34153,0
1976,34155,0
1976,34156,0
1972,34138,0
1972,34162,0
1972,34147,0
1968,34130,0
1964,34136,0
1960,34139,0
1962,34110,0
1960,34138,0
1968,34143,0
1980,34113,0
1972,34108,0
1972,34114,0
1984,34094,0
1944,34118,0
1945,34119,0
1954,34113,0
1964,34119,0
1980,34112,0
1992,34081,0
2052,34121,0
2062,34135,0
2060,34114,0
2057,34109,0
2060,34129,0
2044,34124,0
2028,34136,0
2032,34143,0
2012,34139,0
2012,34134,0
2004,34130,0
2008,34155,0
2004,34167,0
2000,34146,0
2000,34155,0
2008,34159,0
2008,34141,0
2004,34182,0
2008,34195,0
2000,34180,0
2008,34181,0
2004,34190,0
2008,34171,0
2008,34216,0
2004,34227,0
2012,34216,0
1960,34217,0
1960,34225,0
1976,34210,0
1984,34243,0
1992,34250,0
2008,34232,0
2072,34242,0
2081,34250,0
2080,34225,0
2078,34268,0
2072,34242,0
2068,34262,0
2056,34240,0
2046,34250,0
2044,34235,0
2026,34252,0
2024,34240,0
2024,34257,0
2012,34235,0
2002,34255,0
1996,34276,0
2004,34248,0
2012,34237,0
2018,34240,0
2018,34220,0
2024,34249,0
2036,34242,0
2028,34226,0
2032,34212,0
2032,34218,0
2032,34203,0
2044,34224,0
1992,34227,0
2000,34209,0
2009,34190,0
2002,34180,0
2016,34159,0
2018,34189,0
2074,34196,0
2080,34164,0
2066,34154,0
2068,34149,0
2060,34152,0
2052,34167,0
2041,34123,0
2036,34110,0
2028,34108,0
2022,34101,0
2028,34090,0
2022,34085,0
2018,34055,0
2024,34093,0
2016,34082,0
2018,34035,0
2022,34033,0
2024,34023,0
2024,33995,0
2024,34014,0
2032,34014,0
2025,33986,0
2032,33977,0
2032,33960,0
2040,33938,0
2044,33952,0
2002,33953,0
1996,33928,0
2002,33906,0
2016,33901,0
2024,33887,0
2028,33884,0
2090,33892,0
2098,33874,0
2090,33859,0
2080,33848,0
2064,33856,0
2064,33840,0
2052,33844,0
2044,33820,0
2036,34108,0
2028,33817,0
2024,33826,0
2020,33822,0
2024,33808,0
2024,33804,0
2028,33802,0
2032,33773,0
2032,33807,0
2037,33817,0
2044,33794,0
2046,33789,0
2047,33792,0
2060,33778,0
2060,33803,0
2060,33816,0
2064,33792,0
2064,33793,0
2008,33800,0
2012,33780,0
2012,33828,0
2016,33836,0
2025,33810,0
2032,33814,0
2096,33818,0
2101,33814,0
2102,33857,0
2100,33856,0
2092,33869,0
2081,33865,0
2080,33873,0
2068,33877,0
2064,33915,0
2060,33893,0
2046,33901,0
2047,33903,0
2047,33908,0
2064,33937,0
2040,33949,0
2038,33932,0
2040,33935,0
2052,33951,0
2046,33937,0
2064,33969,0
2068,33991,0
2072,33975,0
2074,33976,0
2080,33967,0
2080,33964,0
2084,33996,0
2032,34005,0
2033,33995,0
2030,33986,0
2024,33992,0
2040,33974,0
2048,34010,0
2098,34004,0
2106,33982,0
2096,33984,0
2092,33991,0
2088,34004,0
2080,33984,0
2068,33979,0
2056,33973,0
2046,33965,0
2034,33943,0
2024,33973,0
2024,33965,0
2020,33949,0
2024,33940,0
2020,33944,0
2024,33913,0
2024,33931,0
2029,33937,0
2028,33918,0
2034,33904,0
2044,33909,0
2044,33896,0
2052,33901,0
2056,33913,0
2064,33900,0
2064,33884,0
2020,33876,0
2018,33872,0
2024,33884,0
2036,33891,0
2041,33879,0
2050,33863,0
2112,33860,0
2122,33848,0
2114,33851,0
2120,33877,0
2120,33856,0
2128,33864,0
2112,33873,0
2112,33851,0
2106,33865,0
2100,33850,0
2096,33847,0
2086,33852,0
2080,33833,0
2080,33863,0
2084,33872,0
2088,33855,0
2100,33847,0
2098,33846,0
2100,33842,0
2116,33842,0
2120,33858,0
2000,33862,0
2120,33845,0
2124,33845,0
2120,33844,0
2120,33841,0
2072,33870,0
2070,33873,0
2076,33847,0
2082,33856,0
2081,33863,0
2100,33838,0
2148,33881,0
2148,33884,0
2148,33863,0
2140,33984,0
2130,33866,0
2128,33872,0
2112,33883,0
2108,33875,0
2096,33889,0
2088,33890,0
2080,33871,0
2080,33876,0
2072,33873,0
2076,33883,0
2068,33915,0
2074,33906,0
2076,33883,0
2082,33888,0
2080,33899,0
2084,33892,0
2080,33924,0
2090,33936,0
2092,33914,0
2108,33917,0
2052,33926,0
2068,33911,0
2068,33952,0
2074,33956,0
2092,33929,0
2104,33940,0
2105,33940,0
2164,33935,0
2165,33965,0
2160,33982,0
2154,33970,0
2148,33984,0
2136,34008,0
2128,33966,0
2116,33975,0
2106,33975,0
2100,33979,0
2096,33961,0
2096,33999,0
2092,33998,0
2096,33989,0
2096,33991,0
2096,33997,0
2092,33982,0
2112,34007,0
2101,34021,0
2104,34024,0
2112,34005,0
2104,34009,0
2096,34021,0
2104,33999,0
2100,34043,0
2088,34048,0
2038,34031,0
2042,34038,0
2041,34027,0
2050,34014,0
2066,34058,0
2064,34070,0
2124,34045,0
2128,34045,0
2124,34057,0
2128,34045,0
2128,34058,0
2124,34065,0
2120,34073,0
2112,34092,0
2101,34094,0
2096,34075,0
2085,34085,0
2080,34087,0
1936,34088,0
2068,34113,0
2072,34125,0
2064,34127,0
2064,34105,0
2072,34119,0
2076,34127,0
2082,34111,0
2100,34150,0
2096,34160,0
2104,34132,0
2108,34140,0
2108,34145,0
2112,34140,0
2064,34176,0
2066,34186,0
2086,34168,0
2082,34175,0
2088,34192,0
2088,34176,0
2138,34203,0
2130,34223,0
2116,34218,0
2108,34216,0
2080,34210,0
2060,34233,0
2056,34235,0
2028,34228,0
2008,34224,0
1986,34259,0
1980,34276,0
1976,34254,0
1962,34266,0
1960,34280,0
1968,34252,0
1964,34304,0
1972,34303,0
1972,34295,0
1988,34297,0
2004,34299,0
2026,34293,0
2052,34303,0
2076,34325,0
2108,34324,0
2144,34311,0
2192,34327,0
2208,34321,0
2272,34299,0
2354,34335,0
2448,34358,0
2552,34328,0
2661,34322,0
2800,34322,0
2904,34310,0
3006,34333,0
3112,34347,0
3208,34354,0
3308,34329,0
3384,34339,0
3472,34333,0
3552,34329,0
3624,34318,0
3696,34328,0
3720,34307,0
3732,34339,0
3728,34345,0
3720,34330,0
3680,34317,0
3624,34316,0
3556,34302,0
3490,34306,0
3408,34328,0
3326,34323,0
3252,34300,0
3180,34292,0
3104,34292,0
3020,34279,0
2952,34295,0
2864,34303,0
2800,34278,0
2748,34271,0
2700,34275,0
2668,34258,0
2650,34247,0
2648,34276,0
2636,34266,0
2600,34246,0
2576,34249,0
2544,34250,0
2504,34225,0
2468,34218,0
2428,34231,0
2392,34246,0
2356,34249,0
2328,34246,0
2293,34231,0
2268,34228,0
2280,34220,0
2212,34211,0
2188,34213,0
2168,34234,0
2144,34230,0
2128,34210,0
2104,34215,0
2084,34205,0
2076,34201,0
2056,34227,0
2040,34232,0
2026,34196,0
2016,34203,0
1956,34198,0
1952,34198,0
1946,34222,0
1952,34217,0
1948,34194,0
1952,34196,0
2004,34187,0
2000,34179,0
1994,34212,0
1978,34221,0
1960,34185,0
1946,34190,0
1928,34210,0
1904,34190,0
1880,34212,0
1872,34205,0
1848,34182,0
1836,34220,0
1824,34231,0
1820,34219,0
1808,34214,0
1812,34211,0
1816,34222,0
1820,34197,0
1824,34239,0
1828,34242,0
1840,34218,0
1840,34222,0
1852,34228,0
1840,34211,0
1836,34249,0
1842,34254,0
1786,34243,0
1781,34233,0
1792,34240,0
1788,34236,0
1798,34234,0
1806,34260,0
1872,34259,0
1861,34235,0
1864,34234,0
1865,34241,0
1845,34242,0
1840,34258,0
1824,34226,0
1817,34263,0
1816,34252,0
1802,34228,0
1796,34222,0
1796,34221,0
1796,34207,0
1800,34229,0
1804,34232,0
1800,34220,0
1808,34213,0
1808,34212,0
1806,34190,0
1808,34217,0
1808,34233,0
1824,34209,0
1816,34206,0
1824,34196,0
1816,34197,0
1820,34222,0
1768,34222,0
1776,34203,0
1782,34197,0
1788,34200,0
1800,34181,0
1812,34209,0
1868,34210,0
1864,34187,0
1859,34190,0
1853,34187,0
1844,34205,0
1824,34186,0
1824,34157,0
1818,34178,0
1808,34198,0
1818,34199,0
1809,34179,0
1804,34174,0
1808,34183,0
1808,34171,0
1816,34174,0
1812,34187,0
1820,34215,0
1824,34179,0
1824,34179,0
1832,34177,0
1832,34156,0
1822,34212,0
1840,34201,0
1820,34186,0
1828,34192,0
1832,34182,0
1772,34173,0
1777,34203,0
1792,34210,0
1802,34194,0
1812,34183,0
1820,34199,0
1890,34191,0
1894,34195,0
1896,34212,0
1888,34287,0
1882,34199,0
1874,34188,0
1860,34219,0
1850,34196,0
1844,34230,0
1840,34235,0
1832,34217,0
1828,34214,0
1836,34228,0
1808,34199,0
1832,34248,0
1840,34262,0
1848,34234,0
1852,34230,0
1856,34254,0
1872,34228,0
1864,34256,0
1872,34276,0
1876,34256,0
1876,34253,0
1816,34260,0
1816,34254,0
1825,34280,0
1828,34291,0
1848,34284,0
1850,34265,0
1858,34277,0
1928,34262,0
1937,34280,0
1936,34301,0
1932,34293,0
1932,34287,0
1930,34286,0
1928,34287,0
1912,34285,0
1908,34278,0
1900,34280,0
1896,34266,0
1884,34292,0
1892,34308,0
1880,34286,0
1880,34286,0
1880,34280,0
1880,34258,0
1888,34299,0
1886,34288,0
1888,34269,0
1896,34276,0
1904,34273,0
1912,34252,0
1901,34287,0
1920,34295,0
1922,34258,0
1874,34258,0
1882,34261,0
1888,34245,0
1896,34278,0
1912,34284,0
1921,34256,0
1984,34255,0
1990,34259,0
1988,34235,0
1986,34279,0
1972,34232,0
1964,34262,0
1952,34241,0
1938,34253,0
1932,34253,0
1918,34262,0
1912,34232,0
1900,34277,0
1896,34289,0
1900,34252,0
1904,34266,0
1904,34256,0
1912,34242,0
1924,34284,0
1922,34281,0
1928,34262,0
1936,34264,0
1944,34260,0
1944,34239,0
1940,34284,0
1940,34281,0
1932,34257,0
1876,34257,0
1880,34261,0
1878,34247,0
1882,34287,0
1884,34292,0
1892,34277,0
1954,34262,0
1960,34269,0
1952,34247,0
1956,34277,0
1944,34263,0
1948,34248,0
1938,34269,0
1921,34279,0
1908,34247,0
1900,34255,0
1892,34258,0
1880,34261,0
1880,34249,0
1876,34266,0
1876,34266,0
1884,34244,0
1872,34242,0
1888,34230,0
1892,34229,0
1892,34252,0
1896,34245,0
1900,34224,0
1904,34228,0
1908,34213,0
1912,34218,0
1920,34224,0
1864,34223,0
1865,34180,0
1872,34193,0
1874,34174,0
1880,34163,0
1888,34187,0
1937,34178,0
1934,34129,0
1926,34127,0
1916,34110,0
1904,34098,0
1896,34110,0
1892,34081,0
1880,34075,0
1756,34062,0
1876,34071,0
1876,34069,0
1878,34028,0
1885,34013,0
1888,34007,0
1898,33973,0
1900,34006,0
1900,34002,0
1904,33967,0
1901,33962,0
1908,33946,0
1906,33932,0
1904,33958,0
1912,33959,0
1908,33926,0
1908,33917,0
1904,33915,0
1848,33886,0
1852,33904,0
1840,33913,0
1858,33911,0
1864,33886,0
1862,33882,0
1932,33881,0
1942,33868,0
1924,33893,0
1918,33886,0
1908,33873,0
1906,33879,0
1901,33874,0
1892,33879,0
1888,33887,0
1880,33867,0
1876,33860,0
1872,33887,0
1872,33888,0
1868,33892,0
1876,33875,0
1873,33886,0
1870,33873,0
1874,33877,0
1884,33915,0
1888,33924,0
1888,33898,0
1896,33910,0
1912,33918,0
1908,33907,0
1912,33952,0
1917,33969,0
1861,33946,0
1874,33950,0
1880,33965,0
1878,33951,0
1884,34002,0
1892,34013,0
1956,33996,0
1961,34005,0
1954,34001,0
1953,34004,0
1944,34045,0
1936,34024,0
1932,34046,0
1924,34051,0
1920,34093,0
1912,34074,0
1952,34064,0
1900,34059,0
1893,34059,0
1900,34051,0
1896,34082,0
1892,34090,0
1893,34071,0
1896,34079,0
1896,34073,0
1896,34049,0
1896,34081,0
1904,34077,0
1904,34069,0
1904,34054,0
1906,34061,0
1916,34047,0
1858,34049,0
1865,34068,0
1864,34053,0
1872,34040,0
1884,34041,0
1894,34017,0
1960,34014,0
1964,34037,0
1954,34033,0
1956,34002,0
1945,33999,0
1940,34004,0
1936,33975,0
1919,33991,0
1916,33983,0
1908,33966,0
1908,33961,0
1904,33981,0
1904,33969,0
1904,33945,0
1908,33938,0
1908,33929,0
1912,33910,0
1912,33929,0
1920,33925,0
1916,33912,0
1914,33893,0
1914,33885,0
1924,33864,0
1918,33897,0
1924,33893,0
1924,33851,0
1868,33850,0
1869,33848,0
1880,33830,0
1881,33861,0
1888,33845,0
1896,33835,0
1956,33811,0
1964,33820,0
1968,33809,0
1968,33805,0
1960,33816,0
1964,33796,0
1952,33795,0
1944,33800,0
1936,33814,0
1924,33802,0
1914,33769,0
1912,33775,0
1896,33775,0
1890,33772,0
1892,33783,0
1884,33773,0
1882,33762,0
1880,33763,0
1880,33753,0
1888,33741,0
1888,33771,0
1896,33783,0
1908,33746,0
1908,33747,0
1924,33755,0
1932,33737,0
1880,33770,0
1888,33765,0
1900,33738,0
1904,33740,0
1908,33736,0
1908,33726,0
1976,33743,0
1977,33759,0
1972,33741,0
1956,33602,0
1944,33744,0
1936,33725,0
1928,33730,0
1912,33726,0
1908,33741,0
1900,33717,0
1904,33709,0
1896,33696,0
1896,33681,0
1904,33712,0
1900,33708,0
1909,33697,0
1904,33689,0
1906,33687,0
1912,33667,0
1916,33669,0
1914,33690,0
1796,33668,0
1912,33654,0
1916,33653,0
1872,33649,0
1874,33647,0
1880,33657,0
1888,33650,0
1900,33621,0
1905,33631,0
1922,33624,0
1988,33593,0
1988,33624,0
1979,33623,0
1974,33598,0
1960,33602,0
1952,33588,0
1940,33583,0
1918,33576,0
1896,33558,0
1884,33529,0
1876,33567,0
1868,33564,0
1864,33537,0
1860,33516,0
1858,33521,0
1868,33499,0
1868,33500,0
1880,33513,0
1880,33506,0
1888,33471,0
1888,33465,0
1896,33454,0
1896,33442,0
1912,33471,0
1920,33454,0
1916,33422,0
1866,33423,0
1880,33411,0
1876,33391,0
1884,33425,0
1890,33417,0
1900,33412,0
1960,33389,0
1959,33385,0
1948,33378,0
1952,33371,0
1938,33363,0
1932,33372,0
1917,33365,0
1914,33366,0
1896,33358,0
1892,33352,0
1884,33348,0
1888,33341,0
1884,33332,0
1890,33369,0
1908,33371,0
1906,33337,0
1916,33336,0
1912,33335,0
1918,33315,0
1924,33354,0
1928,33357,0
1940,33327,0
1936,33329,0
1940,33324,0
1944,33301,0
1940,33334,0
1892,33329,0
1900,33320,0
1898,33311,0
1908,33314,0
1924,33301,0
1932,33327,0
2000,33337,0
2005,33321,0
1998,33308,0
1994,33314,0
1980,33331,0
1972,33329,0
1964,33340,0
1937,33305,0
1928,33299,0
1925,33326,0
1928,33335,0
1916,33336,0
1910,33306,0
1764,33320,0
1908,33308,0
1924,33297,0
1928,33335,0
1928,33350,0
1922,33312,0
1924,33318,0
1928,33315,0
1918,33305,0
1920,33338,0
1906,33340,0
1913,33324,0
1896,33316,0
1840,33325,0
1840,33304,0
1848,33333,0
1860,33344,0
1873,33328,0
1892,33319,0
1968,33326,0
1973,33321,0
1984,33325,0
1984,33362,0
1984,33342,0
1982,33335,0
1968,33334,0
1968,33348,0
1956,33338,0
1946,33356,0
1938,33334,0
1928,33338,0
1932,33326,0
1914,33306,0
1920,33346,0
1920,33344,0
1916,33323,0
1922,33324,0
1918,33330,0
1920,33305,0
1918,33344,0
1920,33339,0
1928,33311,0
1924,33319,0
1928,33322,0
1932,33301,0
1892,33333,0
1900,33338,0
1896,33329,0
1900,33317,0
1921,33318,0
1922,33311,0
1984,33315,0
1993,33339,0
1988,33346,0
1986,33318,0
1974,33311,0
1964,33328,0
1952,33323,0
1940,33328,0
1932,33339,0
1916,33333,0
1916,33340,0
1908,33336,0
1906,33363,0
1900,33381,0
1918,33349,0
1910,33365,0
1912,33362,0
1920,33347,0
1919,33391,0
1920,33408,0
1932,33388,0
1936,33382,0
1944,33393,0
1938,33381,0
1936,33403,0
1936,33428,0
1876,33437,0
1888,33414,0
1884,33424,0
1896,33433,0
1906,33422,0
1908,33454,0
1978,33469,0
1982,33452,0
1980,33459,0
1980,33466,0
1840,33467,0
1960,33459,0
1956,33487,0
1940,33493,0
1936,33506,0
1924,33504,0
1914,33526,0
1896,33541,0
1888,33534,0
1878,33536,0
1882,33537,0
1858,33542,0
1850,33547,0
1842,33573,0
1824,33598,0
1832,33577,0
1824,33577,0
1825,33576,0
1834,33577,0
1820,33619,0
1824,33625,0
1824,33602,0
1762,33616,0
1760,33619,0
1768,33610,0
1772,33640,0
1786,33660,0
1801,33663,0
1889,33652,0
1916,33660,0
1944,33668,0
1968,33662,0
2000,33682,0
2038,33691,0
2088,33709,0
2160,33704,0
2236,33710,0
2324,33730,0
2428,33710,0
2532,33713,0
2640,33718,0
2744,33724,0
2840,33743,0
2952,33772,0
3064,33774,0
3168,33755,0
3272,33767,0
3376,33793,0
3472,33764,0
3552,33820,0
3616,33839,0
3664,33806,0
3688,33819,0
3688,33826,0
3664,33822,0
3608,33859,0
3540,33878,0
3460,33864,0
3378,33862,0
3288,33874,0
3208,33863,0
3121,33907,0
3018,33919,0
2930,33906,0
2840,33918,0
2752,33913,0
2676,33908,0
2610,33889,0
2548,33934,0
2516,33930,0
2488,33921,0
2472,33956,0
2448,33962,0
2436,33940,0
2420,33933,0
2412,33935,0
2380,33909,0
2360,33954,0
2336,33961,0
2306,33932,0
2272,33931,0
2240,33925,0
2204,33905,0
2172,33941,0
2132,33935,0
2096,33917,0
2016,33903,0
1988,33904,0
1965,33889,0
1940,33889,0
1920,33903,0
1904,33904,0
1946,33874,0
1934,33859,0
1910,33858,0
1882,33621,0
1874,33837,0
1860,33817,0
1844,33818,0
1840,33834,0
1828,33816,0
1824,33806,0
1820,33789,0
1812,33765,0
1802,33784,0
1800,33786,0
1790,33773,0
1786,33751,0
1776,33741,0
1776,33731,0
1762,33717,0
1768,33738,0
1749,33740,0
1752,33705,0
1744,33690,0
1745,33684,0
1688,33663,0
1692,33685,0
1692,33676,0
1696,33656,0
1700,33650,0
1701,33634,0
1708,33616,0
1776,33627,0
1776,33627,0
1772,33618,0
1753,33591,0
1744,33621,0
1722,33590,0
1712,33582,0
1696,33577,0
1684,33561,0
1666,33555,0
1666,33535,0
1656,33540,0
1657,33547,0
1656,33544,0
1660,33529,0
1664,33521,0
1676,33513,0
1672,33501,0
1688,33531,0
1692,33532,0
1696,33494,0
1690,33507,0
1700,33496,0
1704,33492,0
1708,33477,0
1712,33518,0
1648,33519,0
1658,33494,0
1654,33492,0
1660,33495,0
1668,33471,0
1670,33522,0
1740,33523,0
1748,33499,0
1734,33494,0
1734,33499,0
1716,33478,0
1712,33496,0
1700,33493,0
1688,33505,0
1688,33493,0
1680,33506,0
1680,33500,0
1674,33509,0
1672,33501,0
1680,33498,0
1680,33530,0
1682,33548,0
1684,33505,0
1692,33514,0
1574,33513,0
1700,33506,0
1710,33535,0
1708,33553,0
1714,33538,0
1712,33528,0
1716,33539,0
1716,33535,0
1664,33555,0
1666,33566,0
1668,33558,0
1678,33542,0
1689,33559,0
1704,33545,0
1772,33557,0
1772,33576,0
1766,33576,0
1772,33570,0
1708,33572,0
1756,33565,0
1752,33570,0
1752,33592,0
1744,33581,0
1752,33566,0
1748,33599,0
1750,33611,0
1756,33599,0
1758,33583,0
1762,33591,0
1760,33593,0
1764,33578,0
1764,33612,0
1768,33619,0
1764,33589,0
1760,33585,0
1764,33591,0
1764,33576,0
1769,33593,0
1768,33602,0
1768,33594,0
1708,33590,0
1717,33588,0
1734,33578,0
1740,33576,0
1756,33605,0
1770,33611,0
1836,33580,0
1846,33574,0
1836,33573,0
1826,33557,0
1824,33582,0
1816,33578,0
1778,33566,0
1788,33581,0
1786,33562,0
1770,33567,0
1776,33575,0
1768,33567,0
1768,33549,0
1768,33586,0
1776,33581,0
1786,33579,0
1792,33567,0
1796,33568,0
1800,33569,0
1810,33550,0
1816,33584,0
1816,33587,0
1820,33557,0
1816,33559,0
1828,33563,0
1820,33539,0
1764,33566,0
1756,33587,0
1756,33557,0
1756,33567,0
1764,33562,0
1769,33547,0
1837,33557,0
1847,33577,0
1846,33574,0
1854,33545,0
1848,33541,0
1844,33550,0
1840,33558,0
1829,33548,0
1824,33569,0
1893,33529,0
1800,33547,0
1792,33554,0
1786,33537,0
1784,33518,0
1782,33518,0
1784,33520,0
1789,33504,0
1790,33538,0
1800,33534,0
1808,33507,0
1818,33505,0
1828,33505,0
1840,33487,0
1856,33509,0
1858,33508,0
1860,33499,0
1810,33482,0
1824,33476,0
1818,33471,0
1824,33456,0
1836,33498,0
1840,33496,0
1892,33457,0
1898,33460,0
1896,33467,0
1874,33438,0
1864,33455,0
1864,33459,0
1848,33462,0
1842,33472,0
1840,33487,0
1832,33461,0
1832,33468,0
1826,33462,0
1828,33449,0
1828,33480,0
1832,33492,0
1832,33466,0
1834,33469,0
1840,33469,0
1840,33460,0
1844,33471,0
1842,33492,0
1842,33483,0
1848,33468,0
1845,33477,0
1848,33474,0
1842,33460,0
1794,33495,0
1796,33491,0
1788,33473,0
1804,33475,0
1818,33482,0
1820,33456,0
1889,33490,0
1890,33499,0
1892,33478,0
1884,33471,0
1884,33501,0
1872,33474,0
1864,33487,0
1858,33463,0
1844,33461,0
1832,33454,0
1820,33490,0
1816,33474,0
1809,33461,0
1804,33450,0
1808,33450,0
1808,33429,0
1810,33466,0
1816,33469,0
1810,33436,0
1817,33424,0
1820,33438,0
1826,33407,0
1832,33429,0
1828,33440,0
1834,33425,0
1836,33408,0
1776,33401,0
1780,33408,0
1780,33387,0
1773,33412,0
1776,33420,0
1773,33388,0
1833,33390,0
1838,33392,0
1828,33375,0
1818,33355,0
1824,33398,0
1818,33381,0
1824,33405,0
1832,33387,0
1832,33377,0
1838,33398,0
1840,33403,0
1852,33381,0
1850,33367,0
1864,33370,0
1858,33377,0
1872,33357,0
1868,33394,0
1872,33392,0
1872,33359,0
1880,33364,0
1878,33367,0
1884,33348,0
1880,33378,0
1880,33381,0
1824,33379,0
1832,33364,0
1832,33374,0
1838,33358,0
1846,33348,0
1856,33379,0
1874,33388,0
1940,33373,0
1948,33359,0
1946,33362,0
1940,33345,0
1936,33400,0
1938,33359,0
1928,33363,0
1912,33357,0
1908,33380,0
1892,33370,0
1886,33382,0
1880,33381,0
1876,33360,0
1872,33375,0
1880,33360,0
1880,33357,0
1880,33385,0
1872,33383,0
1874,33368,0
1880,33370,0
1868,33377,0
1888,33359,0
1884,33401,0
1882,33407,0
1881,33380,0
1880,33379,0
1820,33383,0
1816,33377,0
1818,33387,0
1816,33402,0
1829,33413,0
1832,33389,0
1888,33396,0
1898,33397,0
1896,33380,0
1896,33414,0
1904,33400,0
1898,33418,0
1908,33423,0
1914,33408,0
1904,33410,0
1896,33436,0
1904,33406,0
1904,33427,0
1896,33424,0
1901,33408,0
1904,33443,0
1890,33446,0
1906,33443,0
1904,33424,0
1908,33435,0
1914,33423,0
1920,33426,0
1924,33454,0
1922,33459,0
1928,33437,0
1926,33443,0
1928,33433,0
1864,33416,0
1868,33451,0
1870,33458,0
1868,33463,0
1872,33438,0
1872,33443,0
1922,33438,0
1924,33422,0
1917,33461,0
1909,33462,0
1904,33423,0
1904,33421,0
1900,33429,0
1901,33430,0
1896,33433,0
1896,33433,0
1904,33426,0
1900,33413,0
1904,33435,0
1912,33457,0
1922,33434,0
1920,33416,0
1918,33420,0
1936,33413,0
1932,33385,0
1916,33413,0
1936,33416,0
1917,33398,0
1913,33399,0
1920,33393,0
1916,33384,0
1912,33378,0
1868,33393,0
1866,33405,0
1874,33361,0
1885,33359,0
1892,33360,0
1900,33345,0
1962,33354,0
1973,33375,0
1976,33383,0
1966,33350,0
1968,33360,0
1956,33361,0
1952,33345,0
1937,33360,0
1928,33350,0
1914,33351,0
1902,33349,0
1896,33336,0
1884,33368,0
1874,33373,0
1876,33353,0
1864,33348,0
1864,33350,0
1872,33345,0
1874,33385,0
1876,33389,0
1880,33386,0
1888,33375,0
1892,33376,0
1960,33371,0
1900,33356,0
1904,33376,0
1856,33401,0
1852,33399,0
1844,33384,0
1840,33390,0
1836,33400,0
1836,33388,0
1900,33423,0
1896,33446,0
1898,33419,0
1893,33415,0
1912,33455,0
1910,33426,0
1914,33458,0
1912,33454,0
1920,33350,0
1924,33455,0
1924,33458,0
1922,33449,0
1926,33486,0
1924,33490,0
2032,33484,0
1920,33486,0
1928,33496,0
1912,33484,0
1920,33504,0
1912,33543,0
1912,33530,0
1912,33505,0
1914,33515,0
1908,33521,0
1916,33522,0
1916,33546,0
1864,33567,0
1865,33537,0
1877,33542,0
1880,33548,0
1888,33530,0
1897,33572,0
1960,33572,0
1964,33564,0
1966,33555,0
1964,33557,0
1960,33557,0
1956,33566,0
1944,33554,0
1936,33563,0
1932,33585,0
1916,33533,0
1912,33581,0
1904,33569,0
1894,33560,0
1896,33551,0
1888,33565,0
1896,33550,0
1896,33549,0
1884,33575,0
1906,33582,0
1900,33558,0
1916,33552,0
1910,33566,0
1913,33541,0
1910,33584,0
1912,33586,0
1912,33570,0
1860,33561,0
1866,33562,0
1865,33550,0
1866,33573,0
1872,33576,0
1876,33573,0
1944,33563,0
1947,33562,0
1940,33565,0
1944,33565,0
1929,33582,0
1932,33593,0
1932,33562,0
1914,33569,0
1912,33560,0
1896,33597,0
1896,33610,0
1888,33576,0
1882,33583,0
1880,33597,0
1868,33573,0
1868,33597,0
1864,33607,0
1860,33593,0
1858,33592,0
1861,33591,0
1861,33587,0
1864,33588,0
1868,33618,0
1872,33628,0
1876,33604,0
1880,33607,0
1836,33612,0
1836,33606,0
1848,33636,0
1858,33641,0
1869,33619,0
1890,33631,0
1952,33638,0
1960,33625,0
1964,33670,0
1960,33673,0
1962,33645,0
1960,33674,0
1952,33659,0
1954,33675,0
1944,33669,0
1936,33684,0
1928,33659,0
1936,33703,0
1916,33719,0
1914,33679,0
1912,33691,0
1904,33713,0
1901,33695,0
1904,33725,0
1901,33746,0
1904,33739,0
1914,33725,0
1912,33737,0
1916,33728,0
1928,33721,0
1936,33765,0
1932,33776,0
1872,33747,0
1888,33756,0
1896,33756,0
1900,33744,0
1912,33775,0
1914,33787,0
1980,33778,0
1992,33773,0
1986,33777,0
1976,33696,0
1960,33770,0
1952,33768,0
1944,33760,0
1932,33772,0
1928,33763,0
1916,33758,0
1912,33787,0
1908,33792,0
1902,33759,0
1904,33761,0
1906,33768,0
1904,33743,0
1904,33776,0
1913,33776,0
1912,33766,0
1916,33756,0
1918,33755,0
1924,33740,0
1924,33730,0
1920,33767,0
1868,33765,0
1874,33728,0
1873,33735,0
1884,33736,0
1880,33711,0
1878,33736,0
1888,33743,0
1945,33725,0
1956,33712,0
1956,33718,0
1948,33699,0
1948,33696,0
1952,33709,0
1944,33693,0
1936,33700,0
1928,33689,0
1926,33695,0
1920,33695,0
1920,33671,0
1928,33679,0
1924,33667,0
1920,33650,0
1922,33695,0
1922,33680,0
1921,33665,0
1920,33656,0
1920,33659,0
1928,33649,0
1922,33654,0
1930,33668,0
1932,33658,0
1928,33644,0
1928,33639,0
1876,33648,0
1872,33626,0
1884,33661,0
1880,33660,0
1892,33636,0
1905,33636,0
1973,33647,0
1984,33622,0
1982,33654,0
1985,33662,0
1974,33648,0
1968,33650,0
1952,33639,0
1946,33657,0
1936,33651,0
1928,33679,0
1912,33678,0
1912,33661,0
1908,33663,0
1912,33654,0
1912,33654,0
1918,33650,0
1916,33682,0
1922,33682,0
1922,33663,0
1928,33676,0
1930,33676,0
1932,33650,0
1936,33696,0
1930,33711,0
1928,33676,0
1922,33688,0
1864,33683,0
1860,33663,0
1860,33703,0
1858,33715,0
1862,33692,0
1864,33679,0
1928,33695,0
1932,33698,0
1930,33703,0
1920,33723,0
1904,33717,0
1896,33726,0
1881,33716,0
1860,33733,0
1848,33731,0
1830,33728,0
1820,33767,0
1808,33768,0
1802,33750,0
1792,33753,0
1786,33767,0
1780,33753,0
1782,33801,0
1784,33824,0
1778,33787,0
1808,33802,0
1832,33811,0
1856,33795,0
1884,33834,0
1916,33847,0
1957,33854,0
2016,33836,0
2033,33847,0
2124,33860,0
2224,33854,0
2316,33887,0
2426,33889,0
2540,33910,0
2682,33891,0
2788,33891,0
2900,33900,0
2984,33890,0
3090,33900,0
3194,33942,0
3304,33926,0
3404,33919,0
3500,33923,0
3588,33942,0
3652,33938,0
3704,33942,0
3720,33943,0
3720,33932,0
3708,33948,0
3658,33961,0
3600,33960,0
3528,33949,0
3444,33950,0
3568,33951,0
3280,33948,0
3192,33977,0
3104,33988,0
3024,33970,0
2928,33963,0
2848,33975,0
2744,33953,0
2672,33984,0
2616,33999,0
2564,33987,0
2520,33984,0
2490,33979,0
2512,33978,0
2474,33970,0
2440,34002,0
2408,34012,0
2372,33993,0
2336,33973,0
2296,33992,0
2256,33999,0
2224,34015,0
2184,33997,0
2144,33979,0
2112,34022,0
2080,34027,0
2060,34016,0
2016,34008,0
1992,34003,0
1976,34006,0
1952,33994,0
1938,34030,0
1918,34028,0
1904,34013,0
1896,34004,0
1888,34004,0
1872,33983,0
1868,34016,0
1858,34029,0
1796,34010,0
1786,33997,0
1774,34006,0
1776,33978,0
1772,33991,0
1764,34008,0
1814,34003,0
1809,33981,0
1802,33980,0
1778,33976,0
1764,33972,0
1756,33962,0
1732,33971,0
1708,33956,0
1696,33997,0
1680,33964,0
1668,33946,0
1656,33928,0
1648,33924,0
1641,33909,0
1642,33903,0
1632,33920,0
1642,33922,0
1641,33887,0
1650,33887,0
1648,33878,0
1652,33856,0
1650,33882,0
1656,33886,0
1658,33854,0
1668,33852,0
1668,33851,0
1604,33821,0
1613,33849,0
1612,33855,0
1622,33835,0
1628,33832,0
1642,33813,0
1716,33811,0
1717,33822,0
1709,33835,0
1708,33828,0
1696,33817,0
1692,33809,0
1680,33804,0
1668,33796,0
1661,33799,0
1654,33804,0
1538,33804,0
1648,33786,0
1644,33815,0
1648,33824,0
1652,33794,0
1656,33796,0
1656,33796,0
1670,33784,0
1676,33804,0
1685,33808,0
1692,33797,0
1700,33790,0
1704,33791,0
1700,33792,0
1706,33779,0
1701,33807,0
1640,33822,0
1637,33793,0
1648,33796,0
1650,33814,0
1652,33788,0
1656,33809,0
1744,33830,0
1740,33827,0
1737,33813,0
1740,33821,0
1744,33824,0
1732,33815,0
1736,33830,0
1724,33822,0
1716,33859,0
1714,33852,0
1716,33830,0
1708,33841,0
1708,33862,0
1704,33843,0
1714,33859,0
1704,33877,0
1708,33890,0
1704,33880,0
1708,33874,0
1704,33892,0
1708,33864,0
1716,33877,0
1708,33906,0
1708,33913,0
1716,33897,0
1716,33889,0
1664,33909,0
1676,33886,0
1685,33946,0
1697,33946,0
1712,33927,0
1729,33928,0
1812,33943,0
1810,33930,0
1813,33947,0
1812,34030,0
1801,33957,0
1794,33981,0
1788,33959,0
1776,33986,0
1768,33974,0
1769,33983,0
1756,33979,0
1754,33966,0
1749,33997,0
1748,34004,0
1744,33986,0
1744,33969,0
1744,33978,0
1744,33966,0
1740,33979,0
1748,33988,0
1748,33991,0
1764,33977,0
1750,33987,0
1744,33996,0
1712,33987,0
1702,34025,0
1716,34036,0
1712,34005,0
1728,34017,0
1736,34020,0
1749,34007,0
1820,34025,0
1828,34037,0
1825,34035,0
1836,34022,0
1824,34030,0
1816,34025,0
1816,34023,0
1808,34022,0
1804,34039,0
1780,34018,0
1782,34017,0
1780,34013,0
1780,34038,0
1782,34046,0
1788,34028,0
1788,34033,0
1800,34041,0
1800,34041,0
1808,34020,0
1810,34064,0
1808,34073,0
1826,34049,0
1826,34056,0
1824,34052,0
1828,34048,0
1832,34067,0
1776,34078,0
1782,34088,0
1782,34067,0
1784,34064,0
1794,34068,0
1798,34056,0
1866,34062,0
1866,34090,0
1862,34105,0
1862,34069,0
1848,34089,0
1850,34067,0
1840,34090,0
1828,34075,0
1824,34108,0
1816,34083,0
1816,34065,0
1816,34092,0
1812,34103,0
1818,34102,0
1814,34072,0
1824,34082,0
1821,34083,0
1828,34064,0
1832,34107,0
1837,34101,0
1844,34091,0
1848,34076,0
1848,34087,0
1849,34079,0
1852,34077,0
1850,34100,0
1804,34107,0
1804,34070,0
1814,34078,0
1826,34072,0
1840,34056,0
1856,34082,0
1920,34083,0
1925,34077,0
1928,34056,0
1924,34057,0
1912,34062,0
1916,34058,0
1900,34055,0
1892,34058,0
1888,34072,0
1880,34061,0
1876,34065,0
1872,34047,0
1872,34028,0
1868,34027,0
1868,34020,0
1868,34009,0
1866,34037,0
1868,34040,0
1872,33999,0
1880,34003,0
1884,34006,0
1877,33963,0
1880,34003,0
1872,34004,0
1880,33992,0
1868,33969,0
1816,33967,0
1820,33967,0
1825,33955,0
1829,33981,0
1840,33962,0
1850,33947,0
1920,33945,0
1922,33933,0
1917,33921,0
1914,33947,0
1916,33923,0
1908,33934,0
1898,33915,0
1900,33910,0
1888,33910,0
1880,33901,0
1884,33886,0
1880,33892,0
1876,33883,0
1876,33861,0
1874,33902,0
1872,33892,0
1872,33874,0
1864,33863,0
1860,33848,0
1864,33832,0
1860,33857,0
1860,33862,0
1868,33839,0
1878,33829,0
1884,33825,0
1880,33824,0
1840,33802,0
1844,33832,0
1858,33838,0
1868,33803,0
1880,33802,0
1889,33802,0
1964,33793,0
1972,33793,0
1976,33824,0
1972,33823,0
1960,33784,0
1960,33782,0
1948,33786,0
1944,33781,0
1936,33793,0
1926,33793,0
1924,33794,0
1912,33791,0
1926,33795,0
1904,33783,0
1904,33819,0
1908,33810,0
1912,33789,0
1916,33795,0
1918,33801,0
1918,33787,0
1928,33826,0
1920,33821,0
1928,33818,0
1920,33802,0
1928,33817,0
1916,33812,0
1864,33800,0
1872,33842,0
1868,33854,0
1872,33832,0
1885,33839,0
1896,33838,0
1958,33829,0
1973,33830,0
1966,33870,0
1966,33874,0
1964,33858,0
1956,33851,0
1946,33895,0
1932,33893,0
1920,33906,0
1912,33904,0
1908,33908,0
1910,33897,0
1904,33891,0
1894,33903,0
1896,33889,0
1896,33929,0
1898,33936,0
1906,33930,0
1908,33929,0
1912,33938,0
1914,33934,0
1921,33937,0
1926,33972,0
1938,33973,0
1944,33955,0
1944,33956,0
1897,33965,0
1904,33948,0
1904,33990,0
1920,33994,0
1924,33985,0
1928,33977,0
1988,33984,0
2000,33983,0
2002,33974,0
1992,34009,0
1988,33983,0
1980,33985,0
1980,33992,0
1964,34004,0
1956,34024,0
1944,34002,0
1940,34000,0
1930,34003,0
1921,34004,0
1922,33983,0
1917,34015,0
1918,34024,0
1920,33999,0
1925,33991,0
1936,33997,0
1937,33993,0
1936,33998,0
1940,34016,0
1952,34002,0
1952,33985,0
1960,33996,0
1964,33978,0
1912,33959,0
1921,34006,0
1920,34001,0
1926,33984,0
1936,33968,0
1942,33963,0
2000,33967,0
2002,33948,0
2000,33982,0
1989,33984,0
1984,33982,0
1969,33960,0
1952,33964,0
1948,33973,0
1932,33968,0
1925,33958,0
1920,33954,0
1924,33955,0
1924,33942,0
1922,33976,0
1930,33984,0
1928,33958,0
1936,33964,0
1944,33965,0
1946,33953,0
1952,33980,0
1952,33994,0
1948,33982,0
1952,33989,0
1956,33986,0
1954,33975,0
1964,33984,0
1904,34022,0
1908,34033,0
1920,34004,0
1924,34009,0
1930,34025,0
1938,34018,0
1994,34029,0
2008,34058,0
2012,34061,0
2008,34141,0
1996,34059,0
1992,34063,0
1974,34074,0
1968,34070,0
1960,34082,0
1952,34103,0
1938,34119,0
1932,34104,0
1932,34108,0
1936,34115,0
1936,34110,0
1944,34105,0
1940,34138,0
1949,34146,0
1948,34130,0
1948,34129,0
1952,34132,0
1960,34120,0
1960,34138,0
1968,34163,0
1920,34157,0
1920,34140,0
1922,34137,0
1941,34143,0
1942,34114,0
1952,34160,0
1969,34164,0
2024,34143,0
2036,34134,0
2026,34136,0
2028,34135,0
2020,34141,0
2008,34153,0
2000,34149,0
1978,34146,0
1976,34138,0
1964,34137,0
1956,34149,0
1960,34118,0
1944,34111,0
1944,34112,0
1944,34088,0
1940,34108,0
1940,34113,0
1940,34111,0
1944,34080,0
1944,34072,0
1940,34069,0
1946,34055,0
1944,34079,0
1938,34075,0
1952,34054,0
1936,34045,0
1888,34034,0
1884,34018,0
1890,34008,0
1912,34031,0
1920,34045,0
1940,34008,0
2000,33993,0
2008,33999,0
2013,33986,0
2016,33999,0
2016,33982,0
2008,33990,0
1994,33981,0
1992,33981,0
1976,33970,0
1964,33978,0
1956,33963,0
1946,33965,0
1940,33953,0
1932,33947,0
1936,33972,0
1922,33989,0
1948,33953,0
1956,33956,0
1968,33957,0
1982,33934,0
1984,33975,0
1952,33977,0
2040,33964,0
2010,33954,0
2020,33953,0
2024,33951,0
1976,33950,0
1985,33995,0
1984,33985,0
1990,33969,0
1990,33971,0
2000,33979,0
2058,33976,0
2060,33962,0
2052,34001,0
2056,34009,0
2044,34001,0
2040,33965,0
2025,33992,0
2024,33973,0
2012,33980,0
2008,33982,0
2008,34016,0
2004,34021,0
2002,34010,0
1996,34004,0
1994,34019,0
1992,34016,0
1988,33990,0
1992,34034,0
1992,34033,0
1986,34014,0
2000,34001,0
1984,34021,0
1986,34008,0
2016,33994,0
2008,34037,0
2016,34036,0
1970,34004,0
1972,34016,0
1986,34011,0
2000,33991,0
2012,34017,0
2028,34025,0
2088,34022,0
2098,34001,0
2097,33994,0
2090,33998,0
2080,34010,0
2072,34022,0
2066,33993,0
2052,33995,0
2040,34008,0
2040,33983,0
2024,34008,0
2016,34020,0
2016,33990,0
2012,33988,0
2008,33988,0
2004,33984,0
2000,33968,0
1992,34012,0
2004,34007,0
2010,33976,0
2012,33965,0
2016,33966,0
2016,33966,0
2016,33944,0
2008,33982,0
2020,33969,0
1964,33946,0
1964,33947,0
1968,33951,0
1973,33941,0
1986,33925,0
1988,33957,0
2056,33960,0
2066,33934,0
2064,33926,0
2064,33932,0
2076,33930,0
2058,33930,0
2040,33918,0
2040,33937,0
2028,33917,0
2020,33914,0
2008,33906,0
2002,33907,0
1996,33926,0
1988,33942,0
1984,33908,0
1992,33920,0
1988,33922,0
1996,33906,0
2004,33923,0
2004,33944,0
2016,33947,0
2026,33920,0
2032,33927,0
2040,33931,0
2056,33924,0
2052,33948,0
2004,33958,0
2012,33963,0
2016,33950,0
2016,33958,0
2026,33965,0
2028,33948,0
2072,33996,0
2068,34011,0
2056,33983,0
2047,33997,0
2032,34005,0
2020,33997,0
2008,34006,0
2000,34001,0
1984,34035,0
1974,34021,0
1976,34057,0
1976,34069,0
1992,34047,0
1984,34058,0
1976,34073,0
1984,34075,0
1984,34067,0
1984,34111,0
1976,34109,0
1972,34099,0
1968,34102,0
1964,34111,0
1960,34099,0
1948,34143,0
1952,34145,0
1948,34138,0
1880,34146,0
1888,34145,0
1894,34121,0
1894,34150,0
1916,34182,0
1932,34193,0
2016,34169,0
2042,34169,0
2065,34176,0
2092,34157,0
2116,34188,0
2154,34203,0
2192,34186,0
2204,34198,0
2304,34209,0
2385,34227,0
2468,34213,0
2556,34211,0
2656,34214,0
2744,34218,0
2840,34202,0
2936,34241,0
3036,34258,0
3144,34230,0
3240,34233,0
3352,34247,0
3444,34231,0
3536,34253,0
3608,34263,0
3656,34261,0
3708,34251,0
3708,34248,0
3712,34261,0
3664,34252,0
3600,34277,0
3528,34292,0
3444,34267,0
3360,34281,0
3288,34291,0
3208,34268,0
3120,34306,0
3032,34310,0
2960,34292,0
2884,34301,0
2808,34292,0
2744,34300,0
2704,34331,0
2640,34305,0
2626,34306,0
2588,34312,0
2568,34311,0
2552,34309,0
2530,34339,0
2500,34351,0
2480,34322,0
2460,34323,0
2432,34337,0
2408,34322,0
2372,34350,0
2344,34356,0
2308,34362,0
2284,34342,0
2252,34354,0
2224,34342,0
2148,34330,0
2121,34359,0
2096,34362,0
2072,34339,0
2056,34336,0
2032,34345,0
2072,34334,0
2054,34328,0
2030,34352,0
2012,34256,0
2002,34333,0
1984,34316,0
1969,34331,0
1964,34326,0
1952,34305,0
1938,34331,0
1928,34324,0
1924,34316,0
1916,34302,0
1906,34293,0
1904,34285,0
1908,34286,0
1902,34314,0
1896,34306,0
1888,34283,0
1888,34281,0
1888,34280,0
1881,34266,0
1868,34266,0
1872,34290,0
1812,34288,0
1797,34264,0
1808,34260,0
1804,34262,0
1800,34254,0
1808,34250,0
1814,34263,0
1876,34276,0
1878,34258,0
1877,34252,0
1868,34254,0
1864,34256,0
1860,34259,0
1840,34250,0
1836,34260,0
1830,34264,0
1824,34271,0
1804,34254,0
1800,34256,0
1790,34250,0
1792,34242,0
1784,34288,0
1784,34293,0
1772,34270,0
1772,34273,0
1768,34280,0
1764,34273,0
1764,34267,0
1776,34314,0
1777,34306,0
1786,34297,0
1788,34308,0
1796,34314,0
1744,34304,0
1754,34310,0
1762,34348,0
1768,34362,0
1784,34334,0
1796,34344,0
1860,34357,0
1868,34350,0
1870,34356,0
1872,34399,0
1861,34387,0
1852,34380,0
1844,34400,0
1836,34402,0
1828,34420,0
1824,34445,0
1824,34437,0
1812,34449,0
1820,34460,0
1816,34452,0
1816,34454,0
1814,34499,0
1828,34512,0
1816,34497,0
1820,34510,0
1820,34517,0
1824,34521,0
1824,34502,0
1832,34554,0
1824,34567,0
1824,34560,0
1820,34564,0
1764,34563,0
1776,34584,0
1773,34564,0
1786,34617,0
1796,34616,0
1808,34610,0
1882,34610,0
1884,34618,0
1893,34624,0
1897,34631,0
1896,34631,0
1900,34643,0
1892,34654,0
1893,34647,0
1896,34647,0
1876,34686,0
1882,34676,0
1880,34660,0
1872,34676,0
1876,34663,0
1872,34679,0
1868,34712,0
1868,34717,0
1860,34687,0
1858,34699,0
1856,34696,0
1852,34692,0
1853,34717,0
1836,34735,0
1864,34741,0
1878,34713,0
1884,34710,0
1840,34721,0
1842,34700,0
1856,34738,0
1868,34744,0
1880,34731,0
1901,34721,0
1964,34735,0
1976,34724,0
1974,34732,0
1981,34756,0
1974,34746,0
1968,34734,0
1962,34767,0
1960,34749,0
1956,34768,0
1952,34744,0
1956,34731,0
1954,34762,0
1952,34776,0
1948,34755,0
1952,34744,0
1957,34750,0
1968,34736,0
1968,34750,0
1968,34771,0
1970,34764,0
1974,34731,0
1978,34748,0
1978,34738,0
1980,34718,0
1988,34745,0
1984,34757,0
1944,34760,0
1944,34736,0
1944,34729,0
1952,34733,0
1966,34715,0
1984,34747,0
2040,34741,0
2047,34737,0
2050,34720,0
2053,34716,0
2046,34729,0
2042,34722,0
2036,34677,0
2024,34707,0
2016,34730,0
2008,34737,0
2009,34723,0
2008,34712,0
2002,34702,0
2008,34716,0
2005,34698,0
2008,34706,0
2016,34723,0
2016,34732,0
2020,34702,0
2028,34705,0
2032,34706,0
2028,34707,0
2028,34720,0
2036,34731,0
2032,34741,0
2036,34711,0
1988,34712,0
1994,34716,0
2001,34702,0
2012,34742,0
2008,34746,0
2013,34734,0
2072,34729,0
2074,34725,0
2064,34733,0
2060,34727,0
2056,34746,0
2056,34751,0
2056,34746,0
2046,34741,0
2047,34765,0
2042,34739,0
2042,34745,0
2042,34755,0
2040,34742,0
2040,34750,0
2036,34781,0
2032,34783,0
2024,34760,0
2036,34764,0
2036,34763,0
2024,34767,0
2032,34764,0
2036,34792,0
2040,34788,0
2047,34763,0
2056,34768,0
2058,34774,0
2004,34756,0
2018,34784,0
2018,34803,0
2026,34788,0
2040,34778,0
2036,34781,0
2092,34785,0
2090,34752,0
2085,34795,0
2082,34797,0
2064,34783,0
2046,34785,0
2024,34782,0
2008,34785,0
2000,34771,0
1988,34769,0
1986,34775,0
1981,34760,0
1976,34801,0
1988,34799,0
1992,34773,0
2000,34774,0
2002,34782,0
2008,34767,0
2016,34784,0
2016,34790,0
2024,34796,0
2016,34774,0
2024,34768,0
2026,34765,0
2026,34757,0
2028,34768,0
1984,34778,0
1980,34784,0
1988,34758,0
1988,34767,0
2000,34772,0
2001,34757,0
2064,34765,0
2076,34792,0
2068,34791,0
2070,34767,0
2064,34780,0
2057,34788,0
2056,34774,0
2040,34776,0
2040,34750,0
2020,34785,0
2026,34800,0
2008,34781,0
2004,34765,0
2002,34766,0
2000,34776,0
1998,34755,0
2000,34782,0
1996,34781,0
2010,34773,0
2016,34759,0
2012,34767,0
2018,34762,0
2024,34752,0
2034,34777,0
2041,34775,0
2052,34755,0
2004,34755,0
2004,34763,0
2017,34746,0
2018,34757,0
2028,34770,0
2040,34776,0
2090,34750,0
2100,34751,0
2096,34753,0
2088,34779,0
2080,34745,0
2080,34756,0
2064,34767,0
2046,34765,0
2056,34746,0
2040,34785,0
2032,34794,0
2036,34763,0
2024,34754,0
2024,34769,0
2032,34761,0
2026,34770,0
2028,34786,0
2032,34797,0
2032,34759,0
2040,34771,0
2036,34772,0
2040,34765,0
2052,34757,0
2050,34788,0
2000,34794,0
2000,34764,0
2004,34767,0
2006,34756,0
2021,34762,0
2024,34760,0
2026,34797,0
2088,34796,0
2085,34772,0
2076,34774,0
2070,34778,0
2064,34779,0
2060,34790,0
2064,34769,0
2176,34766,0
2040,34759,0
2036,34763,0
2032,34762,0
2028,34754,0
2026,34743,0
2034,34774,0
2032,34785,0
2034,34761,0
2032,34764,0
2036,34743,0
2047,34762,0
2050,34739,0
2056,34767,0
2056,34766,0
2064,34750,0
2064,34734,0
2076,34742,0
2076,34738,0
2020,34732,0
2080,34759,0
2029,34764,0
2021,34733,0
2030,34735,0
2028,34731,0
2084,34708,0
2084,34744,0
2086,34743,0
2086,34743,0
2084,34702,0
2080,34730,0
2068,34725,0
2073,34708,0
2072,34717,0
2058,34729,0
2064,34736,0
2072,34708,0
2060,34695,0
2052,34699,0
2046,34687,0
2052,34702,0
2046,34711,0
2044,34714,0
2050,34669,0
2064,34682,0
2044,34680,0
2052,34657,0
2056,34698,0
2054,34702,0
2056,34669,0
2054,34668,0
2000,34667,0
2016,34659,0
2016,34667,0
2024,34691,0
2026,34696,0
2030,34658,0
2088,34661,0
2098,34668,0
2084,34651,0
2076,34665,0
2064,34676,0
2060,34663,0
2047,34646,0
2040,34655,0
2028,34675,0
2032,34660,0
2020,34658,0
2020,34664,0
2016,34652,0
2016,34654,0
2032,34679,0
2032,34683,0
2044,34654,0
2046,34647,0
2052,34648,0
2064,34649,0
2064,34643,0
2066,34676,0
2068,34677,0
2064,34653,0
2064,34648,0
2068,34645,0
2002,34640,0
2010,34646,0
1998,34659,0
2000,34647,0
2000,34627,0
2004,34631,0
2068,34625,0
2073,34589,0
2078,34615,0
2084,34614,0
2080,34593,0
2084,34570,0
2074,34579,0
2074,34576,0
2064,34564,0
2056,34531,0
2044,34560,0
2036,34567,0
2024,34551,0
2024,34536,0
2016,34533,0
2016,34529,0
2009,34513,0
2010,34549,0
2016,34547,0
2012,34512,0
2024,34510,0
2028,34511,0
2040,34504,0
2040,34488,0
2048,34515,0
2052,34515,0
1996,34480,0
1998,34471,0
1992,34472,0
1988,34461,0
1992,34468,0
1996,34472,0
2042,34468,0
2046,34441,0
2046,34444,0
2044,34431,0
2044,34463,0
2036,34425,0
2032,34434,0
2024,34416,0
2022,34442,0
2024,34447,0
2008,34419,0
2012,34403,0
2020,34419,0
2012,34401,0
2020,34404,0
2016,34426,0
2024,34432,0
2044,34417,0
2052,34389,0
2052,34400,0
2064,34399,0
2064,34373,0
2070,34406,0
2074,34408,0
2076,34394,0
2080,34382,0
2032,34385,0
2034,34387,0
2034,34369,0
2048,34401,0
2041,34406,0
2060,34414,0
2112,34383,0
2120,34381,0
2116,34384,0
2114,34367,0
2104,34389,0
2100,34396,0
2084,34384,0
2072,34404,0
2058,34374,0
2044,34422,0
2038,34422,0
2032,34393,0
2024,34402,0
2020,34397,0
2021,34400,0
2020,34388,0
2026,34424,0
2034,34432,0
2036,34417,0
2052,34414,0
2047,34409,0
2180,34410,0
2060,34395,0
2056,34428,0
2052,34438,0
2046,34428,0
1988,34402,0
1992,34420,0
1988,34421,0
1989,34398,0
1978,34422,0
1976,34437,0
2040,34441,0
2044,34422,0
2050,34419,0
2050,34415,0
2056,34433,0
2064,34412,0
2064,34443,0
2061,34403,0
2064,34408,0
2052,34401,0
2046,34429,0
2040,34434,0
2036,34430,0
2032,34410,0
2020,34416,0
2022,34417,0
2016,34403,0
2012,34435,0
2004,34432,0
2008,34426,0
2002,34425,0
2000,34428,0
2004,34425,0
2009,34417,0
2016,34461,0
2020,34463,0
1970,34447,0
1984,34447,0
1992,34455,0
2002,34448,0
2016,34427,0
2012,34457,0
2092,34480,0
2084,34471,0
2075,34461,0
2060,34554,0
2042,34463,0
2028,34445,0
2016,34469,0
2004,34490,0
2000,34481,0
1989,34478,0
1984,34482,0
1982,34476,0
1976,34492,0
1986,34508,0
1984,34532,0
1984,34497,0
1984,34496,0
1984,34492,0
1980,34512,0
1984,34492,0
1980,34530,0
1984,34534,0
1980,34522,0
1986,34517,0
1936,34518,0
1940,34518,0
1937,34511,0
1938,34557,0
1956,34559,0
1960,34536,0
1970,34532,0
2034,34544,0
2038,34543,0
2040,34529,0
2037,34564,0
2032,34630,0
2024,34567,0
2016,34585,0
2001,34561,0
1984,34562,0
1968,34575,0
1960,34570,0
1944,34550,0
1936,34595,0
1936,34606,0
1932,34592,0
1900,34584,0
1930,34595,0
1932,34591,0
1936,34580,0
1926,34607,0
1918,34624,0
1912,34604,0
1904,34612,0
1904,34615,0
1896,34614,0
1888,34596,0
1832,34627,0
1825,34636,0
1826,34626,0
1820,34611,0
1824,34625,0
1828,34614,0
1904,34601,0
1908,34643,0
1918,34638,0
1930,34635,0
1944,34630,0
1962,34624,0
1992,34646,0
1990,34640,0
2026,34635,0
2052,34623,0
2096,34604,0
2152,34628,0
2220,34636,0
2300,34639,0
2388,34607,0
2480,34609,0
2580,34609,0
2676,34597,0
2780,34610,0
2874,34623,0
2976,34626,0
3080,34594,0
3172,34590,0
3264,34592,0
3340,34586,0
3416,34574,0
3480,34601,0
3520,34615,0
3536,34578,0
3560,34569,0
3544,34567,0
3500,34574,0
3456,34551,0
3388,34591,0
3304,34605,0
3224,34579,0
3156,34565,0
3068,34567,0
2992,34595,0
2916,34599,0
2832,34585,0
2760,34617,0
2704,34601,0
2636,34600,0
2586,34592,0
2552,34603,0
2524,34585,0
2496,34626,0
2480,34634,0
2468,34631,0
2458,34609,0
2440,34619,0
2416,34624,0
2392,34615,0
2362,34630,0
2332,34661,0
2300,34652,0
2264,34640,0
2188,34647,0
2162,34654,0
2136,34642,0
2120,34681,0
2100,34692,0
2082,34695,0
2128,34676,0
2106,34688,0
2084,34696,0
2068,34674,0
2040,34693,0
2024,34717,0
2000,34709,0
1972,34719,0
1956,34727,0
1925,34693,0
1912,34740,0
1884,34745,0
1868,34725,0
1856,34722,0
1844,34733,0
1834,34729,0
1824,34720,0
1816,34750,0
1810,34759,0
1816,34763,0
1808,34747,0
1812,34751,0
1804,34754,0
1808,34736,0
1810,34758,0
1810,34778,0
1752,34777,0
1760,34758,0
1760,34762,0
1766,34761,0
1778,34745,0
1784,34787,0
1846,34782,0
1848,34766,0
1838,34765,0
1840,34759,0
1828,34773,0
1824,34770,0
1820,34753,0
1810,34770,0
1808,34763,0
1802,34772,0
1800,34764,0
1796,34762,0
1794,34743,0
1792,34730,0
1790,34767,0
1788,34775,0
1784,34737,0
1788,34738,0
1788,34743,0
1792,34740,0
1789,34738,0
1788,34763,0
1790,34778,0
1760,34752,0
1784,34757,0
1786,34750,0
1728,34741,0
1732,34752,0
1734,34773,0
1741,34776,0
1748,34756,0
1762,34750,0
1844,34751,0
1850,34748,0
1848,34754,0
1846,34778,0
1840,34725,0
1836,34749,0
1824,34777,0
1812,34766,0
1804,34775,0
1798,34751,0
1786,34764,0
1776,34773,0
1764,34746,0
1768,34772,0
1768,34789,0
1768,34791,0
1772,34772,0
1780,34769,0
1780,34767,0
1696,34756,0
1790,34767,0
1802,34788,0
1817,34801,0
1820,34766,0
1828,34772,0
1848,34765,0
1780,34765,0
1792,34750,0
1794,34786,0
1796,34776,0
1816,34771,0
1814,34755,0
1884,34756,0
1886,34751,0
1889,34732,0
1882,34771,0
1880,34752,0
1868,34752,0
1868,34727,0
1850,34750,0
1852,34738,0
1832,34734,0
1828,34724,0
1824,34712,0
1818,34754,0
1816,34744,0
1816,34717,0
1812,34719,0
1816,34720,0
1816,34711,0
1824,34704,0
1820,34731,0
1821,34734,0
1828,34705,0
1818,34699,0
1824,34700,0
1824,34699,0
1832,34704,0
1776,34705,0
1776,34702,0
1784,34682,0
1801,34677,0
1813,34688,0
1832,34670,0
1900,34701,0
1906,34696,0
1908,34678,0
1904,34676,0
1905,34685,0
1892,34658,0
1888,34671,0
1884,34670,0
1876,34681,0
1869,34700,0
1860,34694,0
1864,34675,0
1852,34668,0
1840,34663,0
1848,34636,0
1844,34678,0
1848,34684,0
1856,34660,0
1856,34641,0
1856,34647,0
1864,34633,0
1860,34629,0
1872,34644,0
1900,34650,0
1876,34627,0
1888,34608,0
1818,34619,0
1820,34612,0
1820,34596,0
1817,34613,0
1830,34617,0
1824,34596,0
1894,34582,0
1908,34584,0
1909,34572,0
1908,34472,0
1912,34567,0
1908,34564,0
1896,34571,0
1888,34550,0
1892,34550,0
1888,34539,0
1888,34537,0
1882,34519,0
1880,34544,0
1886,34545,0
1884,34541,0
1892,34499,0
1888,34514,0
1884,34504,0
1882,34483,0
1880,34507,0
1882,34515,0
1884,34508,0
1884,34492,0
1892,34474,0
1840,34474,0
1844,34453,0
1848,34495,0
1860,34485,0
1866,34460,0
1888,34461,0
1890,34461,0
1960,34449,0
1956,34460,0
1958,34475,0
1948,34473,0
1936,34409,0
1922,34469,0
1904,34443,0
1892,34452,0
1880,34439,0
1872,34449,0
1872,34431,0
1866,34429,0
1860,34454,0
1858,34456,0
1852,34435,0
1856,34431,0
1852,34432,0
1856,34417,0
1852,34417,0
1850,34434,0
1852,34438,0
1856,34419,0
1872,34423,0
1874,34413,0
1872,34410,0
1888,34425,0
1828,34430,0
1837,34432,0
1842,34401,0
1844,34405,0
1846,34408,0
1849,34400,0
1912,34394,0
1914,34416,0
1913,34427,0
1918,34401,0
1908,34409,0
1920,34403,0
1900,34414,0
1896,34379,0
1896,34393,0
1884,34379,0
1885,34374,0
1882,34359,0
1888,34381,0
1881,34394,0
1882,34393,0
1881,34364,0
1868,34376,0
1868,34367,0
1861,34343,0
1860,34364,0
1870,34380,0
1874,34370,0
1876,34344,0
1880,34354,0
1888,34349,0
1896,34326,0
1826,34363,0
1830,34367,0
1826,34349,0
1824,34330,0
1824,34340,0
1818,34340,0
1876,34315,0
1870,34354,0
1860,34353,0
1856,34344,0
1848,34319,0
1848,34340,0
1852,34332,0
1852,34335,0
1748,34321,0
1868,34335,0
1872,34336,0
1876,34334,0
1880,34340,0
1888,34336,0
1884,34362,0
1884,34375,0
1894,34343,0
1876,34349,0
1876,34350,0
1880,34344,0
1880,34333,0
1880,34366,0
1872,34380,0
1866,34365,0
1868,34362,0
1856,34363,0
1808,34356,0
1808,34341,0
1816,34388,0
1818,34398,0
1868,34372,0
1840,34379,0
1908,34380,0
1922,34385,0
1913,34360,0
1913,34406,0
1908,34409,0
1916,34408,0
1902,34404,0
1892,34395,0
1884,34410,0
1874,34395,0
1868,34433,0
1852,34433,0
1860,34427,0
1852,34421,0
1852,34425,0
1848,34438,0
1852,34413,0
1860,34445,0
1852,34468,0
1858,34447,0
1864,34441,0
1864,34454,0
1872,34453,0
1872,34435,0
1874,34483,0
1874,34478,0
1818,34481,0
1820,34471,0
1820,34473,0
1824,34479,0
1824,34463,0
1824,34495,0
1892,34497,0
1889,34511,0
1886,34490,0
1890,34500,0
1890,34513,0
1898,34497,0
1904,34527,0
1904,34539,0
1908,34538,0
1904,34536,0
1904,34543,0
1906,34528,0
1900,34549,0
1906,34540,0
1900,34538,0
1905,34551,0
1892,34582,0
1896,34588,0
1896,34565,0
1892,34569,0
1888,34576,0
1892,34575,0
1892,34578,0
1888,34602,0
1898,34610,0
1900,34588,0
1844,34591,0
1856,34587,0
1862,34580,0
1872,34579,0
1882,34613,0
1888,34617,0
1954,34582,0
1956,34585,0
1954,34585,0
1960,34576,0
1944,34616,0
1932,34583,0
1930,34560,0
1912,34579,0
1916,34599,0
1896,34598,0
1888,34602,0
1888,34585,0
1880,34576,0
1876,34575,0
1876,34578,0
1868,34555,0
1874,34608,0
1872,34608,0
1872,34590,0
1882,34581,0
1884,34578,0
1877,34587,0
1882,34565,0
1876,34599,0
1874,34603,0
1876,34598,0
1816,34586,0
1816,34580,0
1816,34581,0
1832,34565,0
1819,34586,0
1828,34605,0
1896,34595,0
1899,34573,0
1897,34582,0
1907,34593,0
1904,34590,0
1904,34592,0
1904,34579,0
1905,34611,0
1900,34589,0
1892,34594,0
1889,34589,0
1892,34573,0
1876,34614,0
1878,34623,0
1869,34592,0
1864,34599,0
1870,34591,0
1864,34593,0
1860,34574,0
1876,34607,0
1877,34620,0
1877,34598,0
1880,34594,0
1896,34593,0
1898,34595,0
1908,34566,0
1858,34605,0
1860,34613,0
1868,34620,0
1872,34595,0
1872,34596,0
1880,34604,0
1940,34592,0
1938,34580,0
1934,34615,0
1926,34619,0
1928,34604,0
1916,34609,0
1908,34602,0
1904,34614,0
1892,34613,0
1890,34612,0
1876,34615,0
1880,34601,0
1864,34599,0
1868,34599,0
1860,34581,0
1856,34602,0
1856,34628,0
1860,34632,0
1856,34599,0
1858,34595,0
1860,34606,0
1856,34590,0
1860,34595,0
1860,34619,0
1864,34620,0
1858,34596,0
1800,34596,0
1804,34599,0
1809,34601,0
1818,34592,0
1826,34588,0
1850,34617,0
1932,34617,0
1940,34596,0
1946,34595,0
1948,34609,0
1944,34586,0
1937,34585,0
1924,34604,0
1920,34584,0
1905,34611,0
1900,34607,0
1884,34608,0
1880,34590,0
1878,34594,0
1870,34603,0
1868,34594,0
1877,34586,0
1868,34617,0
1876,34632,0
1872,34617,0
1880,34606,0
1876,34608,0
1880,34611,0
1880,34594,0
1888,34618,0
1832,34634,0
1830,34634,0
1827,34600,0
1826,34604,0
1824,34606,0
1820,34591,0
1820,34628,0
1888,34617,0
1888,34638,0
1880,34605,0
1886,34601,0
1882,34580,0
1882,34620,0
1882,34602,0
1880,34607,0
1888,34598,0
1884,34599,0
1888,34581,0
1892,34596,0
1888,34618,0
1892,34620,0
1890,34590,0
1888,34587,0
1892,34591,0
1888,34591,0
1888,34574,0
1892,34611,0
1888,34611,0
1889,34584,0
1884,34576,0
1882,34584,0
1876,34586,0
1872,34562,0
1812,34588,0
1810,34603,0
1809,34604,0
1816,34579,0
1812,34579,0
1809,34580,0
1872,34579,0
1878,34559,0
1878,34595,0
1880,34597,0
1889,34580,0
1892,34591,0
1896,34588,0
1912,34585,0
1924,34598,0
1920,34596,0
1932,34589,0
1940,34587,0
1948,34585,0
1944,34584,0
1944,34574,0
1940,34612,0
1944,34613,0
1940,34604,0
1930,34595,0
1936,34603,0
1932,34603,0
1928,34585,0
1932,34596,0
1936,34613,0
1936,34612,0
1932,34605,0
1882,34599,0
1884,34604,0
1888,34605,0
1888,34582,0
1900,34625,0
1901,34624,0
1961,34618,0
1964,34592,0
1966,34611,0
1960,34614,0
1960,34608,0
1960,34616,0
1952,34619,0
1956,34618,0
1940,34618,0
1928,34614,0
1922,34622,0
1912,34591,0
1900,34626,0
1901,34640,0
1888,34637,0
1897,34623,0
1892,34623,0
1892,34627,0
1890,34607,0
1898,34633,0
1900,34650,0
1904,34653,0
1912,34620,0
1914,34622,0
1920,34627,0
1928,34617,0
1872,34640,0
1869,34649,0
1872,34668,0
1877,34631,0
1882,34629,0
1884,34639,0
1952,34622,0
1954,34639,0
1948,34671,0
1950,34671,0
1942,34656,0
1936,34658,0
1936,34682,0
1921,34669,0
1898,34677,0
1909,34667,0
1910,34686,0
1893,34676,0
1896,34678,0
1892,34708,0
1888,34703,0
1888,34692,0
1888,34694,0
1896,34695,0
1888,34702,0
1884,34691,0
1890,34740,0
1882,34738,0
1882,34722,0
1880,34714,0
1884,34724,0
1888,34733,0
1832,34705,0
1840,34741,0
1844,34754,0
1854,34755,0
1864,34735,0
1876,34747,0
1954,34744,0
1958,34723,0
1956,34757,0
1957,34773,0
1864,34760,0
1940,34747,0
1936,34765,0
1924,34779,0
1916,34677,0
1905,34765,0
1898,34777,0
1888,34775,0
1880,34766,0
1876,34801,0
1874,34803,0
1868,34788,0
1880,34780,0
1888,34788,0
1882,34786,0
1892,34768,0
1896,34808,0
1908,34807,0
1916,34821,0
1920,34796,0
1922,34795,0
1912,34803,0
1856,34781,0
1848,34798,0
1840,34818,0
1836,34829,0
1840,34799,0
1856,34802,0
1916,34804,0
1924,34800,0
1918,34787,0
1925,34830,0
1920,34822,0
1920,34810,0
1908,34813,0
1900,34809,0
1884,34831,0
1866,34814,0
1848,34798,0
1832,34814,0
1824,34812,0
1805,34789,0
1800,34834,0
1784,34826,0
1784,34817,0
1772,34807,0
1764,34806,0
1760,34806,0
1756,34789,0
1756,34828,0
1760,34832,0
1764,34801,0
1780,34808,0
1797,34809,0
1768,34801,0
1808,34794,0
1848,34825,0
1888,34827,0
1954,34818,0
2026,34802,0
2154,34813,0
2246,34804,0
2322,34794,0
2420,34837,0
2512,34817,0
2608,34838,0
2696,34829,0
2780,34833,0
2874,34824,0
2960,34832,0
3058,34833,0
3152,34837,0
3368,34829,0
3360,34853,0
3464,34876,0
3540,34876,0
3616,34847,0
3672,34858,0
3684,34870,0
3696,34861,0
3656,34899,0
3610,34899,0
3540,34907,0
3464,34888,0
3384,34893,0
3296,34904,0
3194,34904,0
3104,34897,0
3016,34956,0
2930,34955,0
2852,34945,0
2777,34943,0
2740,34962,0
2672,34968,0
2612,34956,0
2560,34989,0
2512,34962,0
2472,34986,0
2432,35018,0
2394,35003,0
2352,34994,0
2312,35020,0
2274,35050,0
2236,35048,0
2204,35035,0
2168,35044,0
2138,35060,0
2112,35055,0
2080,35049,0
2056,35082,0
2028,35103,0
2010,35085,0
1988,35088,0
1968,35096,0
1954,35101,0
1936,35090,0
1924,35127,0
1914,35138,0
1842,35132,0
1830,35138,0
1824,35140,0
1824,35144,0
1804,35136,0
1804,35168,0
1864,35182,0
1852,35167,0
1830,35180,0
1794,35311,0
1780,35183,0
1752,35179,0
1736,35197,0
1720,35222,0
1706,35204,0
1696,35216,0
1688,35205,0
1684,35219,0
1676,35254,0
1674,35250,0
1644,35234,0
1672,35240,0
1664,35245,0
1672,35250,0
1664,35261,0
1664,35279,0
1664,35291,0
1665,35272,0
1668,35270,0
1668,35280,0
1600,35285,0
1612,35274,0
1610,35317,0
1626,35315,0
1624,35294,0
1636,35297,0
1648,35308,0
1720,35310,0
1724,35303,0
1725,35329,0
1725,35337,0
1720,35311,0
1712,35324,0
1692,35327,0
1677,35344,0
1664,35331,0
1653,35327,0
1648,35354,0
1636,35356,0
1634,35376,0
1632,35345,0
1626,35351,0
1634,35351,0
1636,35338,0
1642,35360,0
1648,35379,0
1656,35397,0
1664,35372,0
1652,35372,0
1664,35375,0
1668,35368,0
1666,35373,0
1672,35417,0
1612,35420,0
1608,35382,0
1613,35403,0
1620,35398,0
1632,35398,0
1648,35388,0
1736,35428,0
1736,35433,0
1738,35416,0
1736,35409,0
1734,35416,0
1726,35417,0
1714,35429,0
1704,35439,0
1696,35426,0
1684,35416,0
1668,35432,0
1661,35450,0
1658,35441,0
1652,35431,0
1652,35433,0
1648,35434,0
1656,35437,0
1656,35421,0
1660,35461,0
1666,35469,0
1672,35442,0
1680,35441,0
1682,35433,0
1690,35448,0
1697,35440,0
1700,35440,0
1640,35475,0
1653,35485,0
1660,35447,0
1664,35465,0
1686,35463,0
1692,35460,0
1769,35469,0
1776,35490,0
1764,35505,0
1764,35472,0
1748,35482,0
1740,35512,0
1696,35498,0
1720,35497,0
1706,35515,0
1696,35490,0
1689,35480,0
1690,35519,0
1688,35537,0
1682,35513,0
1680,35507,0
1681,35506,0
1692,35516,0
1696,35515,0
1696,35525,0
1700,35546,0
1700,35552,0
1708,35530,0
1708,35531,0
1710,35539,0
1720,35532,0
1724,35520,0
1668,35565,0
1680,35575,0
1688,35568,0
1700,35558,0
1714,35548,0
1725,35563,0
1808,35552,0
1814,35548,0
1814,35590,0
1808,35583,0
1800,35533,0
1791,35559,0
1780,35581,0
1760,35577,0
1756,35573,0
1812,35582,0
1724,35575,0
1716,35565,0
1704,35592,0
1704,35597,0
1706,35578,0
1708,35582,0
1712,35569,0
1712,35569,0
1722,35573,0
1728,35604,0
1736,35597,0
1744,35576,0
1752,35577,0
1760,35578,0
1768,35565,0
1772,35561,0
1716,35591,0
1724,35593,0
1736,35576,0
1746,35565,0
1756,35568,0
1766,35565,0
1828,35540,0
1833,35582,0
1833,35582,0
1832,35566,0
1832,35559,0
1828,35541,0
1808,35557,0
1804,35548,0
1796,35549,0
1786,35517,0
1788,35548,0
1776,35548,0
1778,35554,0
1772,35506,0
1772,35524,0
1776,35510,0
1776,35496,0
1776,35528,0
1778,35523,0
1776,35524,0
1784,35498,0
1784,35495,0
1792,35491,0
1792,35480,0
1796,35468,0
1792,35493,0
1736,35494,0
1741,35467,0
1752,35466,0
1748,35453,0
1754,35457,0
1760,35433,0
1818,35470,0
1825,35471,0
1820,35455,0
1832,35431,0
1824,35455,0
1828,35447,0
1836,35439,0
1832,35447,0
1840,35441,0
1848,35416,0
1848,35426,0
1840,35416,0
1836,35417,0
1840,35428,0
1840,35427,0
1841,35394,0
1844,35392,0
1844,35398,0
1840,35390,0
1844,35363,0
1840,35409,0
1844,35411,0
1840,35374,0
1840,35372,0
1840,35366,0
1844,35367,0
1784,35346,0
1786,35375,0
1792,35378,0
1800,35375,0
1802,35347,0
1817,35353,0
1884,35347,0
1892,35342,0
1888,35336,0
1886,35362,0
1880,35327,0
1864,35318,0
1866,35325,0
1856,35343,0
1856,35345,0
1844,35335,0
1844,35324,0
1836,35322,0
1848,35316,0
1848,35307,0
1848,35338,0
1844,35341,0
1854,35329,0
1856,35305,0
1856,35301,0
1864,35309,0
1860,35310,0
1873,35305,0
1864,35314,0
1868,35332,0
1872,35318,0
1876,35311,0
1816,35309,0
1820,35322,0
1824,35293,0
1825,35320,0
1824,35329,0
1821,35336,0
1884,35306,0
1885,35300,0
1881,35297,0
1883,35300,0
1873,35304,0
1876,35313,0
1880,35312,0
1884,35304,0
1888,35327,0
1890,35310,0
1904,35301,0
1917,35312,0
1920,35316,0
1918,35299,0
1924,35343,0
1932,35337,0
1936,35330,0
1944,35320,0
1952,35333,0
1952,35326,0
1940,35308,0
1952,35332,0
1948,35356,0
1944,35363,0
1938,35328,0
1936,35333,0
1882,35341,0
1881,35332,0
1874,35354,0
1876,35367,0
1880,35375,0
1885,35360,0
1940,35357,0
1949,35370,0
1944,35366,0
1941,35437,0
1944,35358,0
1940,35380,0
1936,35394,0
1938,35368,0
1944,35379,0
1938,35374,0
1944,35412,0
1952,35414,0
1952,35417,0
1960,35398,0
1968,35400,0
1969,35415,0
1972,35400,0
1978,35403,0
1984,35436,0
1984,35442,0
1984,35416,0
1984,35415,0
1868,35424,0
1976,35425,0
1920,35415,0
1916,35449,0
1916,35453,0
1913,35466,0
1915,35433,0
1924,35431,0
1932,35436,0
1988,35439,0
1988,35439,0
1988,35470,0
1986,35471,0
1984,35437,0
1988,35457,0
1976,35466,0
1968,35467,0
1960,35445,0
1956,35495,0
1950,35465,0
1952,35462,0
1944,35470,0
1936,35474,0
1940,35450,0
1936,35493,0
1940,35495,0
1944,35479,0
1946,35476,0
1948,35478,0
1956,35470,0
1956,35462,0
1960,35496,0
1954,35501,0
1956,35511,0
1954,35477,0
1892,35482,0
1896,35481,0
1890,35475,0
1892,35482,0
1888,35500,0
1906,35514,0
1960,35478,0
1962,35478,0
1958,35486,0
1961,35475,0
1960,35496,0
1952,35496,0
1956,35491,0
1954,35497,0
1952,35505,0
1942,35495,0
1945,35466,0
1936,35517,0
1952,35507,0
1952,35488,0
1956,35494,0
1956,35496,0
1970,35490,0
1968,35473,0
1981,35497,0
1984,35510,0
1992,35514,0
1992,35497,0
1988,35487,0
1986,35487,0
1984,35496,0
1972,35476,0
1912,35514,0
1912,35518,0
1910,35502,0
1912,35486,0
1920,35482,0
1926,35488,0
1994,35487,0
1998,35494,0
2010,35506,0
2002,35519,0
2008,35502,0
2004,35481,0
2000,35482,0
2000,35500,0
1992,35471,0
1980,35478,0
1976,35480,0
1968,35475,0
1968,35458,0
1956,35492,0
2068,35491,0
1960,35485,0
1957,35465,0
1960,35463,0
1962,35464,0
1972,35454,0
1968,35451,0
1974,35478,0
1976,35490,0
1974,35452,0
1978,35451,0
1976,35445,0
1920,35430,0
1924,35440,0
1922,35456,0
1924,35455,0
1929,35430,0
1930,35428,0
1986,35419,0
1992,35413,0
1980,35408,0
1980,35434,0
1974,35419,0
1980,35426,0
1970,35399,0
1972,35384,0
1972,35403,0
1972,35416,0
1976,35415,0
1976,35414,0
1980,35385,0
1988,35401,0
1992,35384,0
1997,35365,0
1992,35390,0
1988,35404,0
1986,35401,0
1984,35375,0
1976,35380,0
1974,35372,0
1970,35360,0
1968,35375,0
1968,35382,0
1968,35404,0
1916,35353,0
1914,35366,0
1925,35367,0
1938,35357,0
1948,35349,0
1960,35381,0
2020,35380,0
2029,35362,0
2037,35358,0
2032,35360,0
2024,35350,0
2020,35361,0
2008,35339,0
1996,35355,0
1980,35372,0
1970,35372,0
1968,35372,0
1952,35360,0
1956,35350,0
1956,35350,0
1952,35353,0
1961,35333,0
1960,35356,0
1968,35369,0
1972,35376,0
1978,35348,0
1984,35348,0
1992,35346,0
1988,35340,0
1994,35330,0
1992,35373,0
1996,35379,0
1940,35372,0
1944,35356,0
1944,35364,0
1945,35368,0
1952,35348,0
1954,35372,0
2020,35386,0
2021,35394,0
2020,35364,0
2018,35381,0
2008,35384,0
2000,35387,0
1992,35369,0
1978,35402,0
1972,35386,0
1970,35376,0
1968,35384,0
1968,35369,0
1964,35387,0
1964,35402,0
1960,35413,0
1964,35387,0
1960,35387,0
1960,35398,0
1960,35393,0
1960,35376,0
1968,35418,0
1960,35417,0
1964,35415,0
1968,35404,0
1962,35391,0
1956,35403,0
1912,35402,0
1910,35414,0
1920,35435,0
1920,35442,0
1936,35426,0
1937,35425,0
2002,35428,0
2000,35419,0
2004,35419,0
1990,35449,0
1976,35426,0
1968,35404,0
1946,35424,0
1937,35431,0
1922,35466,0
1908,35473,0
1900,35466,0
1890,35443,0
1890,35448,0
1892,35458,0
1892,35439,0
1900,35450,0
1904,35477,0
1916,35478,0
1932,35459,0
1936,35470,0
1948,35465,0
1964,35457,0
1980,35452,0
1990,35494,0
2000,35494,0
2016,35471,0
1952,35474,0
1960,35462,0
1956,35471,0
1964,35466,0
1960,35497,0
1976,35499,0
2020,35478,0
2018,35479,0
2010,35478,0
2000,35477,0
1993,35482,0
1992,35500,0
1984,35477,0
1978,35501,0
1980,35494,0
1962,35481,0
1964,35486,0
1960,35511,0
1968,35518,0
1962,35507,0
1972,35499,0
1978,35495,0
1984,35505,0
1992,35487,0
1996,35528,0
2004,35525,0
2004,35521,0
2012,35505,0
2016,35511,0
2024,35521,0
2024,35505,0
2018,35523,0
1976,35544,0
1984,35549,0
1986,35520,0
1992,35529,0
2000,35527,0
2000,35541,0
2052,35520,0
2052,35563,0
2041,35564,0
2026,35587,0
2018,35550,0
2009,35549,0
2004,35560,0
2006,35563,0
2000,35558,0
1997,35548,0
1996,35563,0
2004,35575,0
2004,35577,0
2012,35558,0
2012,35554,0
2016,35579,0
2008,35562,0
2020,35563,0
2012,35596,0
2017,35603,0
2016,35576,0
2036,35580,0
2020,35578,0
2034,35578,0
1968,35564,0
1969,35587,0
1958,35599,0
1968,35596,0
1972,35581,0
1969,35576,0
1968,35581,0
2024,35571,0
2029,35587,0
2017,35594,0
2012,35597,0
2005,35587,0
2001,35575,0
1996,35595,0
1992,35593,0
1989,35572,0
1992,35552,0
1988,35585,0
1992,35598,0
1992,35553,0
1985,35560,0
1988,35568,0
2006,35554,0
2000,35552,0
2008,35585,0
2024,35581,0
2024,35570,0
2032,35551,0
2040,35559,0
2028,35556,0
2036,35553,0
2032,35546,0
2028,35575,0
1978,35582,0
1970,35561,0
1972,35565,0
1968,35560,0
1962,35557,0
1962,35545,0
2008,35564,0
2010,35586,0
2001,35591,0
1997,35559,0
1992,35556,0
1992,35595,0
1992,35576,0
2000,35578,0
1996,35578,0
2000,35571,0
2000,35578,0
2004,35585,0
2004,35571,0
2008,35606,0
2008,35617,0
2012,35607,0
2024,35585,0
2016,35596,0
2008,35601,0
1904,35596,0
2000,35608,0
2000,35633,0
1996,35641,0
1986,35617,0
1980,35612,0
1968,35624,0
1904,35633,0
1896,35617,0
1896,35642,0
1890,35660,0
1884,35664,0
1882,35644,0
1936,35644,0
1938,35641,0
1932,35654,0
1924,35640,0
1920,35688,0
1912,35649,0
1917,35669,0
1912,35667,0
1924,35694,0
1934,35673,0
1952,35674,0
1976,35680,0
2002,35663,0
2064,35669,0
2120,35692,0
2192,35712,0
2288,35694,0
2380,35688,0
2488,35689,0
2600,35689,0
2696,35690,0
2796,35723,0
2904,35725,0
3000,35710,0
3112,35709,0
3216,35712,0
3316,35711,0
3424,35694,0
3530,35728,0
3632,35743,0
3716,35727,0
3778,35726,0
3760,35735,0
3744,35732,0
3728,35714,0
3710,35735,0
3672,35736,0
3608,35763,0
3528,35753,0
3448,35743,0
3360,35739,0
3260,35756,0
3164,35755,0
3080,35740,0
2980,35731,0
2880,35787,0
2794,35787,0
2712,35777,0
2656,35758,0
2600,35770,0
2552,35771,0
2516,35766,0
2480,35773,0
2450,35791,0
2420,35801,0
2396,35765,0
2364,35773,0
2352,35785,0
2280,35782,0
2256,35757,0
2240,35807,0
2220,35805,0
2204,35785,0
2180,35782,0
2210,35788,0
2202,35786,0
2166,35761,0
2136,35797,0
2108,35811,0
2072,35794,0
2036,35788,0
2008,35767,0
1970,35804,0
1952,35791,0
1928,35796,0
1912,35779,0
1892,35795,0
1876,35819,0
1868,35822,0
1868,35791,0
1853,35785,0
1844,35798,0
1842,35798,0
1840,35785,0
1832,35810,0
1825,35815,0
1824,35793,0
1816,35792,0
1810,35795,0
1808,35799,0
1744,35781,0
1741,35821,0
1748,35832,0
1756,35817,0
1761,35799,0
1776,35796,0
1850,35805,0
1860,35790,0
1858,35803,0
1857,35820,0
1860,35828,0
1844,35804,0
1824,35825,0
1808,35806,0
1796,35812,0
1784,35800,0
1760,35813,0
1750,35796,0
1736,35813,0
1724,35834,0
1724,35842,0
1717,35820,0
1716,35812,0
1724,35829,0
1728,35816,0
1720,35798,0
1744,35831,0
1738,35846,0
1744,35848,0
1752,35835,0
1753,35837,0
1754,35833,0
1696,35828,0
1700,35829,0
1708,35856,0
1708,35863,0
1718,35859,0
1724,35843,0
1800,35850,0
1808,35843,0
1802,35831,0
1803,35868,0
1800,35846,0
1796,35872,0
1786,35854,0
1784,35866,0
1770,35843,0
1760,35877,0
1753,35887,0
1744,35875,0
1738,35865,0
1732,35875,0
1732,35868,0
1728,35861,0
1728,35875,0
1728,35903,0
1732,35908,0
1740,35883,0
1736,35881,0
1740,35871,0
1740,35883,0
1748,35872,0
1756,35904,0
1764,35915,0
1704,35888,0
1716,35904,0
1724,35890,0
1741,35917,0
1756,35905,0
1776,35919,0
1841,35931,0
1856,35942,0
1848,35917,0
1844,35916,0
1836,35912,0
1832,35937,0
1824,35920,0
1804,35916,0
1792,35933,0
1776,35938,0
1768,35940,0
1754,35936,0
1748,35971,0
1736,35978,0
1738,35952,0
1732,35959,0
1732,35962,0
1732,35956,0
1734,35949,0
1746,35990,0
1748,35986,0
1760,35976,0
1768,35977,0
1772,35984,0
1782,35984,0
1786,35970,0
1728,36010,0
1736,36014,0
1748,36023,0
1752,36003,0
1760,36002,0
1768,36010,0
1844,36016,0
1846,35989,0
1848,36026,0
1840,36087,0
1844,36024,0
1832,36030,0
1828,36032,0
1816,36027,0
1812,36056,0
1812,36061,0
1800,36046,0
1800,36040,0
1790,36041,0
1788,36044,0
1776,36039,0
1782,36070,0
1780,36083,0
1781,36056,0
1788,36049,0
1790,36053,0
1812,36063,0
1800,36045,0
1800,36087,0
1808,36087,0
1760,36081,0
1760,36062,0
1770,36074,0
1784,36070,0
1801,36065,0
1808,36066,0
1824,36095,0
1892,36099,0
1900,36069,0
1890,36066,0
1888,36070,0
1876,36087,0
1874,36050,0
1848,36068,0
1842,36068,0
1828,36067,0
1829,36098,0
1820,36067,0
1812,36069,0
1816,36059,0
1824,36056,0
1832,36048,0
1832,36071,0
1836,36073,0
1840,36066,0
1852,36038,0
1852,36055,0
1850,36061,0
1860,36021,0
1858,36053,0
1860,36063,0
1864,36051,0
1856,36028,0
1801,36032,0
1796,36035,0
1794,36021,0
1801,36017,0
1804,36036,0
1801,36031,0
1868,36020,0
1872,36014,0
1868,36010,0
1868,36011,0
1876,35996,0
1884,35990,0
1888,36008,0
1884,35999,0
1893,35997,0
1894,35989,0
1892,35986,0
1890,35993,0
1900,35985,0
1896,35956,0
1905,35996,0
1904,36004,0
1900,35981,0
1906,35979,0
1916,35971,0
1916,35962,0
1912,35954,0
1924,35984,0
1928,35988,0
1946,35966,0
1940,35961,0
1940,35956,0
1888,35958,0
1884,35944,0
1888,35960,0
1882,35972,0
1876,35974,0
1881,35939,0
1942,35940,0
1942,35944,0
1938,35947,0
1932,35936,0
1928,35954,0
1920,35944,0
1909,35923,0
1904,35925,0
1901,35945,0
1893,35957,0
1896,35930,0
1905,35936,0
1932,35934,0
1916,35924,0
1924,35914,0
1928,35943,0
1928,35949,0
1926,35914,0
1928,35913,0
1924,35917,0
1924,35917,0
1922,35897,0
1914,35931,0
1908,35932,0
1912,35922,0
1906,35900,0
1856,35895,0
1860,35901,0
1868,35879,0
1874,35907,0
1888,35902,0
1896,35904,0
1960,35884,0
1972,35880,0
1970,35883,0
1974,35879,0
1972,35892,0
1968,35864,0
1956,35880,0
1945,35855,0
1944,35872,0
1928,35858,0
1916,35841,0
1916,35837,0
1904,35871,0
1898,35870,0
1896,35848,0
1889,35837,0
1900,35834,0
1894,35829,0
1898,35818,0
1896,35845,0
1900,35853,0
1900,35848,0
1898,35826,0
1900,35816,0
1900,35818,0
1898,35813,0
1845,35792,0
1844,35826,0
1852,35821,0
1864,35815,0
1876,35794,0
1893,35796,0
1960,35804,0
1972,35777,0
1978,35775,0
1980,35800,0
1984,35761,0
1976,35794,0
1970,35785,0
1964,35787,0
1960,35790,0
1940,35774,0
1942,35780,0
1924,35763,0
1908,35794,0
1912,35795,0
1912,35791,0
1908,35779,0
1900,35788,0
1904,35780,0
1908,35773,0
1912,35749,0
1918,35798,0
1924,35793,0
1928,35790,0
1932,35780,0
1938,35780,0
1938,35775,0
1884,35780,0
1894,35762,0
1904,35804,0
1910,35803,0
1920,35789,0
1926,35775,0
1992,35784,0
2002,35793,0
1994,35763,0
1992,35779,0
1982,35778,0
1976,35804,0
1960,35788,0
1952,35784,0
1940,35813,0
1928,35783,0
1920,35770,0
1922,35772,0
1914,35775,0
1908,35758,0
1908,35773,0
1912,35779,0
1910,35790,0
1910,35759,0
1920,35760,0
1925,35759,0
1928,35754,0
1928,35745,0
1944,35775,0
1954,35769,0
1968,35773,0
1954,35747,0
1908,35739,0
1914,35743,0
1932,35733,0
1942,35741,0
1952,35750,0
1968,35761,0
2032,35736,0
2051,35729,0
2038,35724,0
2050,35726,0
2036,35706,0
2032,35719,0
2152,35711,0
2000,35700,0
1996,35717,0
1974,35720,0
1964,35714,0
1962,35713,0
1944,35691,0
1928,35724,0
1916,35722,0
1912,35713,0
1910,35685,0
1908,35701,0
1910,35701,0
1924,35683,0
1940,35689,0
1940,35712,0
1952,35705,0
1964,35680,0
1968,35680,0
1984,35687,0
1936,35680,0
1952,35668,0
1944,35706,0
1957,35704,0
1978,35687,0
1974,35684,0
2032,35683,0
2034,35678,0
2034,35657,0
2024,35654,0
2016,35707,0
2000,35673,0
1996,35656,0
1984,35668,0
1976,35684,0
1964,35680,0
1962,35657,0
1964,35666,0
1960,35698,0
1960,35707,0
1952,35670,0
1956,35677,0
1962,35671,0
1968,35680,0
1964,35657,0
1976,35698,0
1972,35710,0
1980,35689,0
1992,35675,0
1992,35666,0
1936,35666,0
1952,35660,0
1948,35663,0
1968,35689,0
1968,35685,0
1986,35667,0
1988,35661,0
2056,35663,0
2056,35660,0
2048,35635,0
2042,35661,0
2032,35622,0
2016,35653,0
2001,35653,0
1992,35639,0
1978,35651,0
1970,35638,0
1952,35635,0
1952,35637,0
1952,35631,0
1956,35617,0
1956,35655,0
1957,35657,0
1964,35628,0
1973,35622,0
1980,35624,0
1989,35625,0
1992,35602,0
2010,35646,0
2008,35642,0
2008,35647,0
2016,35624,0
2016,35616,0
1961,35627,0
1968,35613,0
1974,35596,0
1976,35635,0
1992,35638,0
1994,35638,0
2052,35609,0
2068,35603,0
2053,35620,0
2054,35603,0
2040,35622,0
2032,35610,0
2020,35614,0
2012,35594,0
2004,35602,0
1988,35604,0
1984,35637,0
1974,35641,0
1990,35623,0
1980,35626,0
1976,35621,0
1973,35627,0
1984,35606,0
1992,35639,0
1992,35650,0
1992,35635,0
2000,35617,0
1996,35622,0
2004,35632,0
2008,35625,0
2016,35633,0
2008,35651,0
1960,35665,0
1960,35632,0
1972,35640,0
1984,35638,0
1976,35635,0
1986,35631,0
2044,35650,0
2050,35667,0
2050,35638,0
2044,35645,0
2032,35624,0
2017,35662,0
2008,35652,0
1996,35646,0
1984,35654,0
1976,35642,0
1964,35635,0
1962,35671,0
1965,35689,0
1966,35680,0
1970,35653,0
1978,35648,0
1972,35660,0
2005,35652,0
2000,35646,0
2005,35683,0
2004,35694,0
2004,35671,0
2002,35676,0
2002,35667,0
2001,35674,0
