ECG,IR,PCG
2284,36655,0
2276,36635,0
2274,36649,0
2272,36655,0
2268,36701,0
2266,36669,0
2258,36659,0
2256,36667,0
2264,36674,0
2264,36668,0
2260,36678,0
2264,36670,0
2272,36672,0
2282,36697,0
2288,36667,0
2296,36680,0
2304,36700,0
2308,36677,0
2312,36683,0
2320,36710,0
2324,36682,0
2328,36687,0
2384,36712,0
2378,36700,0
2368,36688,0
2361,36728,0
2353,36706,0
2352,36706,0
2288,36735,0
2281,36712,0
2261,36704,0
2250,36746,0
2244,36735,0
2240,36723,0
2232,36738,0
2208,36752,0
2208,36741,0
2204,36759,0
2200,36739,0
2200,36763,0
2208,36744,0
2220,36754,0
2232,36761,0
2244,36759,0
2256,36755,0
2252,36776,0
2256,36774,0
2256,36757,0
2244,36770,0
2248,36770,0
2242,36772,0
2236,36800,0
2228,36770,0
2233,36783,0
2280,36789,0
2293,36781,0
2312,36786,0
2324,36804,0
2336,36789,0
2349,36794,0
2308,36810,0
2314,36792,0
2316,36800,0
2320,36830,0
2332,36805,0
2320,36813,0
2312,36798,0
2288,36810,0
2276,36804,0
2252,36829,0
2240,36805,0
2224,36811,0
2208,36838,0
2208,36819,0
2204,36815,0
2346,36838,0
2224,36818,0
2225,36823,0
2232,36855,0
2244,36834,0
2244,36821,0
2256,36857,0
2264,36840,0
2280,36826,0
2288,36866,0
2288,36857,0
2346,36838,0
2346,36873,0
2352,36858,0
2348,36852,0
2340,36879,0
2336,36854,0
2260,36876,0
2252,36863,0
2245,36853,0
2256,36873,0
2256,36858,0
2258,36854,0
2268,36859,0
2272,36879,0
2280,36847,0
2276,36888,0
2280,36859,0
2296,36850,0
2274,36891,0
2274,36860,0
2280,36859,0
2272,36883,0
2280,36875,0
2272,36864,0
2268,36879,0
2272,36871,0
2264,36894,0
2260,36867,0
2268,36868,0
2266,36875,0
2328,36857,0
2336,36865,0
2342,36886,0
2340,36870,0
2344,36859,0
2340,36882,0
2324,36861,0
2268,36862,0
2252,36871,0
2236,36861,0
2230,36848,0
2232,36873,0
2232,36863,0
2232,36853,0
2236,36847,0
2252,36853,0
2260,36839,0
2274,36875,0
2288,36857,0
2308,36849,0
2338,36870,0
2360,36845,0
2384,36863,0
2418,36858,0
2444,36853,0
2482,36864,0
2520,36854,0
2568,36850,0
2624,36860,0
2680,36833,0
2736,36841,0
2792,36858,0
2836,36837,0
2970,36833,0
3004,36850,0
3016,36837,0
3018,36819,0
2996,36860,0
2972,36843,0
2836,36814,0
2770,36869,0
2677,36829,0
2584,36830,0
2496,36822,0
2380,36828,0
2420,36814,0
2160,36836,0
2058,36825,0
1944,36846,0
1864,36820,0
1784,36802,0
1728,36846,0
1672,36820,0
1634,36829,0
1610,36842,0
1596,36826,0
1580,36829,0
1573,36828,0
1569,36816,0
1568,36813,0
1562,36822,0
1560,36808,0
1542,36829,0
1544,36795,0
1528,36793,0
1552,36823,0
1544,36796,0
1529,36803,0
1526,36822,0
1528,36794,0
1536,36793,0
1508,36813,0
1518,36786,0
1520,36795,0
1528,36813,0
1535,36777,0
1552,36804,0
1573,36796,0
1596,36809,0
1624,36784,0
1666,36789,0
1674,36814,0
1700,36784,0
1724,36793,0
1738,36821,0
1756,36783,0
1776,36795,0
1778,36814,0
1790,36808,0
1800,36809,0
1810,36816,0
1824,36814,0
1836,36782,0
1840,36833,0
1860,36811,0
1876,36803,0
1906,36838,0
1956,36828,0
1972,36823,0
2000,36856,0
2025,36837,0
2048,36831,0
2074,36856,0
2058,36847,0
2078,36859,0
2092,36866,0
2104,36857,0
2122,36842,0
2124,36865,0
2144,36840,0
2160,36872,0
2176,36847,0
2176,36892,0
2180,36865,0
2192,36872,0
2192,36894,0
2212,36871,0
2233,36875,0
2248,36907,0
2260,36878,0
2280,36884,0
2288,36912,0
2304,36892,0
2312,36892,0
2320,36926,0
2309,36908,0
2316,36893,0
2308,36919,0
2300,36910,0
2352,36894,0
2345,36942,0
2328,36908,0
2324,36904,0
2316,36946,0
2324,36921,0
2256,36906,0
2257,36962,0
2252,36936,0
2258,36917,0
2276,36940,0
2284,36927,0
2288,36930,0
2292,36950,0
2306,36847,0
2296,36944,0
2312,36963,0
2312,36937,0
2308,36941,0
2316,36969,0
2298,36935,0
2300,36947,0
2284,36950,0
2272,36940,0
2256,36946,0
2244,36970,0
2236,36956,0
2234,36951,0
2236,36960,0
2242,36949,0
2252,36942,0
2268,36963,0
2320,36945,0
2330,36941,0
2338,36965,0
2352,36945,0
2352,36946,0
2369,36970,0
2304,36946,0
2304,36944,0
2293,36968,0
2288,36947,0
2296,36951,0
2280,36958,0
2278,36958,0
2264,36933,0
2276,36977,0
2274,36973,0
2272,36950,0
2276,36939,0
2284,36981,0
2292,36948,0
2296,36938,0
2304,36981,0
2300,36956,0
2308,36943,0
2308,36990,0
2304,36964,0
2292,36944,0
2290,36987,0
2292,36963,0
2288,36954,0
2280,37006,0
2272,36968,0
2328,36963,0
2320,37009,0
2304,36989,0
2312,36976,0
2308,37011,0
2321,36979,0
2268,37003,0
2284,37019,0
2292,36992,0
2305,36999,0
2320,37008,0
2324,37004,0
2324,37005,0
2320,37002,0
2328,37000,0
2322,36983,0
2308,37040,0
2296,37018,0
2280,37015,0
2262,37045,0
2252,37015,0
2244,37019,0
2248,37053,0
2248,37032,0
2244,37007,0
2248,37046,0
2260,37023,0
2272,37041,0
2274,37041,0
2292,37022,0
2292,37034,0
2312,37049,0
2376,37028,0
2384,37042,0
2385,37035,0
2374,37033,0
2364,37044,0
2365,37030,0
2301,37026,0
2294,37040,0
2284,37029,0
2270,37018,0
2274,36991,0
2268,37005,0
2264,37024,0
2256,37010,0
2256,37010,0
2252,36997,0
2252,37035,0
2244,36998,0
2250,36984,0
2256,37028,0
2284,37005,0
2256,36988,0
2272,37027,0
2265,37005,0
2264,36985,0
2268,37015,0
2266,36998,0
2264,37001,0
2266,37014,0
2260,36997,0
2260,36998,0
2260,36988,0
2324,36976,0
2326,37004,0
2329,36982,0
2342,36980,0
2356,36992,0
2372,36978,0
2328,36976,0
2337,36990,0
2326,36963,0
2320,36918,0
2304,36962,0
2296,36953,0
2292,36955,0
2272,36955,0
2260,36942,0
2256,36973,0
2244,36954,0
2248,36928,0
2244,36964,0
2248,36945,0
2276,36934,0
2272,36963,0
2288,36928,0
2306,36939,0
2302,36951,0
2312,36924,0
2320,36932,0
2312,36951,0
2322,36930,0
2312,36914,0
2368,36945,0
2356,36928,0
2344,36922,0
2332,36936,0
2320,36925,0
2312,36924,0
2304,36939,0
2244,36910,0
2234,36901,0
2232,36937,0
2233,36917,0
2240,36903,0
2240,36910,0
2248,36903,0
2252,36914,0
2256,36924,0
2256,36930,0
2252,36908,0
2264,36932,0
2272,36938,0
2268,36921,0
2276,36923,0
2280,36936,0
2280,36916,0
2276,36920,0
2280,36936,0
2280,36915,0
2292,36925,0
2276,36928,0
2292,36927,0
2296,36939,0
2300,36937,0
2308,36916,0
2380,36930,0
2384,36921,0
2392,36912,0
2392,36925,0
2388,36922,0
2402,36912,0
2338,36934,0
2325,36909,0
2306,36905,0
2292,36926,0
2276,36903,0
2248,36920,0
2224,36895,0
2208,36895,0
2208,36917,0
2208,36910,0
2204,36922,0
2220,36902,0
2232,36893,0
2256,36915,0
2272,36885,0
2284,36882,0
2304,36911,0
2312,36886,0
2320,36873,0
2320,36905,0
2316,36883,0
2306,36863,0
2308,36903,0
2290,36881,0
2280,36857,0
2260,36908,0
2304,36886,0
2296,36851,0
2296,36908,0
2292,36874,0
2292,36873,0
2288,36893,0
2244,36863,0
2252,36861,0
2248,36892,0
2248,36868,0
2272,36866,0
2265,36865,0
2292,36864,0
2292,36848,0
2300,36855,0
2304,36858,0
2306,36849,0
2312,36876,0
2304,36855,0
2296,36844,0
2296,36873,0
2288,36851,0
2276,36836,0
2268,36874,0
2280,36846,0
2282,36822,0
2288,36881,0
2296,36848,0
2302,36825,0
2300,36873,0
2310,36846,0
2312,36830,0
2368,36860,0
2368,36852,0
2352,36836,0
2342,36877,0
2336,36845,0
2330,36845,0
2260,36859,0
2261,36845,0
2252,36846,0
2256,36870,0
2272,36860,0
2264,36843,0
2280,36851,0
2276,36834,0
2292,36844,0
2296,36856,0
2302,36848,0
2298,36880,0
2304,36856,0
2300,36853,0
2300,36879,0
2288,36868,0
2276,36863,0
2274,36875,0
2256,36865,0
2252,36866,0
2240,36876,0
2228,36871,0
2212,36860,0
2208,36878,0
2208,36865,0
2220,36866,0
2284,36888,0
2304,36874,0
2320,36868,0
2324,36889,0
2336,36890,0
2338,36860,0
2285,36887,0
2290,36886,0
2282,36868,0
2289,36887,0
2292,36866,0
2284,36879,0
2280,36888,0
2272,36863,0
2272,36852,0
2260,36862,0
2264,36888,0
2264,36864,0
2260,36862,0
2258,36893,0
2260,36858,0
2264,36852,0
2268,36883,0
2276,36855,0
2288,36841,0
2292,36889,0
2296,36870,0
2308,36849,0
2312,36893,0
2308,36864,0
2300,36856,0
2298,36885,0
2352,36865,0
2344,36867,0
2336,36872,0
2322,36868,0
2313,36880,0
2320,36885,0
2252,36865,0
2252,36892,0
2252,36886,0
2250,36869,0
2272,36886,0
2264,36862,0
2276,36875,0
2280,36872,0
2276,36888,0
2268,36866,0
2282,36868,0
2268,36885,0
2264,36877,0
2260,36872,0
2252,36901,0
2250,36888,0
2236,36878,0
2232,36913,0
2232,36897,0
2228,36875,0
2230,36926,0
2232,36904,0
2244,36886,0
2256,36933,0
2280,36899,0
2160,36907,0
2368,36933,0
2392,36923,0
2408,36923,0
2418,36952,0
2424,36929,0
2420,36935,0
2356,36954,0
2352,36942,0
2342,36957,0
2332,36976,0
2336,36930,0
2316,36958,0
2316,36952,0
2308,36971,0
2308,36969,0
2308,36960,0
2322,36996,0
2316,36982,0
2320,36978,0
2320,37008,0
2328,36985,0
2328,36995,0
2324,37027,0
2324,37010,0
2324,36996,0
2272,37045,0
2272,37025,0
2266,37010,0
2250,37050,0
2244,37015,0
2232,37048,0
2232,37056,0
2266,37038,0
2260,37048,0
2256,37061,0
2272,37049,0
2288,37041,0
2304,37078,0
2266,37069,0
2268,37051,0
2274,37083,0
2285,37064,0
2304,37086,0
2288,37070,0
2304,37064,0
2288,37076,0
2288,37102,0
2276,37077,0
2276,37066,0
2260,37096,0
2240,37083,0
2236,37061,0
2228,37106,0
2224,37085,0
2224,37066,0
2232,37118,0
2244,37078,0
2244,37073,0
2256,37112,0
2264,37086,0
2272,37070,0
2276,37107,0
2280,37089,0
2285,37076,0
2352,37118,0
2348,37087,0
2348,37077,0
2340,37117,0
2352,37093,0
2340,37090,0
2272,37118,0
2270,37097,0
2253,37079,0
2244,37117,0
2248,37111,0
2240,37100,0
2228,37088,0
2228,37103,0
2236,37084,0
2236,37116,0
2240,37087,0
2244,37072,0
2252,37106,0
2250,37084,0
2252,37072,0
2250,37114,0
2096,37081,0
2244,37074,0
2248,37116,0
2258,37082,0
2252,37069,0
2252,37108,0
2248,37089,0
2248,37072,0
2242,37110,0
2264,37083,0
2328,37075,0
2340,37100,0
2356,37087,0
2376,37094,0
2384,37104,0
2380,37087,0
2324,37098,0
2324,37096,0
2318,37091,0
2304,37152,0
2308,37075,0
2288,37064,0
2282,37076,0
2260,37093,0
2248,37067,0
2232,37124,0
2228,37098,0
2224,37087,0
2218,37131,0
2216,37095,0
2224,37089,0
2204,37132,0
2209,37099,0
2208,37108,0
2208,37134,0
2216,37102,0
2224,37104,0
2240,37132,0
2252,37108,0
2256,37102,0
2328,37143,0
2336,37116,0
2352,37110,0
2353,37150,0
2372,37131,0
2380,37126,0
2389,37156,0
2348,37145,0
2371,37136,0
2376,37146,0
2416,37137,0
2464,37152,0
2496,37160,0
2548,37144,0
2608,37138,0
2680,37134,0
2744,37152,0
2800,37155,0
2858,37179,0
2900,37175,0
2932,37176,0
2964,37193,0
2940,37174,0
2908,37170,0
2868,37181,0
2812,37180,0
2736,37179,0
2648,37196,0
2560,37187,0
2476,37177,0
2376,37205,0
2272,37175,0
2180,37184,0
2144,37198,0
2076,37180,0
2008,37186,0
1942,37210,0
1885,37184,0
1856,37193,0
1784,37207,0
1750,37185,0
1724,37184,0
1691,37206,0
1676,37180,0
1654,37209,0
1636,37194,0
1724,37199,0
1604,37206,0
1600,37181,0
1592,37208,0
1596,37194,0
1592,37174,0
1600,37222,0
1608,37192,0
1620,37190,0
1620,37221,0
1640,37191,0
1640,37181,0
1657,37220,0
1644,37193,0
1648,37174,0
1660,37220,0
1662,37197,0
1660,37182,0
1676,37230,0
1728,37188,0
1736,37186,0
1762,37219,0
1792,37202,0
1818,37202,0
1840,37229,0
1829,37201,0
1849,37209,0
1870,37219,0
1885,37204,0
1897,37205,0
1916,37213,0
1928,37199,0
1944,37211,0
1952,37217,0
1956,37206,0
1956,37213,0
1961,37236,0
1968,37210,0
1968,37221,0
1980,37240,0
2000,37224,0
2004,37207,0
2034,37259,0
2060,37223,0
2080,37207,0
2112,37270,0
2132,37235,0
2140,37230,0
2160,37268,0
2184,37246,0
2192,37224,0
2268,37274,0
2268,37243,0
2282,37253,0
2294,37286,0
2304,37278,0
2308,37263,0
2264,37297,0
2264,37280,0
2252,37277,0
2262,37306,0
2264,37299,0
2272,37283,0
2280,37300,0
2290,37317,0
2306,37306,0
2308,37317,0
2312,37298,0
2312,37295,0
2308,37330,0
2296,37310,0
2312,37317,0
2294,37342,0
2284,37320,0
2272,37308,0
2260,37351,0
2252,37337,0
2252,37322,0
2248,37353,0
2252,37346,0
2260,37331,0
2264,37377,0
2280,37348,0
2348,37333,0
2358,37382,0
2372,37357,0
2386,37339,0
2400,37386,0
2392,37363,0
2340,37336,0
2336,37393,0
2330,37370,0
2328,37345,0
2328,37356,0
2316,37376,0
2320,37397,0
2296,37402,0
2296,37379,0
2284,37365,0
2284,37390,0
2292,37368,0
2288,37361,0
2284,37391,0
2290,37373,0
2288,37354,0
2288,37393,0
2296,37376,0
2296,37358,0
2296,37391,0
2296,37373,0
2296,37357,0
2304,37406,0
2304,37365,0
2308,37370,0
2304,37393,0
2368,37382,0
2361,37354,0
2352,37406,0
2352,37384,0
2354,37373,0
2344,37405,0
2296,37380,0
2300,37372,0
2304,37405,0
2306,37383,0
2312,37383,0
2308,37371,0
2313,37390,0
2324,37380,0
2324,37395,0
2312,37374,0
2306,37408,0
2296,37383,0
2296,37391,0
2288,37407,0
2284,37380,0
2272,37388,0
2268,37403,0
2266,37378,0
2264,37384,0
2264,37405,0
2260,37386,0
2276,37396,0
2280,37418,0
2292,37390,0
2300,37395,0
2316,37406,0
2376,37400,0
2380,37404,0
2384,37417,0
2386,37400,0
2394,37403,0
2392,37421,0
2329,37400,0
2326,37396,0
2318,37415,0
2310,37395,0
2300,37412,0
2292,37395,0
2288,37416,0
2288,37398,0
2292,37399,0
2298,37390,0
2312,37407,0
2320,37390,0
2336,37408,0
2348,37411,0
2352,37386,0
2346,37394,0
2340,37407,0
2336,37387,0
2328,37382,0
2316,37404,0
2300,37386,0
2284,37360,0
2268,37390,0
2252,37376,0
2228,37363,0
2224,37396,0
2256,37369,0
2256,37350,0
2256,37400,0
2258,37363,0
2272,37356,0
2293,37389,0
2252,37354,0
2276,37347,0
2282,37376,0
2300,37352,0
2320,37345,0
2316,37353,0
2336,37354,0
2336,37359,0
2328,37356,0
2330,37335,0
2324,37321,0
2306,37349,0
2290,37341,0
2276,37326,0
2264,37360,0
2266,37326,0
2266,37313,0
2268,37347,0
2280,37327,0
2280,37325,0
2296,37334,0
2308,37323,0
2304,37325,0
2316,37329,0
2320,37319,0
2320,37318,0
2368,37331,0
2368,37305,0
2357,37317,0
2352,37337,0
2340,37306,0
2328,37306,0
2264,37331,0
2256,37302,0
2244,37294,0
2236,37268,0
2242,37316,0
2260,37297,0
2240,37311,0
2256,37294,0
2249,37297,0
2252,37295,0
2252,37315,0
2252,37292,0
2264,37290,0
2260,37313,0
2272,37297,0
2274,37299,0
2276,37313,0
2288,37285,0
2284,37283,0
2288,37310,0
2296,37287,0
2288,37291,0
2296,37311,0
2292,37281,0
2368,37281,0
2368,37300,0
2356,37295,0
2376,37289,0
2369,37292,0
2376,37304,0
2372,37291,0
2312,37290,0
2320,37310,0
2308,37287,0
2302,37296,0
2304,37268,0
2306,37270,0
2292,37293,0
2272,37286,0
2260,37299,0
2236,37284,0
2232,37298,0
2216,37268,0
2210,37281,0
2204,37292,0
2208,37275,0
2212,37273,0
2218,37296,0
2232,37278,0
2240,37277,0
2244,37295,0
2268,37274,0
2276,37277,0
2290,37292,0
2296,37276,0
2304,37277,0
2308,37303,0
2372,37279,0
2380,37269,0
2380,37296,0
2376,37270,0
2380,37275,0
2384,37288,0
2328,37271,0
2323,37277,0
2314,37300,0
2314,37273,0
2314,37267,0
2304,37273,0
2328,37285,0
2292,37277,0
2288,37284,0
2280,37301,0
2274,37275,0
2268,37275,0
2256,37305,0
2242,37285,0
2232,37269,0
2232,37309,0
2226,37290,0
2228,37268,0
2232,37318,0
2240,37281,0
2250,37272,0
2264,37308,0
2280,37292,0
2284,37273,0
2300,37307,0
2302,37302,0
2368,37275,0
2368,37322,0
2356,37299,0
2352,37276,0
2344,37328,0
2348,37303,0
2282,37288,0
2272,37337,0
2268,37305,0
2266,37302,0
2272,37297,0
2273,37300,0
2272,37304,0
2280,37310,0
2284,37309,0
2296,37337,0
2296,37341,0
2296,37329,0
2297,37343,0
2304,37346,0
2306,37329,0
2313,37343,0
2306,37339,0
2308,37339,0
2304,37360,0
2300,37361,0
2296,37343,0
2280,37360,0
2272,37372,0
2260,37354,0
2244,37359,0
2232,37385,0
2280,37359,0
2268,37354,0
2268,37391,0
2256,37368,0
2258,37364,0
2258,37393,0
2212,37375,0
2222,37355,0
2232,37402,0
2242,37394,0
2256,37406,0
2256,37400,0
2266,37376,0
2276,37384,0
2288,37383,0
2292,37397,0
2296,37411,0
2308,37410,0
2300,37411,0
2308,37426,0
2300,37427,0
2298,37411,0
2290,37413,0
2280,37441,0
2284,37420,0
2270,37409,0
2280,37450,0
2288,37417,0
2280,37414,0
2288,37447,0
2280,37429,0
2280,37420,0
2336,37457,0
2325,37435,0
2324,37424,0
2316,37461,0
2320,37447,0
2310,37425,0
2252,37472,0
2248,37438,0
2241,37429,0
2250,37473,0
2264,37453,0
2268,37436,0
2282,37448,0
2292,37473,0
2304,37475,0
2312,37488,0
2324,37476,0
2328,37463,0
2330,37491,0
2328,37480,0
2320,37470,0
2312,37497,0
2290,37485,0
2288,37485,0
2274,37507,0
2264,37502,0
2256,37494,0
2248,37506,0
2240,37506,0
2234,37490,0
2232,37510,0
2232,37503,0
2296,37502,0
2292,37509,0
2304,37506,0
2306,37501,0
2314,37515,0
2320,37515,0
2264,37505,0
2260,37505,0
2254,37532,0
2266,37522,0
2272,37507,0
2256,37532,0
2272,37542,0
2276,37516,0
2272,37521,0
2276,37522,0
2280,37535,0
2284,37550,0
2288,37522,0
2292,37531,0
2292,37552,0
2296,37524,0
2296,37542,0
2296,37558,0
2284,37530,0
2280,37551,0
2284,37558,0
2288,37546,0
2280,37548,0
2272,37567,0
2280,37556,0
2276,37545,0
2336,37574,0
2330,37548,0
2326,37556,0
2324,37572,0
2324,37559,0
2330,37564,0
2274,37593,0
2277,37574,0
2278,37566,0
2292,37592,0
2312,37567,0
2328,37574,0
2344,37596,0
2354,37586,0
2361,37600,0
2364,37581,0
2362,37582,0
2356,37593,0
2354,37587,0
2340,37586,0
2324,37602,0
2312,37597,0
2298,37589,0
2280,37607,0
2268,37595,0
2272,37585,0
2248,37601,0
2260,37615,0
2272,37600,0
2272,37574,0
2280,37622,0
2292,37604,0
2352,37571,0
2348,37608,0
2344,37590,0
2340,37582,0
2328,37619,0
2320,37594,0
2253,37586,0
2246,37608,0
2234,37588,0
2228,37583,0
2224,37608,0
2220,37585,0
2216,37604,0
2217,37578,0
2218,37586,0
2220,37606,0
2232,37603,0
2236,37602,0
2256,37612,0
2264,37601,0
2272,37594,0
2288,37609,0
2289,37595,0
2292,37604,0
2296,37602,0
2296,37589,0
2290,37584,0
2288,37605,0
2280,37596,0
2276,37577,0
2272,37594,0
2260,37593,0
2314,37581,0
2314,37604,0
2320,37591,0
2328,37573,0
2338,37598,0
2348,37587,0
2304,37578,0
2309,37603,0
2300,37581,0
2300,37554,0
2288,37578,0
2296,37593,0
2284,37588,0
2280,37583,0
2272,37573,0
2264,37592,0
2256,37562,0
2248,37575,0
2244,37592,0
2240,37575,0
2240,37566,0
2244,37595,0
2112,37560,0
2248,37567,0
2264,37582,0
2256,37562,0
2272,37557,0
2272,37585,0
2268,37559,0
2264,37557,0
2328,37569,0
2330,37552,0
2332,37545,0
2336,37575,0
2337,37554,0
2336,37539,0
2338,37569,0
2272,37549,0
2272,37534,0
2268,37571,0
2272,37541,0
2276,37554,0
2280,37559,0
2282,37547,0
2288,37552,0
2298,37548,0
2301,37545,0
2320,37540,0
2304,37556,0
2298,37537,0
2296,37544,0
2276,37547,0
2272,37537,0
2264,37536,0
2248,37557,0
2236,37524,0
2232,37531,0
2216,37560,0
2220,37526,0
2236,37527,0
2240,37554,0
2250,37528,0
2268,37533,0
2336,37547,0
2360,37532,0
2384,37536,0
2405,37546,0
2420,37527,0
2444,37527,0
2396,37546,0
2408,37527,0
2402,37537,0
2412,37548,0
2436,37511,0
2456,37542,0
2496,37501,0
2536,37524,0
2600,37544,0
2732,37510,0
2724,37549,0
2782,37526,0
2832,37524,0
2880,37554,0
2906,37516,0
2920,37508,0
2920,37547,0
2888,37527,0
2828,37510,0
2748,37556,0
2656,37524,0
2552,37508,0
2448,37554,0
2320,37530,0
2198,37527,0
2088,37560,0
2048,37531,0
1952,37528,0
1888,37555,0
1828,37533,0
1784,37527,0
1749,37561,0
1692,37526,0
1677,37521,0
1670,37560,0
1674,37536,0
1676,37535,0
1672,37536,0
1674,37556,0
1664,37567,0
1532,37541,0
1652,37527,0
1644,37570,0
1640,37540,0
1624,37528,0
1616,37574,0
1616,37554,0
1606,37537,0
1602,37580,0
1608,37558,0
1624,37551,0
1632,37588,0
1644,37556,0
1664,37569,0
1680,37587,0
1688,37572,0
1704,37562,0
1736,37595,0
1784,37573,0
1800,37564,0
1812,37599,0
1820,37579,0
1834,37556,0
1848,37595,0
1812,37580,0
1816,37567,0
1826,37605,0
1832,37584,0
1836,37607,0
1852,37595,0
1860,37591,0
1868,37597,0
1888,37597,0
1908,37594,0
1932,37607,0
1956,37617,0
1978,37601,0
1988,37603,0
2008,37627,0
2008,37614,0
2028,37614,0
2032,37630,0
2036,37617,0
2040,37620,0
2052,37627,0
2064,37636,0
2088,37625,0
2096,37631,0
2116,37641,0
2140,37620,0
2208,37625,0
2232,37650,0
2252,37626,0
2276,37630,0
2297,37649,0
2312,37631,0
2272,37640,0
2277,37657,0
2276,37640,0
2280,37645,0
2288,37625,0
2284,37626,0
2280,37644,0
2280,37647,0
2276,37672,0
2276,37666,0
2272,37637,0
2260,37622,0
2256,37680,0
2252,37642,0
2242,37628,0
2240,37672,0
2240,37645,0
2236,37635,0
2236,37665,0
2244,37653,0
2242,37638,0
2256,37680,0
2272,37650,0
2288,37635,0
2296,37687,0
2308,37651,0
2368,37645,0
2360,37684,0
2364,37661,0
2354,37647,0
2352,37691,0
2352,37661,0
2292,37655,0
2288,37684,0
2276,37664,0
2270,37657,0
2280,37675,0
2264,37663,0
2280,37692,0
2284,37678,0
2296,37685,0
2312,37679,0
2312,37685,0
2320,37679,0
2312,37686,0
2308,37688,0
2296,37672,0
2308,37684,0
2281,37690,0
2272,37669,0
2276,37669,0
2240,37694,0
2232,37678,0
2224,37672,0
2220,37689,0
2232,37683,0
2244,37682,0
2288,37712,0
2344,37668,0
2368,37663,0
2380,37697,0
2402,37680,0
2410,37673,0
2404,37698,0
2356,37684,0
2354,37676,0
2332,37713,0
2320,37677,0
2320,37680,0
2288,37701,0
2280,37675,0
2260,37660,0
2256,37706,0
2250,37681,0
2250,37660,0
2256,37711,0
2264,37678,0
2264,37672,0
2280,37699,0
2300,37674,0
2296,37688,0
2298,37701,0
2296,37685,0
2296,37686,0
2292,37704,0
2300,37684,0
2290,37682,0
2292,37703,0
2288,37682,0
2272,37695,0
2320,37707,0
2308,37689,0
2296,37686,0
2292,37711,0
2294,37678,0
2292,37701,0
2248,37715,0
2252,37693,0
2258,37683,0
2268,37707,0
2284,37703,0
2289,37692,0
2296,37683,0
2302,37698,0
2304,37680,0
2316,37697,0
2324,37677,0
2328,37676,0
2332,37706,0
2322,37679,0
2312,37668,0
2296,37690,0
2292,37673,0
2260,37658,0
2252,37690,0
2248,37668,0
2250,37663,0
2264,37693,0
2258,37671,0
2272,37650,0
2276,37685,0
2280,37665,0
2340,37650,0
2344,37682,0
2344,37656,0
2336,37648,0
2328,37684,0
2332,37662,0
2272,37646,0
2264,37677,0
2256,37660,0
2256,37629,0
2260,37659,0
2256,37651,0
2256,37665,0
2264,37652,0
2272,37656,0
2276,37669,0
2282,37649,0
2300,37648,0
2310,37674,0
2316,37643,0
2314,37643,0
2346,37662,0
2336,37642,0
2314,37643,0
2308,37647,0
2296,37652,0
2288,37640,0
2272,37630,0
2260,37646,0
2248,37625,0
2308,37624,0
2304,37645,0
2304,37622,0
2312,37608,0
2322,37639,0
2336,37608,0
2340,37611,0
2302,37640,0
2300,37603,0
2304,37594,0
2300,37639,0
2312,37629,0
2312,37626,0
2322,37610,0
2312,37619,0
2304,37604,0
2288,37578,0
2284,37615,0
2264,37587,0
2256,37578,0
2236,37625,0
2230,37585,0
2240,37589,0
2248,37608,0
2257,37586,0
2260,37582,0
2290,37607,0
2292,37578,0
2298,37583,0
2304,37594,0
2304,37576,0
2300,37554,0
2296,37595,0
2352,37578,0
2344,37558,0
2336,37595,0
2328,37570,0
2316,37554,0
2310,37602,0
2252,37559,0
2242,37557,0
2216,37594,0
2213,37573,0
2212,37556,0
2210,37575,0
2216,37579,0
2220,37561,0
2236,37572,0
2248,37583,0
2256,37571,0
2260,37552,0
2276,37573,0
2128,37568,0
2280,37559,0
2280,37558,0
2280,37580,0
2272,37559,0
2268,37550,0
2164,37572,0
2248,37552,0
2244,37549,0
2244,37588,0
2248,37559,0
2252,37538,0
2268,37574,0
2332,37561,0
2348,37546,0
2340,37585,0
2360,37553,0
2360,37537,0
2364,37571,0
2304,37555,0
2310,37542,0
2308,37579,0
2303,37552,0
2302,37556,0
2292,37562,0
2288,37566,0
2280,37552,0
2272,37572,0
2264,37555,0
2264,37561,0
2261,37578,0
2272,37554,0
2272,37555,0
2282,37579,0
2288,37560,0
2282,37556,0
2172,37575,0
2268,37562,0
2292,37560,0
2288,37587,0
2292,37555,0
2288,37555,0
2292,37577,0
2282,37549,0
2280,37561,0
2336,37582,0
2328,37550,0
2324,37561,0
2324,37578,0
2308,37564,0
2312,37559,0
2268,37583,0
2274,37559,0
2266,37556,0
2274,37583,0
2292,37565,0
2288,37568,0
2296,37598,0
2280,37597,0
2268,37556,0
2264,37583,0
2260,37570,0
2258,37568,0
2256,37596,0
2256,37560,0
2264,37573,0
2250,37592,0
2272,37573,0
2268,37564,0
2256,37584,0
2258,37600,0
2272,37584,0
2280,37588,0
2292,37597,0
2288,37567,0
2288,37594,0
2288,37591,0
2344,37589,0
2344,37591,0
2336,37600,0
2312,37587,0
2304,37586,0
2296,37596,0
2244,37589,0
2248,37603,0
2236,37605,0
2232,37588,0
2130,37570,0
2248,37587,0
2248,37582,0
2256,37586,0
2260,37599,0
2260,37588,0
2290,37615,0
2298,37594,0
2296,37595,0
2300,37619,0
2300,37593,0
2312,37598,0
2304,37625,0
2296,37599,0
2292,37598,0
2284,37621,0
2272,37605,0
2272,37600,0
2260,37635,0
2260,37613,0
2256,37614,0
2252,37630,0
2320,37609,0
2320,37620,0
2328,37632,0
2336,37606,0
2340,37622,0
2352,37649,0
2298,37618,0
2297,37618,0
2281,37644,0
2282,37618,0
2296,37641,0
2284,37654,0
2276,37648,0
2276,37633,0
2264,37644,0
2252,37626,0
2256,37655,0
2236,37631,0
2240,37635,0
2242,37647,0
2240,37626,0
2248,37638,0
2250,37650,0
2260,37636,0
2274,37635,0
2272,37651,0
2280,37640,0
2288,37639,0
2288,37661,0
2292,37649,0
2288,37645,0
2292,37638,0
2348,37664,0
2344,37644,0
2332,37645,0
2336,37670,0
2330,37649,0
2336,37642,0
2280,37673,0
2275,37651,0
2264,37636,0
2260,37675,0
2264,37671,0
2272,37655,0
2264,37651,0
2268,37650,0
2264,37660,0
2272,37689,0
2272,37656,0
2272,37672,0
2276,37690,0
2278,37659,0
2288,37662,0
2288,37683,0
2292,37663,0
2312,37669,0
2304,37691,0
2292,37666,0
2296,37672,0
2292,37691,0
2301,37659,0
2296,37672,0
2300,37688,0
2308,37680,0
2376,37686,0
2364,37705,0
2380,37673,0
2376,37678,0
2340,37690,0
2336,37669,0
2264,37678,0
2256,37699,0
2242,37694,0
2236,37683,0
2240,37687,0
2232,37678,0
2236,37700,0
2226,37691,0
2226,37676,0
2240,37687,0
2252,37700,0
2260,37680,0
2292,37681,0
2308,37696,0
2344,37674,0
2356,37676,0
2372,37707,0
2388,37679,0
2396,37682,0
2388,37705,0
2384,37678,0
2369,37676,0
2352,37697,0
2332,37680,0
2298,37680,0
2280,37703,0
2312,37670,0
2288,37689,0
2269,37706,0
2262,37674,0
2248,37682,0
2244,37694,0
2200,37686,0
2200,37676,0
2193,37695,0
2212,37647,0
2212,37664,0
2216,37678,0
2224,37696,0
2232,37693,0
2236,37700,0
2232,37669,0
2224,37663,0
2224,37698,0
2220,37668,0
2204,37650,0
2208,37690,0
2200,37669,0
2208,37643,0
2212,37685,0
2228,37661,0
2232,37644,0
2248,37683,0
2248,37669,0
2258,37651,0
2266,37684,0
2336,37668,0
2346,37654,0
2352,37683,0
2352,37649,0
2352,37647,0
2360,37684,0
2360,37660,0
2288,37643,0
2288,37672,0
2274,37651,0
2256,37639,0
2250,37647,0
2244,37639,0
2240,37654,0
2234,37646,0
2242,37633,0
2248,37656,0
2252,37663,0
2248,37631,0
2260,37639,0
2256,37652,0
2264,37631,0
2280,37629,0
2258,37664,0
2248,37618,0
2404,37615,0
2240,37641,0
2240,37630,0
2224,37602,0
2216,37642,0
2204,37614,0
2194,37604,0
2192,37633,0
2256,37605,0
2266,37598,0
2274,37637,0
2284,37608,0
2292,37595,0
2304,37628,0
2264,37618,0
2264,37603,0
2264,37638,0
2266,37598,0
2272,37595,0
2264,37598,0
2272,37598,0
2272,37596,0
2272,37595,0
2268,37585,0
2266,37593,0
2260,37609,0
2252,37589,0
2250,37591,0
2250,37608,0
2244,37586,0
2252,37584,0
2256,37596,0
2264,37597,0
2264,37586,0
2264,37594,0
2264,37604,0
2264,37579,0
2260,37571,0
2244,37598,0
2236,37580,0
2288,37568,0
2268,37599,0
2264,37566,0
2266,37541,0
2274,37583,0
2280,37559,0
2252,37550,0
2252,37580,0
2265,37557,0
2286,37556,0
2324,37545,0
2352,37571,0
2378,37560,0
2400,37575,0
2426,37579,0
2432,37564,0
2440,37579,0
2458,37547,0
2472,37568,0
2492,37568,0
2520,37558,0
2561,37554,0
2613,37570,0
2672,37560,0
2720,37544,0
2760,37566,0
2800,37550,0
2836,37527,0
2856,37571,0
2864,37539,0
2864,37535,0
2848,37572,0
2892,37551,0
2834,37532,0
2764,37563,0
2688,37541,0
2592,37524,0
2496,37569,0
2336,37539,0
2220,37528,0
2121,37560,0
2018,37542,0
1936,37550,0
1850,37541,0
1788,37561,0
1720,37550,0
1664,37533,0
1626,37542,0
1616,37534,0
1600,37565,0
1586,37541,0
1580,37531,0
1585,37556,0
1584,37555,0
1594,37545,0
1604,37565,0
1608,37542,0
1624,37538,0
1616,37578,0
1616,37544,0
1620,37545,0
1616,37576,0
1610,37546,0
1604,37551,0
1632,37571,0
1628,37548,0
1633,37554,0
1616,37574,0
1622,37566,0
1617,37558,0
1604,37560,0
1618,37567,0
1624,37568,0
1648,37558,0
1660,37559,0
1672,37560,0
1692,37569,0
1714,37560,0
1728,37562,0
1744,37574,0
1764,37565,0
1768,37563,0
1781,37575,0
1796,37574,0
1816,37559,0
1840,37549,0
1856,37597,0
1876,37558,0
1892,37549,0
1904,37583,0
1930,37565,0
1962,37545,0
1984,37588,0
1996,37566,0
2016,37536,0
2020,37584,0
2084,37558,0
2096,37540,0
2102,37584,0
2112,37565,0
2116,37547,0
2118,37566,0
2076,37559,0
2080,37561,0
2085,37573,0
2094,37559,0
2116,37577,0
2124,37562,0
2136,37570,0
2156,37562,0
2184,37588,0
2200,37561,0
2220,37562,0
2240,37580,0
2256,37562,0
2268,37564,0
2284,37587,0
2292,37555,0
2300,37564,0
2304,37584,0
2300,37562,0
2292,37564,0
2292,37577,0
2280,37572,0
2272,37567,0
2266,37567,0
2252,37586,0
2256,37566,0
2312,37560,0
2304,37578,0
2312,37564,0
2320,37557,0
2324,37579,0
2320,37567,0
2272,37544,0
2277,37586,0
2266,37563,0
2264,37544,0
2272,37555,0
2272,37566,0
2284,37561,0
2268,37570,0
2266,37558,0
2268,37581,0
2264,37564,0
2264,37555,0
2252,37581,0
2256,37572,0
2250,37565,0
2256,37583,0
2260,37575,0
2268,37564,0
2274,37575,0
2280,37576,0
2288,37558,0
2285,37575,0
2300,37565,0
2300,37563,0
2308,37574,0
2308,37566,0
2372,37560,0
2368,37550,0
2362,37577,0
2357,37561,0
2340,37539,0
2328,37585,0
2268,37561,0
2254,37539,0
2240,37573,0
2236,37555,0
2248,37559,0
2240,37554,0
2248,37564,0
2244,37557,0
2248,37547,0
2256,37557,0
2260,37581,0
2268,37569,0
2276,37561,0
2282,37570,0
2280,37578,0
2284,37552,0
2280,37566,0
2276,37576,0
2288,37557,0
2284,37549,0
2292,37580,0
2296,37561,0
2304,37549,0
2300,37574,0
2312,37562,0
2320,37545,0
2384,37585,0
2385,37562,0
2376,37547,0
2368,37590,0
2358,37566,0
2348,37559,0
2284,37588,0
2272,37564,0
2248,37568,0
2216,37531,0
2218,37572,0
2208,37566,0
2202,37600,0
2194,37576,0
2194,37599,0
2192,37572,0
2196,37537,0
2208,37585,0
2224,37559,0
2234,37555,0
2252,37593,0
2264,37564,0
2280,37549,0
2296,37576,0
2296,37560,0
2328,37552,0
2312,37582,0
2312,37556,0
2184,37552,0
2292,37574,0
2344,37541,0
2320,37543,0
2296,37564,0
2280,37545,0
2268,37548,0
2260,37561,0
2272,37537,0
2229,37540,0
2246,37561,0
2256,37533,0
2276,37538,0
2292,37531,0
2308,37540,0
2316,37503,0
2320,37514,0
2328,37518,0
2324,37517,0
2336,37501,0
2316,37534,0
2296,37511,0
2288,37495,0
2272,37529,0
2260,37501,0
2248,37494,0
2220,37516,0
2228,37491,0
2220,37494,0
2224,37512,0
2228,37485,0
2233,37480,0
2236,37503,0
2248,37484,0
2258,37482,0
2328,37486,0
2344,37466,0
2352,37469,0
2368,37481,0
2368,37458,0
2372,37459,0
2314,37472,0
2307,37462,0
2296,37448,0
2280,37438,0
2284,37427,0
2272,37454,0
2252,37458,0
2240,37432,0
2232,37442,0
2230,37409,0
2228,37449,0
2248,37418,0
2236,37414,0
2240,37431,0
2252,37410,0
2256,37415,0
2264,37425,0
2260,37396,0
2264,37394,0
2260,37415,0
2266,37401,0
2264,37391,0
2248,37403,0
2254,37407,0
2252,37371,0
2258,37365,0
2316,37405,0
2340,37363,0
2324,37356,0
2336,37390,0
2342,37364,0
2346,37332,0
2289,37379,0
2296,37353,0
2288,37332,0
2286,37366,0
2290,37350,0
2276,37358,0
2280,37331,0
2268,37340,0
2264,37330,0
2256,37315,0
2252,37341,0
2244,37307,0
2232,37293,0
2226,37337,0
2220,37303,0
2226,37291,0
2224,37322,0
2226,37306,0
2244,37289,0
2256,37316,0
2272,37283,0
2288,37283,0
2288,37314,0
2296,37281,0
2288,37272,0
2300,37302,0
2344,37268,0
2328,37271,0
2329,37293,0
2308,37275,0
2298,37262,0
2284,37280,0
2220,37260,0
2218,37252,0
2194,37275,0
2186,37258,0
2188,37265,0
2184,37260,0
2200,37257,0
2204,37262,0
2218,37261,0
2224,37244,0
2248,37263,0
2256,37267,0
2256,37254,0
2265,37245,0
2288,37263,0
2276,37257,0
2276,37238,0
2280,37229,0
2272,37271,0
2260,37236,0
2260,37228,0
2248,37262,0
2244,37237,0
2248,37220,0
2248,37254,0
2260,37230,0
2320,37226,0
2312,37243,0
2308,37220,0
2304,37228,0
2306,37249,0
2308,37227,0
2248,37227,0
2253,37252,0
2242,37233,0
2252,37229,0
2241,37209,0
2232,37232,0
2224,37231,0
2226,37222,0
2232,37211,0
2220,37222,0
2232,37205,0
2232,37250,0
2248,37224,0
2264,37193,0
2276,37244,0
2282,37213,0
2300,37203,0
2312,37235,0
2312,37210,0
2336,37206,0
2320,37238,0
2320,37206,0
2308,37224,0
2304,37242,0
2296,37217,0
2288,37215,0
2336,37245,0
2324,37219,0
2314,37219,0
2312,37250,0
2314,37222,0
2317,37226,0
2272,37249,0
2276,37225,0
2268,37228,0
2266,37248,0
2280,37246,0
2140,37246,0
2282,37227,0
2264,37251,0
2264,37235,0
2264,37250,0
2260,37230,0
2250,37225,0
2248,37257,0
2248,37242,0
2240,37230,0
2232,37263,0
2228,37240,0
2240,37229,0
2234,37272,0
2240,37243,0
2242,37236,0
2252,37273,0
2264,37259,0
2272,37265,0
2280,37271,0
2272,37256,0
2344,37261,0
2345,37280,0
2352,37264,0
2344,37264,0
2344,37270,0
2340,37281,0
2280,37267,0
2256,37276,0
2256,37288,0
2236,37268,0
2244,37290,0
2234,37288,0
2228,37272,0
2228,37285,0
2224,37301,0
2226,37274,0
2232,37265,0
2238,37307,0
2244,37286,0
2250,37267,0
2256,37308,0
2256,37291,0
2272,37269,0
2280,37319,0
2288,37285,0
2280,37277,0
2284,37315,0
2276,37284,0
2280,37282,0
2272,37318,0
2266,37281,0
2264,37290,0
2316,37309,0
2312,37305,0
2316,37300,0
2310,37326,0
2312,37291,0
2320,37309,0
2268,37323,0
2296,37300,0
2272,37300,0
2266,37319,0
2280,37314,0
2274,37309,0
2256,37315,0
2244,37315,0
2252,37298,0
2228,37300,0
2232,37323,0
2224,37303,0
2216,37307,0
2224,37333,0
2234,37316,0
2244,37307,0
2260,37311,0
2272,37334,0
2288,37304,0
2290,37299,0
2288,37326,0
2284,37321,0
2288,37306,0
2280,37337,0
2266,37315,0
2264,37307,0
2312,37338,0
2296,37315,0
2280,37320,0
2272,37340,0
2252,37318,0
2242,37326,0
2188,37356,0
2184,37330,0
2178,37325,0
2216,37340,0
2244,37327,0
2248,37338,0
2264,37352,0
2284,37347,0
2296,37362,0
2306,37329,0
2312,37323,0
2304,37360,0
2306,37340,0
2290,37317,0
2288,37351,0
2268,37332,0
2250,37335,0
2232,37369,0
2228,37335,0
2224,37342,0
2249,37360,0
2216,37334,0
2240,37340,0
2256,37366,0
2324,37340,0
2338,37342,0
2357,37359,0
2380,37338,0
2392,37339,0
2414,37360,0
2434,37358,0
2388,37338,0
2392,37320,0
2385,37366,0
2376,37337,0
2372,37340,0
2345,37326,0
2328,37334,0
2296,37337,0
2282,37323,0
2252,37325,0
2240,37332,0
2225,37349,0
2224,37321,0
2224,37323,0
2220,37342,0
2220,37338,0
2212,37330,0
2216,37323,0
2212,37345,0
2210,37328,0
2212,37302,0
2216,37341,0
2224,37315,0
2232,37308,0
2236,37341,0
2234,37312,0
2304,37309,0
2294,37332,0
2292,37313,0
2294,37309,0
2288,37335,0
2296,37318,0
2240,37312,0
2240,37324,0
2232,37330,0
2225,37303,0
2240,37302,0
2216,37329,0
2210,37290,0
2212,37313,0
2216,37303,0
2210,37295,0
2210,37278,0
2212,37316,0
2212,37282,0
2208,37272,0
2212,37311,0
2220,37286,0
2228,37276,0
2228,37309,0
2240,37278,0
2248,37281,0
2258,37294,0
2272,37275,0
2300,37270,0
2280,37281,0
2292,37288,0
2292,37291,0
2344,37271,0
2340,37296,0
2328,37262,0
2320,37245,0
2312,37290,0
2304,37262,0
2248,37247,0
2234,37281,0
2224,37246,0
2213,37256,0
2220,37259,0
2208,37255,0
2216,37263,0
2208,37232,0
2224,37248,0
2224,37232,0
2240,37282,0
2242,37250,0
2260,37227,0
2248,37264,0
2268,37242,0
2268,37229,0
2280,37262,0
2274,37237,0
2264,37232,0
2258,37252,0
2256,37234,0
2256,37224,0
2240,37250,0
2244,37226,0
2244,37221,0
2232,37255,0
2296,37223,0
2296,37223,0
2308,37243,0
2316,37222,0
2328,37225,0
2338,37252,0
2296,37246,0
2288,37225,0
2282,37226,0
2276,37241,0
2272,37202,0
2256,37225,0
2240,37241,0
2220,37235,0
2209,37234,0
2212,37228,0
2192,37230,0
2200,37230,0
2208,37222,0
2212,37218,0
2244,37219,0
2264,37236,0
2290,37213,0
2320,37199,0
2344,37237,0
2370,37216,0
2396,37187,0
2420,37231,0
2448,37223,0
2468,37198,0
2496,37231,0
2522,37204,0
2612,37198,0
2656,37235,0
2688,37206,0
2722,37197,0
2774,37228,0
2816,37211,0
2784,37203,0
2820,37232,0
2844,37209,0
2861,37209,0
2876,37228,0
2848,37223,0
2820,37213,0
2776,37178,0
2724,37216,0
2648,37215,0
2768,37229,0
2480,37225,0
2386,37220,0
2280,37226,0
2172,37233,0
2068,37213,0
1970,37193,0
1876,37233,0
1808,37213,0
1744,37196,0
1696,37233,0
1664,37227,0
1640,37211,0
1622,37231,0
1616,37212,0
1602,37215,0
1620,37237,0
1618,37205,0
1617,37220,0
1608,37244,0
1609,37223,0
1595,37234,0
1576,37220,0
1558,37248,0
1552,37228,0
1548,37216,0
1540,37229,0
1540,37215,0
1546,37242,0
1534,37213,0
1546,37254,0
1556,37241,0
1569,37239,0
1572,37240,0
1608,37236,0
1598,37262,0
1628,37231,0
1648,37229,0
1660,37261,0
1680,37236,0
1696,37223,0
1712,37258,0
1724,37227,0
1744,37221,0
1762,37258,0
1760,37237,0
1780,37236,0
1794,37259,0
1845,37250,0
1860,37242,0
1872,37261,0
1889,37255,0
1896,37249,0
1924,37265,0
1900,37250,0
1922,37251,0
1921,37273,0
1938,37253,0
1958,37241,0
1970,37262,0
1980,37272,0
2002,37264,0
2009,37260,0
2028,37287,0
2052,37259,0
2072,37264,0
2082,37277,0
2096,37261,0
2112,37267,0
2133,37279,0
2156,37274,0
2180,37270,0
2208,37269,0
2220,37294,0
2242,37274,0
2248,37256,0
2248,37300,0
2258,37270,0
2264,37261,0
2272,37303,0
2330,37270,0
2328,37270,0
2336,37301,0
2324,37277,0
2304,37264,0
2298,37301,0
2236,37278,0
2230,37280,0
2224,37302,0
2216,37289,0
2212,37285,0
2220,37312,0
2220,37309,0
2232,37295,0
2248,37307,0
2258,37297,0
2272,37299,0
2290,37306,0
2298,37314,0
2320,37298,0
2324,37304,0
2320,37315,0
2320,37306,0
2312,37275,0
2304,37327,0
2292,37311,0
2284,37290,0
2280,37324,0
2284,37305,0
2274,37302,0
2266,37335,0
2264,37316,0
2316,37313,0
2328,37335,0
2336,37319,0
2340,37310,0
2364,37340,0
2364,37328,0
2316,37314,0
2320,37334,0
2312,37322,0
2302,37354,0
2292,37346,0
2280,37339,0
2264,37305,0
2258,37326,0
2250,37322,0
2240,37338,0
2236,37331,0
2240,37314,0
2240,37336,0
2244,37335,0
2256,37324,0
2266,37316,0
2276,37349,0
2288,37339,0
2297,37318,0
2302,37357,0
2320,37334,0
2316,37313,0
2320,37360,0
2320,37335,0
2368,37325,0
2352,37349,0
2344,37337,0
2330,37332,0
2316,37358,0
2310,37323,0
2304,37337,0
2234,37360,0
2234,37341,0
2222,37356,0
2224,37353,0
2244,37354,0
2244,37332,0
2256,37355,0
2264,37342,0
2264,37346,0
2280,37321,0
2284,37370,0
2284,37323,0
2288,37329,0
2292,37353,0
2289,37339,0
2288,37331,0
2292,37368,0
2296,37343,0
2284,37338,0
2282,37365,0
2276,37349,0
2272,37335,0
2264,37360,0
2258,37339,0
2428,37344,0
2260,37369,0
2328,37342,0
2336,37343,0
2336,37352,0
2328,37360,0
2324,37331,0
2328,37338,0
2274,37364,0
2259,37337,0
2252,37319,0
2250,37348,0
2264,37319,0
2256,37340,0
2252,37307,0
2248,37338,0
2240,37318,0
2234,37323,0
2240,37328,0
2232,37334,0
2236,37326,0
2248,37310,0
2260,37337,0
2268,37318,0
2276,37317,0
2276,37319,0
2284,37321,0
2288,37306,0
2296,37298,0
2298,37324,0
2296,37291,0
2300,37284,0
2305,37306,0
2296,37284,0
2360,37261,0
2353,37309,0
2356,37280,0
2352,37259,0
2346,37296,0
2344,37281,0
2288,37268,0
2297,37292,0
2290,37269,0
2288,37265,0
2300,37263,0
2296,37262,0
2308,37268,0
2296,37262,0
2292,37244,0
2280,37252,0
2272,37268,0
2256,37285,0
2252,37253,0
2242,37254,0
2236,37259,0
2228,37262,0
2228,37241,0
2236,37241,0
2232,37271,0
2240,37242,0
2256,37218,0
2272,37256,0
2280,37230,0
2288,37222,0
2320,37251,0
2308,37220,0
2376,37212,0
2372,37232,0
2370,37218,0
2368,37222,0
2360,37227,0
2352,37199,0
2280,37210,0
2277,37228,0
2252,37194,0
2240,37187,0
2240,37194,0
2228,37174,0
2232,37190,0
2228,37181,0
2228,37165,0
2232,37186,0
2226,37185,0
2228,37193,0
2232,37171,0
2232,37163,0
2240,37195,0
2240,37163,0
2240,37158,0
2232,37181,0
2232,37158,0
2232,37125,0
2228,37179,0
2216,37145,0
2224,37131,0
2240,37154,0
2244,37135,0
2256,37126,0
2320,37158,0
2324,37117,0
2336,37123,0
2341,37141,0
2352,37129,0
2352,37116,0
2298,37128,0
2300,37124,0
2294,37115,0
2288,37119,0
2288,37099,0
2268,37122,0
2268,37099,0
2249,37114,0
2244,37095,0
2234,37094,0
2236,37091,0
2248,37111,0
2252,37092,0
2252,37067,0
2264,37114,0
2276,37084,0
2280,37065,0
2288,37103,0
2288,37085,0
2296,37072,0
2296,37104,0
2296,37070,0
2284,37074,0
2284,37098,0
2276,37071,0
2264,37065,0
2312,37094,0
2288,37070,0
2280,37065,0
2280,37097,0
2264,37076,0
2262,37072,0
2212,37095,0
2213,37081,0
2212,37069,0
2214,37075,0
2236,37102,0
2248,37072,0
2260,37078,0
2268,37074,0
2284,37079,0
2296,37070,0
2304,37096,0
2312,37076,0
2320,37075,0
2324,37096,0
2308,37065,0
2300,37063,0
2300,37094,0
2284,37065,0
2276,37071,0
2264,37094,0
2256,37085,0
2252,37074,0
2256,37061,0
2252,37103,0
2248,37071,0
2256,37054,0
2324,37092,0
2320,37072,0
2328,37084,0
2340,37106,0
2336,37076,0
2336,37089,0
2272,37104,0
2266,37077,0
2252,37083,0
2249,37109,0
2250,37093,0
2248,37102,0
2408,37099,0
2244,37078,0
2250,37089,0
2248,37109,0
2268,37091,0
2272,37087,0
2284,37106,0
2296,37086,0
2300,37093,0
2300,37120,0
2304,37107,0
2296,37102,0
2292,37107,0
2284,37116,0
2272,37093,0
2262,37082,0
2244,37124,0
2240,37089,0
2220,37088,0
2218,37117,0
2260,37101,0
2257,37099,0
2260,37124,0
2262,37094,0
2268,37104,0
2282,37123,0
2242,37104,0
2252,37118,0
2256,37124,0
2264,37120,0
2276,37100,0
2276,37092,0
2276,37114,0
2276,37117,0
2280,37117,0
2284,37123,0
2268,37139,0
2272,37121,0
2276,37104,0
2272,37147,0
2268,37113,0
2266,37096,0
2272,37139,0
2264,37116,0
2280,37111,0
2280,37141,0
2280,37115,0
2280,37129,0
2294,37147,0
2288,37130,0
2288,37127,0
2288,37157,0
2346,37131,0
2346,37136,0
2352,37159,0
2345,37138,0
2342,37140,0
2330,37148,0
2266,37142,0
2250,37133,0
2236,37151,0
2224,37198,0
2224,37142,0
2220,37142,0
2232,37155,0
2244,37155,0
2256,37155,0
2272,37158,0
2280,37175,0
2284,37154,0
2288,37160,0
2288,37177,0
2292,37160,0
2296,37160,0
2288,37187,0
2280,37166,0
2284,37157,0
2272,37181,0
2272,37185,0
2252,37176,0
2252,37175,0
2240,37203,0
2284,37177,0
2288,37171,0
2288,37209,0
2282,37179,0
2292,37186,0
2290,37209,0
2296,37174,0
2252,37178,0
2256,37215,0
2256,37198,0
2264,37195,0
2272,37198,0
2268,37206,0
2260,37227,0
2264,37222,0
2264,37241,0
2256,37209,0
2256,37197,0
2260,37234,0
2264,37224,0
2272,37208,0
2276,37247,0
2272,37229,0
2288,37205,0
2282,37256,0
2280,37230,0
2288,37225,0
2288,37250,0
2290,37230,0
2288,37240,0
2320,37268,0
2280,37238,0
2272,37248,0
2324,37265,0
2316,37258,0
2316,37248,0
2296,37247,0
2288,37266,0
2288,37244,0
2236,37235,0
2226,37272,0
2224,37249,0
2220,37235,0
2240,37268,0
2244,37271,0
2264,37259,0
2264,37276,0
2280,37269,0
2288,37249,0
2296,37257,0
2304,37281,0
2296,37254,0
2298,37253,0
2296,37282,0
2296,37257,0
2296,37255,0
2288,37280,0
2288,37264,0
2290,37249,0
2282,37276,0
2296,37256,0
2290,37262,0
2296,37275,0
2312,37270,0
2328,37250,0
2408,37259,0
2416,37275,0
2422,37258,0
2432,37237,0
2424,37279,0
2428,37245,0
2362,37229,0
2352,37268,0
2330,37243,0
2312,37233,0
2300,37236,0
2260,37220,0
2236,37262,0
2212,37235,0
2208,37245,0
2200,37237,0
2186,37212,0
2192,37257,0
2192,37236,0
2200,37215,0
2208,37259,0
2220,37231,0
2220,37224,0
2229,37238,0
2228,37219,0
2238,37223,0
2228,37230,0
2232,37221,0
2224,37219,0
2217,37234,0
2212,37233,0
2210,37215,0
2264,37205,0
2262,37232,0
2256,37209,0
2256,37197,0
2260,37216,0
2272,37197,0
2228,37181,0
2238,37230,0
2250,37198,0
2270,37191,0
2296,37199,0
2304,37178,0
2312,37190,0
2308,37193,0
2306,37167,0
2304,37188,0
2288,37179,0
2274,37210,0
2260,37182,0
2248,37179,0
2240,37211,0
2228,37179,0
2220,37168,0
2216,37207,0
2216,37176,0
2220,37178,0
2220,37201,0
2228,37179,0
2230,37174,0
2248,37191,0
2240,37184,0
2256,37182,0
2312,37202,0
2314,37183,0
2322,37178,0
2324,37196,0
2340,37195,0
2326,37179,0
2272,37155,0
2256,37202,0
2248,37166,0
2244,37153,0
2250,37181,0
2234,37186,0
2244,37162,0
2248,37175,0
2264,37157,0
2276,37159,0
2281,37188,0
2280,37169,0
2288,37145,0
2288,37184,0
2288,37156,0
2294,37146,0
2288,37194,0
2288,37161,0
2280,37144,0
2276,37185,0
2274,37159,0
2256,37147,0
2250,37181,0
2248,37156,0
2248,37158,0
2236,37174,0
2304,37154,0
2304,37159,0
2304,37171,0
2310,37168,0
2316,37143,0
2320,37151,0
2258,37179,0
2252,37148,0
2232,37135,0
2225,37165,0
2224,37160,0
2216,37148,0
2216,37159,0
2210,37174,0
2224,37163,0
2228,37165,0
2240,37155,0
2112,37150,0
2268,37166,0
2288,37168,0
2320,37158,0
2336,37161,0
2368,37182,0
2396,37150,0
2432,37129,0
2464,37178,0
2496,37159,0
2536,37135,0
2576,37175,0
2616,37147,0
2668,37134,0
2724,37171,0
2864,37157,0
2904,37132,0
2952,37178,0
2981,37152,0
2992,37152,0
3002,37182,0
2916,37149,0
2872,37151,0
2820,37176,0
2764,37138,0
2720,37162,0
2608,37162,0
2544,37172,0
2456,37178,0
2360,37139,0
2252,37189,0
2146,37168,0
2044,37147,0
1948,37184,0
1860,37156,0
1782,37169,0
1720,37187,0
1670,37162,0
1628,37172,0
1600,37196,0
1570,37175,0
1544,37167,0
1540,37196,0
1530,37191,0
1522,37179,0
1520,37169,0
1522,37192,0
1552,37182,0
1552,37159,0
1560,37198,0
1553,37176,0
1552,37162,0
1568,37198,0
1544,37178,0
1548,37173,0
1544,37203,0
1545,37182,0
1549,37177,0
1548,37162,0
1552,37188,0
1552,37192,0
1568,37198,0
1584,37179,0
1604,37182,0
1632,37193,0
1664,37206,0
1680,37183,0
1704,37167,0
1714,37204,0
1736,37182,0
1753,37168,0
1768,37209,0
1786,37187,0
1796,37171,0
1808,37205,0
1816,37198,0
1834,37192,0
1840,37203,0
1836,37181,0
1892,37187,0
1908,37208,0
1916,37188,0
1932,37191,0
1945,37206,0
1974,37210,0
1952,37185,0
1984,37183,0
1992,37216,0
2036,37242,0
2050,37200,0
2058,37210,0
2084,37188,0
2088,37192,0
2088,37201,0
2096,37197,0
2108,37229,0
2122,37191,0
2136,37186,0
2160,37227,0
2172,37197,0
2188,37187,0
2210,37219,0
2220,37196,0
2248,37201,0
2264,37229,0
2296,37208,0
2304,37196,0
2324,37225,0
2328,37213,0
2400,37198,0
2408,37231,0
2408,37209,0
2389,37231,0
2372,37237,0
2357,37227,0
2336,37224,0
2268,37241,0
2248,37226,0
2229,37226,0
2222,37243,0
2228,37242,0
2226,37234,0
2232,37242,0
2240,37245,0
2276,37227,0
2276,37220,0
2284,37256,0
2296,37236,0
2308,37224,0
2312,37263,0
2320,37247,0
2312,37245,0
2312,37274,0
2301,37251,0
2296,37252,0
2302,37271,0
2296,37248,0
2284,37255,0
2280,37273,0
2272,37254,0
2268,37259,0
2272,37268,0
2329,37281,0
2328,37260,0
2332,37259,0
2336,37287,0
2338,37257,0
2346,37239,0
2300,37294,0
2300,37266,0
2292,37258,0
2296,37286,0
2302,37267,0
2288,37270,0
2274,37291,0
2268,37278,0
2258,37275,0
2248,37294,0
2240,37276,0
2236,37294,0
2232,37304,0
2238,37271,0
2244,37286,0
2248,37302,0
2256,37296,0
2264,37283,0
2276,37288,0
2282,37307,0
2296,37287,0
2296,37269,0
2292,37312,0
2300,37290,0
2304,37282,0
2148,37309,0
2360,37287,0
2348,37279,0
2344,37318,0
2340,37299,0
2344,37288,0
2344,37309,0
2296,37294,0
2288,37293,0
2288,37316,0
2284,37291,0
2296,37281,0
2296,37304,0
2296,37284,0
2302,37303,0
2312,37305,0
2312,37298,0
2316,37287,0
2306,37314,0
2302,37295,0
2290,37300,0
2282,37319,0
2272,37298,0
2264,37289,0
2240,37308,0
2234,37306,0
2210,37289,0
2224,37295,0
2224,37309,0
2228,37293,0
2244,37267,0
2244,37309,0
2256,37287,0
2328,37284,0
2344,37295,0
2357,37272,0
2372,37270,0
2384,37293,0
2381,37260,0
2352,37254,0
2330,37279,0
2316,37255,0
2310,37261,0
2312,37236,0
2296,37276,0
2288,37262,0
2280,37245,0
2284,37255,0
2268,37230,0
2272,37235,0
2260,37252,0
2272,37221,0
2272,37219,0
2276,37246,0
2280,37213,0
2276,37205,0
2274,37228,0
2272,37213,0
2272,37213,0
2268,37214,0
2264,37222,0
2260,37195,0
2256,37183,0
2256,37222,0
2256,37188,0
2312,37164,0
2308,37198,0
2314,37173,0
2322,37169,0
2324,37187,0
2330,37168,0
2292,37153,0
2302,37187,0
2310,37151,0
2321,37150,0
2344,37147,0
2344,37152,0
2352,37150,0
2360,37137,0
2354,37151,0
2340,37131,0
2328,37155,0
2320,37150,0
2300,37140,0
2284,37134,0
2276,37142,0
2264,37113,0
2108,37108,0
2256,37132,0
2256,37106,0
2256,37094,0
2256,37119,0
2260,37099,0
2264,37100,0
2264,37128,0
2260,37098,0
2264,37096,0
2322,37112,0
2320,37080,0
2320,37096,0
2304,37093,0
2312,37085,0
2320,37081,0
2272,37071,0
2273,37081,0
2274,37067,0
2282,37039,0
2300,37062,0
2300,37040,0
2316,37065,0
2300,37049,0
2292,37054,0
2296,37030,0
2282,37055,0
2274,37022,0
2272,37026,0
2272,37046,0
2260,37017,0
2256,37018,0
2256,37044,0
2248,37010,0
2244,37016,0
2236,37030,0
2234,36998,0
2228,36995,0
2220,37017,0
2220,37015,0
2216,36994,0
2204,36975,0
2272,37021,0
2272,36981,0
2284,36959,0
2320,37005,0
2306,36972,0
2336,36963,0
2284,37003,0
2290,36966,0
2288,36960,0
2300,36993,0
2316,36972,0
2304,36963,0
2300,36951,0
2288,36955,0
2284,36961,0
2272,36946,0
2264,36984,0
2264,36953,0
2268,36932,0
2266,36979,0
2284,36944,0
2292,36929,0
2308,36975,0
2312,36947,0
2312,36921,0
2322,36962,0
2316,36936,0
2310,36930,0
2298,36957,0
2290,36933,0
2276,36940,0
2264,36956,0
2312,36935,0
2290,36929,0
2280,36959,0
2280,36929,0
2272,36932,0
2276,36948,0
2232,36942,0
2242,36944,0
2251,36927,0
2262,36956,0
2288,36924,0
2280,36929,0
2292,36929,0
2464,36909,0
2312,36927,0
2300,36932,0
2304,36947,0
2308,36939,0
2320,36931,0
2320,36938,0
2304,36956,0
2292,36934,0
2288,36934,0
2272,36958,0
2256,36941,0
2256,36918,0
2240,36959,0
2232,36942,0
2232,36931,0
2232,36955,0
2240,36941,0
2250,36937,0
2324,36960,0
2312,36943,0
2320,36956,0
2306,36966,0
2312,36951,0
2308,36939,0
2246,36957,0
2244,36970,0
2240,36947,0
2244,36998,0
2244,36943,0
2244,36974,0
2258,36972,0
2273,36954,0
2288,36963,0
2308,36972,0
2324,36960,0
2336,36968,0
2338,36975,0
2340,37001,0
2338,36975,0
2328,36960,0
2340,37001,0
2328,36964,0
2328,36959,0
2312,37006,0
2296,36967,0
2284,36974,0
2277,37003,0
2268,36973,0
2312,36977,0
2309,37004,0
2305,36988,0
2304,36988,0
2304,37006,0
2306,36989,0
2304,36999,0
2260,37006,0
2269,36999,0
2261,36994,0
2270,37006,0
2288,36998,0
2292,37004,0
2292,36986,0
2297,37008,0
2300,37008,0
2296,37009,0
2306,36995,0
2292,37031,0
2292,37018,0
2284,37004,0
2288,37029,0
2273,37006,0
2276,37011,0
2272,37039,0
2274,37014,0
2268,37020,0
2288,37039,0
2296,37021,0
2302,37025,0
2304,37033,0
2314,37044,0
2308,37028,0
2356,37020,0
2353,37046,0
2338,37032,0
2324,37017,0
2320,37055,0
2314,37035,0
2240,37013,0
2236,37055,0
2236,37039,0
2222,37034,0
2236,37045,0
2256,37044,0
2250,37049,0
2258,37048,0
2268,37052,0
2272,37048,0
2284,37067,0
2292,37072,0
2300,37063,0
2312,37050,0
2304,37067,0
2296,37080,0
2292,37064,0
2276,37047,0
2264,37088,0
2258,37066,0
2248,37062,0
2248,37094,0
2248,37072,0
2242,37082,0
2248,37096,0
2260,37083,0
2320,37089,0
2330,37113,0
2324,37092,0
2328,37086,0
2332,37112,0
2340,37104,0
2274,37092,0
2272,37095,0
2260,37125,0
2253,37106,0
2258,37115,0
2236,37100,0
2250,37113,0
2232,37109,0
2224,37140,0
2218,37130,0
2226,37115,0
2234,37106,0
2240,37141,0
2252,37117,0
2272,37124,0
2288,37148,0
2292,37115,0
2312,37123,0
2324,37140,0
2328,37126,0
2336,37140,0
2338,37136,0
2329,37151,0
2304,37127,0
2300,37108,0
2284,37159,0
2336,37126,0
2324,37126,0
2320,37157,0
2304,37125,0
2296,37126,0
2292,37154,0
2234,37134,0
2238,37129,0
2236,37140,0
2252,37128,0
2268,37143,0
2284,37136,0
2296,37140,0
2304,37143,0
2320,37144,0
2336,37134,0
2340,37125,0
2332,37159,0
2324,37131,0
2304,37113,0
2296,37145,0
2272,37121,0
2260,37111,0
2244,37132,0
2240,37124,0
2224,37110,0
2232,37130,0
2385,37116,0
2232,37114,0
2248,37142,0
2257,37122,0
2276,37108,0
2352,37124,0
2376,37117,0
2396,37109,0
2418,37129,0
2428,37127,0
2438,37101,0
2384,37097,0
2382,37116,0
2386,37104,0
2386,37097,0
2384,37114,0
2388,37097,0
2364,37098,0
2348,37110,0
2328,37120,0
2300,37080,0
2288,37115,0
2260,37093,0
2248,37083,0
2232,37117,0
2224,37078,0
2192,37092,0
2208,37097,0
2196,37095,0
2202,37085,0
2192,37080,0
2192,37110,0
2200,37086,0
2196,37061,0
2200,37107,0
2204,37075,0
2212,37067,0
2272,37108,0
2277,37072,0
2284,37069,0
2289,37107,0
2304,37069,0
2312,37072,0
2261,37085,0
2272,37073,0
2274,37078,0
2280,37099,0
2288,37067,0
2280,37064,0
2288,37069,0
2280,37070,0
2268,37088,0
2272,37047,0
2252,37076,0
2248,37061,0
2244,37052,0
2234,37078,0
2224,37067,0
2224,37058,0
2236,37083,0
2240,37059,0
2250,37055,0
2265,37073,0
2280,37076,0
2284,37056,0
2296,37045,0
2300,37074,0
2300,37058,0
2300,37042,0
2354,37070,0
2340,37040,0
2332,37046,0
2332,37061,0
2324,37045,0
2306,37051,0
2240,37069,0
2234,37055,0
2230,37052,0
2232,37030,0
2240,37038,0
2236,37069,0
2252,37056,0
2252,37040,0
2268,37036,0
2276,37034,0
2296,37053,0
2298,37033,0
2300,37041,0
2298,37042,0
2304,37037,0
2296,37029,0
2284,37031,0
2280,37057,0
2256,37027,0
2248,37008,0
2236,37055,0
2232,37014,0
2224,37011,0
2228,37048,0
2240,37028,0
2242,37017,0
2324,37044,0
2336,37019,0
2372,37028,0
2388,37047,0
2396,37023,0
2380,37030,0
2328,37043,0
2320,37028,0
2304,37030,0
2292,37047,0
2280,37050,0
2260,37044,0
2280,37022,0
2252,37041,0
2220,37040,0
2204,37006,0
2185,37052,0
2178,37024,0
2184,37015,0
2184,37052,0
2200,37027,0
2216,37031,0
2244,37050,0
2272,37035,0
2316,37043,0
2340,37060,0
2368,37044,0
2388,37041,0
2400,37046,0
2404,37065,0
2400,37039,0
2396,37034,0
2452,37070,0
2450,37044,0
2453,37032,0
2458,37068,0
2472,37046,0
2512,37052,0
2496,37075,0
2560,37053,0
2640,37059,0
2804,37121,0
2888,37046,0
2936,37057,0
2980,37060,0
2992,37061,0
3000,37047,0
2968,37088,0
2912,37051,0
2840,37033,0
2744,37088,0
2640,37056,0
2528,37042,0
2402,37088,0
2280,37071,0
2152,37074,0
2040,37087,0
1940,37073,0
1840,37073,0
1776,37080,0
1720,37090,0
1690,37068,0
1688,37072,0
1666,37096,0
1660,37079,0
1648,37055,0
1644,37099,0
1632,37072,0
1636,37079,0
1588,37104,0
1577,37090,0
1553,37077,0
1546,37105,0
1548,37121,0
1540,37112,0
1540,37094,0
1538,37082,0
1542,37086,0
1552,37075,0
1556,37125,0
1560,37100,0
1568,37097,0
1580,37121,0
1596,37105,0
1602,37103,0
1625,37122,0
1640,37093,0
1640,37109,0
1652,37138,0
1670,37107,0
1681,37124,0
1684,37136,0
1696,37137,0
1709,37118,0
1728,37106,0
1776,37143,0
1792,37125,0
1812,37100,0
1834,37151,0
1857,37115,0
1876,37122,0
1874,37151,0
1886,37117,0
1892,37137,0
1906,37146,0
1920,37129,0
1936,37137,0
1952,37150,0
1964,37121,0
1986,37156,0
2000,37138,0
2020,37129,0
2040,37164,0
2060,37141,0
2080,37129,0
2088,37147,0
2112,37136,0
2128,37126,0
2144,37156,0
2164,37137,0
2184,37154,0
2208,37153,0
2216,37147,0
2232,37147,0
2240,37160,0
2244,37162,0
2248,37143,0
2304,37148,0
2312,37172,0
2320,37147,0
2325,37134,0
2338,37168,0
2346,37136,0
2296,37141,0
2310,37166,0
2288,37151,0
2282,37151,0
2292,37166,0
2284,37153,0
2288,37160,0
2288,37156,0
2288,37152,0
2288,37152,0
2288,37152,0
2296,37174,0
2301,37165,0
2304,37158,0
2304,37161,0
2309,37179,0
2304,37157,0
2306,37141,0
2298,37180,0
2292,37167,0
2288,37150,0
2288,37188,0
2290,37166,0
2288,37173,0
2281,37180,0
2288,37161,0
2336,37165,0
2338,37195,0
2336,37162,0
2336,37166,0
2336,37190,0
2332,37192,0
2265,37164,0
2260,37156,0
2250,37199,0
2240,37168,0
2248,37172,0
2244,37188,0
2252,37178,0
2264,37179,0
2264,37179,0
2272,37181,0
2272,37183,0
2284,37196,0
2292,37191,0
2300,37174,0
2320,37163,0
2324,37205,0
2336,37182,0
2352,37157,0
2348,37204,0
2360,37181,0
2352,37166,0
2352,37202,0
2236,37181,0
2328,37185,0
2320,37208,0
2306,37179,0
2354,37189,0
2336,37210,0
2326,37206,0
2324,37194,0
2312,37180,0
2310,37213,0
2268,37195,0
2278,37172,0
2280,37220,0
2286,37190,0
2314,37174,0
2320,37182,0
2328,37205,0
2332,37188,0
2344,37202,0
2344,37189,0
2340,37179,0
2330,37217,0
2320,37197,0
2304,37184,0
2280,37223,0
2264,37187,0
2250,37187,0
2224,37219,0
2208,37200,0
2194,37201,0
2192,37219,0
2192,37189,0
2196,37212,0
2196,37225,0
2210,37209,0
2220,37204,0
2290,37225,0
2308,37218,0
2332,37189,0
2352,37185,0
2374,37221,0
2380,37206,0
2336,37170,0
2333,37214,0
2316,37186,0
2308,37179,0
2308,37218,0
2290,37194,0
2296,37194,0
2280,37186,0
2288,37206,0
2292,37176,0
2292,37196,0
2300,37189,0
2308,37180,0
2308,37159,0
2308,37201,0
2305,37163,0
2300,37151,0
2144,37178,0
2280,37161,0
2268,37152,0
2260,37172,0
2246,37157,0
2252,37150,0
2256,37170,0
2248,37140,0
2248,37138,0
2308,37148,0
2312,37152,0
2312,37124,0
2324,37109,0
2332,37153,0
2344,37113,0
2312,37103,0
2314,37144,0
2316,37102,0
2320,37081,0
2330,37088,0
2320,37088,0
2320,37089,0
2304,37092,0
2308,37109,0
2290,37084,0
2284,37058,0
2272,37092,0
2256,37073,0
2248,37065,0
2240,37088,0
2236,37054,0
2236,37051,0
2240,37082,0
2248,37056,0
2261,37049,0
2272,37054,0
2284,37057,0
2292,37031,0
2300,37017,0
2304,37051,0
2320,37030,0
2384,36999,0
2368,37046,0
2368,37018,0
2352,37003,0
2338,37029,0
2330,36993,0
2260,37006,0
2265,37016,0
2256,37005,0
2250,36987,0
2258,37004,0
2272,36992,0
2272,37003,0
2272,36972,0
2268,36979,0
2272,37002,0
2276,36966,0
2290,36947,0
2300,36980,0
2304,36958,0
2316,36939,0
2312,36982,0
2308,36952,0
2306,36948,0
2308,36954,0
2296,36933,0
2284,36939,0
2276,36953,0
2280,36928,0
2272,36935,0
2264,36943,0
2272,36919,0
2344,36922,0
2336,36936,0
2344,36922,0
2352,36912,0
2354,36907,0
2356,36926,0
2300,36905,0
2300,36890,0
2288,36925,0
2272,36863,0
2260,36897,0
2236,36879,0
2228,36882,0
2234,36885,0
2220,36913,0
2228,36883,0
2228,36873,0
2236,36895,0
2250,36880,0
2257,36867,0
2280,36900,0
2284,36877,0
2304,36876,0
2296,36890,0
2316,36870,0
2300,36875,0
2308,36894,0
2304,36884,0
2298,36864,0
2296,36857,0
2344,36889,0
2346,36868,0
2344,36854,0
2357,36885,0
2348,36863,0
2352,36852,0
2360,36882,0
2306,36849,0
2308,36855,0
2306,36890,0
2312,36868,0
2320,36863,0
2312,36877,0
2304,36857,0
2296,36877,0
2290,36884,0
2284,36874,0
2280,36857,0
2280,36865,0
2272,36873,0
2268,36867,0
2260,36861,0
2264,36867,0
2248,36893,0
2244,36866,0
2240,36847,0
2244,36900,0
2264,36863,0
2256,36852,0
2272,36893,0
2268,36860,0
2272,36856,0
2280,36878,0
2346,36872,0
2344,36860,0
2354,36890,0
2364,36866,0
2352,36866,0
2344,36891,0
2288,36864,0
2288,36884,0
2274,36895,0
2268,36894,0
2274,36902,0
2260,36884,0
2256,36889,0
2256,36892,0
2260,36884,0
2272,36898,0
2293,36892,0
2292,36900,0
2300,36922,0
2310,36896,0
2328,36887,0
2320,36916,0
2328,36898,0
2320,36895,0
2320,36920,0
2308,36898,0
2303,36904,0
2296,36929,0
2288,36909,0
2288,36900,0
2276,36932,0
2272,36913,0
2324,36918,0
2328,36931,0
2324,36926,0
2330,36923,0
2338,36937,0
2338,36946,0
2282,36925,0
2284,36919,0
2272,36961,0
2262,36928,0
2272,36999,0
2300,37004,0
2292,36984,0
2304,36971,0
2314,37007,0
2324,36986,0
2336,36994,0
2336,37009,0
2336,36991,0
2329,37007,0
2332,37016,0
2324,37016,0
2320,36997,0
2312,37000,0
2304,37024,0
2290,37005,0
2290,36977,0
2280,37028,0
2288,37001,0
2290,36991,0
2296,37033,0
2308,37010,0
2316,37001,0
2336,37045,0
2350,37020,0
2368,37024,0
2377,37040,0
2384,37029,0
2388,37029,0
2328,37049,0
2320,37039,0
2308,37027,0
2302,37022,0
2416,37044,0
2288,37044,0
2282,37044,0
2264,37044,0
2248,37050,0
2236,37050,0
2234,37050,0
2236,37050,0
2244,37050,0
2246,37050,0
2260,37050,0
2272,37083,0
2280,37029,0
2298,37029,0
2302,37029,0
2320,37029,0
2322,37029,0
2328,37029,0
2325,37080,0
2324,37048,0
2316,37048,0
2292,37048,0
2344,37048,0
2328,37048,0
2320,37048,0
2308,37048,0
2296,37055,0
2288,37055,0
2240,37055,0
2240,37055,0
2244,37055,0
2264,37055,0
2280,37099,0
2280,37088,0
2280,37065,0
2292,37056,0
2296,37078,0
2304,37062,0
2308,37072,0
2312,37101,0
2314,37067,0
2320,37064,0
2316,37082,0
2312,37073,0
2288,37065,0
2292,37066,0
2280,37089,0
2264,37054,0
2256,37047,0
2256,37087,0
2252,37053,0
2256,37066,0
2264,37082,0
2264,37046,0
2328,37058,0
2332,37076,0
2337,37045,0
2340,37060,0
2362,37068,0
2352,37055,0
2280,37068,0
2282,37060,0
2284,37078,0
2280,37056,0
2284,37045,0
2288,37071,0
2302,37046,0
2312,37052,0
2328,37069,0
2336,37056,0
2367,37054,0
2348,37050,0
2389,37063,0
2368,37044,0
2392,37033,0
2348,37065,0
2352,37033,0
2320,37018,0
2376,37065,0
2360,37045,0
2345,37028,0
2340,37058,0
2336,37034,0
2340,37041,0
2330,37047,0
2336,37027,0
2336,37042,0
2336,37053,0
2282,37046,0
2281,37028,0
2278,37012,0
2282,37055,0
2280,37029,0
2260,37011,0
2256,37024,0
2248,37029,0
2244,37020,0
2224,37017,0
2224,37043,0
2216,37026,0
2212,37023,0
2360,37052,0
2208,37029,0
2208,37027,0
2200,37043,0
2208,37035,0
2224,37019,0
2240,37027,0
2248,37051,0
2260,37017,0
2272,37004,0
2284,37048,0
2288,37025,0
2284,37013,0
2344,37033,0
2340,37022,0
2356,37021,0
2336,37033,0
2345,37023,0
2328,37024,0
2264,37032,0
2252,37036,0
2239,37019,0
2248,37003,0
2248,37009,0
2240,37015,0
2228,37015,0
2260,37013,0
2266,37033,0
2280,37014,0
2280,37000,0
2288,37034,0
2296,37002,0
2288,37007,0
2290,37025,0
2296,37007,0
2296,37007,0
2288,37010,0
2296,37034,0
2272,36998,0
2284,36987,0
2272,37010,0
2284,36997,0
2280,36988,0
2344,37022,0
2345,36996,0
2352,37004,0
2344,37017,0
2344,36987,0
2344,37000,0
2338,37027,0
2296,36998,0
2288,36992,0
2278,37019,0
2273,37001,0
2280,37003,0
2268,36998,0
2264,36982,0
2256,37008,0
2256,36989,0
2260,37015,0
2258,37002,0
2256,37009,0
2256,37004,0
2253,37029,0
2268,37007,0
2260,36989,0
2272,37022,0
2280,37009,0
2284,36980,0
2292,37017,0
2292,36998,0
2280,37001,0
2280,37025,0
2272,37009,0
2257,37018,0
2244,37030,0
2304,37026,0
2284,37004,0
2274,37012,0
2280,37050,0
2284,37014,0
2296,37003,0
2265,37044,0
2282,37007,0
2304,37018,0
2324,37043,0
2242,37021,0
2384,37026,0
2408,37017,0
2424,37020,0
2444,37023,0
2468,37034,0
2480,37048,0
2504,37045,0
2532,37034,0
2568,37044,0
2604,37060,0
2660,37033,0
2708,37029,0
2760,37064,0
2814,37039,0
2856,37027,0
2896,37059,0
2924,37045,0
2956,37042,0
2928,37061,0
2888,37041,0
2842,37054,0
2856,37073,0
2768,37059,0
2672,37057,0
2564,37050,0
2460,37082,0
2336,37046,0
2164,37041,0
2066,37069,0
1961,37054,0
1858,37050,0
1800,37075,0
1740,37073,0
1690,37078,0
1656,37076,0
1632,37071,0
1628,37074,0
1624,37067,0
1616,37057,0
1616,37093,0
1616,37068,0
1604,37063,0
1608,37086,0
1616,37069,0
1616,37072,0
1610,37100,0
1608,37081,0
1596,37078,0
1604,37108,0
1592,37084,0
1586,37077,0
1596,37100,0
1592,37098,0
1636,37076,0
1648,37079,0
1652,37108,0
1670,37075,0
1689,37062,0
1708,37093,0
1700,37086,0
1726,37076,0
1754,37096,0
1764,37072,0
1800,37092,0
1810,37111,0
1828,37075,0
1840,37102,0
1848,37089,0
1864,37102,0
1872,37090,0
1884,37087,0
1892,37121,0
1904,37100,0
1917,37100,0
1952,37086,0
1962,37112,0
1988,37095,0
1994,37081,0
2012,37116,0
2032,37095,0
2052,37086,0
2058,37111,0
2068,37090,0
2080,37107,0
2100,37117,0
2164,37114,0
2184,37104,0
2196,37091,0
2208,37125,0
2220,37113,0
2240,37083,0
2192,37119,0
2200,37112,0
2212,37102,0
2224,37127,0
2240,37102,0
2264,37127,0
2272,37129,0
2284,37116,0
2300,37103,0
2316,37109,0
2312,37138,0
2314,37129,0
2316,37110,0
2312,37137,0
2306,37129,0
2296,37127,0
2288,37147,0
2280,37118,0
2284,37127,0
2280,37154,0
2284,37149,0
2268,37126,0
2296,37125,0
2300,37156,0
2304,37142,0
2312,37126,0
2384,37162,0
2384,37132,0
2408,37139,0
2390,37166,0
2389,37146,0
2384,37140,0
2324,37169,0
2312,37172,0
2294,37142,0
2273,37138,0
2272,37162,0
2260,37165,0
2248,37174,0
2228,37161,0
2224,37170,0
2216,37150,0
2216,37145,0
2216,37188,0
2226,37159,0
2240,37149,0
2264,37192,0
2280,37163,0
2298,37163,0
2308,37179,0
2320,37167,0
2321,37171,0
2332,37200,0
2330,37186,0
2336,37173,0
2336,37172,0
2336,37210,0
2324,37179,0
2376,37154,0
2368,37202,0
2362,37175,0
2354,37170,0
2344,37212,0
2336,37179,0
2280,37176,0
2280,37211,0
2284,37184,0
2288,37173,0
2292,37198,0
2296,37201,0
2304,37184,0
2320,37193,0
2320,37205,0
2336,37187,0
2328,37211,0
2320,37207,0
2316,37180,0
2308,37184,0
2308,37218,0
2296,37189,0
2282,37176,0
2276,37215,0
2436,37185,0
2266,37179,0
2264,37217,0
2264,37195,0
2272,37189,0
2276,37213,0
2276,37201,0
2292,37201,0
2352,37218,0
2352,37209,0
2332,37198,0
2329,37187,0
2324,37220,0
2328,37206,0
2258,37193,0
2260,37222,0
2264,37198,0
2256,37198,0
2264,37206,0
2268,37210,0
2282,37204,0
2292,37223,0
2312,37204,0
2330,37197,0
2336,37214,0
2336,37201,0
2348,37199,0
2340,37210,0
2348,37224,0
2336,37196,0
2348,37178,0
2324,37211,0
2320,37193,0
2300,37181,0
2284,37216,0
2272,37186,0
2250,37199,0
2228,37204,0
2216,37200,0
2212,37188,0
2264,37188,0
2268,37205,0
2276,37167,0
2290,37156,0
2297,37189,0
2336,37159,0
2277,37149,0
2296,37186,0
2300,37164,0
2328,37065,0
2328,37160,0
2344,37180,0
2340,37159,0
2330,37164,0
2324,37138,0
2312,37159,0
2300,37133,0
2288,37140,0
2272,37165,0
2272,37130,0
2264,37131,0
2264,37140,0
2272,37155,0
2266,37125,0
2280,37108,0
2284,37137,0
2292,37104,0
2314,37104,0
2314,37139,0
2320,37099,0
2384,37096,0
2372,37114,0
2368,37090,0
2352,37087,0
2348,37093,0
2344,37082,0
2340,37077,0
2276,37073,0
2273,37103,0
2269,37067,0
2266,37052,0
2280,37065,0
2276,37064,0
2288,37047,0
2280,37036,0
2288,37052,0
2288,37053,0
2280,37069,0
2281,37044,0
2276,37006,0
2272,37066,0
2256,37027,0
2252,37016,0
2248,37044,0
2256,37018,0
2250,37018,0
2256,37038,0
2258,37042,0
2268,37009,0
2280,36987,0
2284,37029,0
2288,37001,0
2296,36981,0
2368,37017,0
2372,36983,0
2380,36983,0
2380,37009,0
2381,36974,0
2388,36972,0
2329,36988,0
2324,36984,0
2306,36956,0
2304,36969,0
2300,36957,0
2288,36972,0
2280,36960,0
2265,36968,0
2260,36957,0
2250,36950,0
2240,36947,0
2232,36974,0
2216,36960,0
2220,36922,0
2224,36963,0
2228,36940,0
2228,36929,0
2230,36963,0
2234,36929,0
2246,36938,0
2240,36962,0
2248,36935,0
2252,36930,0
2250,36934,0
2260,36947,0
2260,36923,0
2328,36916,0
2328,36943,0
2336,36933,0
2336,36917,0
2344,36944,0
2346,36918,0
2300,36917,0
2306,36938,0
2316,36916,0
2320,36917,0
2340,36898,0
2328,36915,0
2324,36928,0
2322,36913,0
2316,36915,0
2312,36903,0
2304,36920,0
2298,36940,0
2282,36918,0
2268,36922,0
2256,36935,0
2240,36909,0
2228,36915,0
2220,36932,0
2212,36937,0
2212,36912,0
2228,36902,0
2240,36938,0
2244,36917,0
2272,36902,0
2288,36943,0
2296,36919,0
2360,36914,0
2368,36943,0
2376,36906,0
2376,36918,0
2392,36947,0
2376,36927,0
2320,36926,0
2308,36948,0
2300,36930,0
2276,36925,0
2272,36930,0
2248,36904,0
2248,36931,0
2240,36943,0
2244,36927,0
2252,36955,0
2260,36933,0
2260,36939,0
2273,36962,0
2284,36942,0
2302,36937,0
2312,36959,0
2328,36959,0
2336,36955,0
2340,36926,0
2338,36965,0
2328,36958,0
2336,36939,0
2324,36975,0
2302,36947,0
2296,36958,0
2276,36982,0
2324,36959,0
2312,36964,0
2306,36976,0
2308,36974,0
2310,36960,0
2312,36950,0
2264,37002,0
2271,36970,0
2274,36971,0
2276,36988,0
2300,36974,0
2296,36981,0
2304,36996,0
2312,36986,0
2320,36927,0
2302,36990,0
2288,37004,0
2281,36983,0
2276,36994,0
2276,37009,0
2260,37002,0
2264,36996,0
2258,36999,0
2256,37032,0
2260,37006,0
2264,36977,0
2272,37026,0
2280,37006,0
2280,36997,0
2282,37038,0
2280,37016,0
2280,37019,0
2336,37035,0
2330,37020,0
2324,37020,0
2320,37021,0
2324,37040,0
2324,37028,0
2268,37010,0
2266,37047,0
2266,37032,0
2268,37031,0
2280,37042,0
2284,37031,0
2280,37030,0
2284,37040,0
2288,37072,0
2288,37056,0
2296,37053,0
2292,37056,0
2288,37081,0
2288,37043,0
2288,37034,0
2296,37081,0
2288,37054,0
2284,37052,0
2290,37091,0
2282,37069,0
2272,37065,0
2264,37077,0
2256,37079,0
2248,37069,0
2242,37072,0
2252,37094,0
2312,37076,0
2322,37062,0
2360,37099,0
2352,37072,0
2362,37086,0
2368,37107,0
2312,37081,0
2308,37078,0
2300,37100,0
2288,37088,0
2280,37064,0
2260,37078,0
2252,37100,0
2236,37082,0
2232,37096,0
2224,37066,0
2228,37118,0
2240,37095,0
2244,37086,0
2256,37123,0
2272,37107,0
2280,37108,0
2296,37132,0
2288,37107,0
2312,37109,0
2320,37121,0
2324,37131,0
2324,37112,0
2336,37095,0
2324,37146,0
2316,37109,0
2306,37097,0
2356,37130,0
2354,37118,0
2344,37101,0
2337,37142,0
2338,37130,0
2322,37130,0
2258,37141,0
2258,37124,0
2248,37119,0
2252,37140,0
2260,37150,0
2260,37155,0
2264,37130,0
2274,37138,0
2272,37122,0
2272,37110,0
2280,37150,0
2269,37127,0
2272,37118,0
2276,37154,0
2272,37135,0
2272,37134,0
2268,37161,0
2272,37142,0
2272,37134,0
2280,37147,0
2288,37147,0
2300,37123,0
2300,37121,0
2308,37158,0
2314,37142,0
2320,37109,0
2384,37151,0
2380,37134,0
2380,37125,0
2372,37153,0
2360,37125,0
2348,37124,0
2276,37154,0
2266,37131,0
2250,37133,0
2244,37080,0
2240,37134,0
2240,37148,0
2236,37137,0
2256,37122,0
2256,37118,0
2260,37136,0
2280,37119,0
2282,37119,0
2284,37130,0
2308,37135,0
2312,37114,0
2301,37097,0
2304,37136,0
2292,37115,0
2288,37085,0
2288,37123,0
2298,37112,0
2296,37108,0
2300,37119,0
2312,37097,0
2384,37097,0
2396,37111,0
2408,37116,0
2412,37099,0
2420,37078,0
2424,37119,0
2420,37091,0
2360,37076,0
2360,37112,0
2350,37086,0
2345,37080,0
2336,37080,0
2320,37073,0
2312,37081,0
2300,37076,0
2284,37069,0
2276,37063,0
2264,37099,0
2248,37068,0
2240,37050,0
2240,37091,0
2236,37064,0
2226,37071,0
2232,37095,0
2236,37065,0
2240,37066,0
2244,37089,0
2256,37067,0
2260,37067,0
2256,37051,0
2256,37095,0
2266,37066,0
2246,37048,0
2292,37078,0
2293,37064,0
2274,37054,0
2260,37084,0
2256,37049,0
2244,37066,0
2208,37082,0
2190,37062,0
2192,37070,0
2194,37080,0
2216,37055,0
2224,37067,0
2248,37070,0
2256,37058,0
2280,37098,0
2288,37060,0
2300,37077,0
2298,37067,0
2308,37060,0
2312,37088,0
2306,37061,0
2308,37058,0
2320,37054,0
2314,37084,0
2304,37061,0
2296,37046,0
2284,37090,0
2280,37056,0
2272,37050,0
2264,37074,0
2266,37047,0
2260,37060,0
2320,37077,0
2324,37054,0
2316,37060,0
2328,37068,0
2328,37068,0
2340,37057,0
2290,37053,0
2286,37076,0
2268,37060,0
2269,37037,0
2272,37066,0
2112,37058,0
2256,37069,0
2252,37069,0
2248,37053,0
2240,37054,0
2232,37054,0
2226,37065,0
2248,37080,0
2248,37054,0
2260,37044,0
2264,37072,0
2280,37050,0
2288,37047,0
2296,37078,0
2296,37054,0
2304,37065,0
2304,37080,0
2298,37065,0
2292,37053,0
2280,37037,0
2276,37074,0
2336,37055,0
2312,37043,0
2304,37082,0
2284,37050,0
2276,37049,0
2272,37076,0
2213,37049,0
2218,37058,0
2222,37081,0
2230,37059,0
2248,37080,0
2256,37060,0
2272,37044,0
2276,37072,0
2292,37057,0
2296,37077,0
2312,37058,0
2316,37052,0
2324,37068,0
2336,37066,0
2344,37064,0
2356,37067,0
2356,37088,0
2368,37061,0
2384,37046,0
2412,37087,0
2440,37058,0
2456,37064,0
2492,37083,0
2544,37064,0
2596,37067,0
2664,37080,0
2800,37074,0
2860,37074,0
2928,37086,0
2972,37089,0
3012,37053,0
3028,37057,0
2936,37103,0
2906,37079,0
2848,37067,0
2788,37105,0
2728,37078,0
2636,37085,0
2548,37082,0
2460,37077,0
2360,37097,0
2268,37108,0
2184,37091,0
2100,37091,0
2021,37092,0
1958,37114,0
1904,37092,0
1852,37065,0
1824,37115,0
1790,37088,0
1756,37092,0
1738,37113,0
1716,37099,0
1688,37105,0
1672,37111,0
1648,37125,0
1632,37102,0
1624,37086,0
1642,37124,0
1632,37103,0
1624,37093,0
1624,37131,0
1628,37107,0
1637,37122,0
1613,37131,0
1614,37119,0
1621,37109,0
1624,37140,0
1640,37128,0
1640,37119,0
1648,37126,0
1656,37115,0
1658,37134,0
1664,37108,0
1680,37143,0
1692,37117,0
1712,37117,0
1728,37147,0
1752,37124,0
1773,37126,0
1800,37153,0
1828,37138,0
1864,37142,0
1884,37158,0
1914,37157,0
1922,37138,0
1936,37146,0
1936,37159,0
1948,37137,0
1956,37126,0
2008,37168,0
2012,37149,0
2016,37142,0
2024,37172,0
2048,37145,0
2048,37140,0
2012,37167,0
2018,37149,0
2030,37134,0
2050,37175,0
2080,37152,0
2086,37174,0
2108,37170,0
2122,37151,0
2132,37158,0
2160,37157,0
2180,37164,0
2192,37177,0
2208,37159,0
2224,37143,0
2238,37190,0
2256,37161,0
2278,37138,0
2292,37179,0
2288,37155,0
2284,37158,0
2290,37181,0
2296,37155,0
2288,37165,0
2282,37161,0
2284,37191,0
2288,37169,0
2348,37150,0
2344,37187,0
2410,37160,0
2354,37167,0
2356,37180,0
2358,37166,0
2296,37176,0
2304,37188,0
2290,37174,0
2292,37172,0
2284,37183,0
2276,37181,0
2272,37193,0
2282,37189,0
2260,37174,0
2248,37184,0
2260,37192,0
2268,37192,0
2280,37176,0
2304,37157,0
2328,37209,0
2324,37172,0
2336,37165,0
2344,37204,0
2340,37178,0
2337,37189,0
2344,37205,0
2330,37185,0
2324,37190,0
2312,37214,0
2300,37204,0
2296,37191,0
2344,37183,0
2340,37218,0
2336,37202,0
2336,37178,0
2330,37222,0
2340,37195,0
2280,37186,0
2278,37218,0
2274,37199,0
2276,37236,0
2260,37194,0
2272,37217,0
2276,37192,0
2284,37205,0
2298,37185,0
2292,37226,0
2290,37197,0
2290,37191,0
2288,37232,0
2280,37200,0
2272,37212,0
2264,37226,0
2272,37232,0
2266,37214,0
2276,37185,0
2280,37243,0
2288,37214,0
2294,37203,0
2304,37242,0
2312,37217,0
2372,37219,0
2388,37236,0
2381,37217,0
2381,37223,0
2384,37233,0
2374,37237,0
2368,37230,0
2308,37229,0
2300,37242,0
2282,37222,0
2270,37213,0
2264,37236,0
2260,37237,0
2256,37212,0
2248,37252,0
2252,37246,0
2256,37255,0
2268,37225,0
2272,37212,0
2288,37250,0
2288,37234,0
2296,37214,0
2308,37256,0
2312,37226,0
2312,37235,0
2312,37251,0
2312,37242,0
2308,37229,0
2304,37246,0
2288,37254,0
2274,37227,0
2272,37218,0
2272,37252,0
2324,37237,0
2316,37222,0
2314,37254,0
2320,37237,0
2320,37223,0
2328,37247,0
2280,37225,0
2280,37229,0
2276,37241,0
2268,37240,0
2272,37206,0
2266,37226,0
2268,37219,0
2268,37204,0
2276,37210,0
2280,37204,0
2272,37205,0
2270,37217,0
2260,37188,0
2260,37189,0
2264,37210,0
2264,37190,0
2266,37177,0
2280,37160,0
2284,37204,0
2301,37165,0
2304,37163,0
2316,37184,0
2312,37161,0
2308,37160,0
2312,37180,0
2312,37162,0
2372,37156,0
2372,37150,0
2368,37165,0
2360,37140,0
2348,37108,0
2340,37160,0
2280,37134,0
2282,37111,0
2278,37147,0
2276,37125,0
2284,37118,0
2288,37107,0
2288,37082,0
2288,37095,0
2288,37111,0
2296,37124,0
2292,37086,0
2288,37092,0
2292,37114,0
2288,37081,0
2284,37085,0
2276,37105,0
2266,37075,0
2256,37071,0
2248,37070,0
2246,37088,0
2232,37072,0
2240,37049,0
2240,37078,0
2249,37058,0
2256,37039,0
2274,37078,0
2344,37053,0
2360,37041,0
2376,37072,0
2388,37034,0
2400,37037,0
2408,37056,0
2348,37045,0
2338,37037,0
2332,37049,0
2318,37042,0
2320,37048,0
2296,37036,0
2284,37015,0
2276,37001,0
2260,37007,0
2256,37012,0
2240,37046,0
2250,37008,0
2248,36981,0
2264,37033,0
2268,37001,0
2276,36997,0
2296,37030,0
2308,36991,0
2304,36999,0
2306,37008,0
2304,36998,0
2296,36988,0
2292,37002,0
2276,37004,0
2272,36989,0
2260,36962,0
2304,37007,0
2280,36971,0
2274,36980,0
2256,37002,0
2246,36979,0
2245,36986,0
2188,36998,0
2196,36972,0
2192,36974,0
2202,36975,0
2224,36967,0
2232,36982,0
2240,36983,0
2250,36974,0
2268,36978,0
2282,36968,0
2288,36986,0
2296,36956,0
2296,36962,0
2304,36967,0
2302,36984,0
2300,36955,0
2284,36945,0
2280,36986,0
2284,36953,0
2285,36948,0
2284,36989,0
2292,36953,0
2306,36959,0
2300,36981,0
2304,36959,0
2312,36963,0
2368,36965,0
2360,36980,0
2360,36952,0
2362,36939,0
2356,36986,0
2354,36955,0
2288,36955,0
2288,36978,0
2274,36958,0
2268,36955,0
2272,36975,0
2268,36969,0
2272,36958,0
2272,36957,0
2272,36984,0
2274,36955,0
2276,36946,0
2276,36989,0
2280,36965,0
2280,36976,0
2284,36989,0
2268,36970,0
2272,36966,0
2274,36969,0
2276,36991,0
2272,36966,0
2280,36950,0
2276,36987,0
2288,36972,0
2282,36968,0
2296,37001,0
2296,36972,0
2360,36976,0
2356,36992,0
2368,36975,0
2369,36975,0
2369,36971,0
2369,37003,0
2312,36975,0
2320,36960,0
2292,36996,0
2310,36986,0
2300,36978,0
2292,36990,0
2280,36996,0
2264,36997,0
2268,36975,0
2256,37015,0
2256,36997,0
2244,36983,0
2240,37013,0
2238,36995,0
2236,36996,0
2228,37017,0
2232,37005,0
2232,36998,0
2232,37023,0
2234,37010,0
2248,37006,0
2248,37004,0
2249,37033,0
2266,37001,0
2440,36994,0
2268,37027,0
2320,37010,0
2312,36988,0
2308,37041,0
2312,37012,0
2293,37014,0
2288,37043,0
2232,37022,0
2252,37028,0
2234,37051,0
2240,37050,0
2258,37036,0
2264,37006,0
2282,37045,0
2304,37040,0
2324,37036,0
2340,37033,0
2360,37066,0
2362,37033,0
2372,37037,0
2352,37074,0
2352,37051,0
2340,37054,0
2328,37081,0
2306,37055,0
2312,37055,0
2300,37083,0
2268,37090,0
2264,37058,0
2256,37050,0
2249,37088,0
2248,37070,0
2248,37051,0
2304,37096,0
2304,37083,0
2308,37081,0
2312,37106,0
2314,37083,0
2322,37096,0
2268,37083,0
2262,37119,0
2256,37086,0
2264,37170,0
2260,37098,0
2245,37123,0
2236,37110,0
2242,37102,0
2244,37087,0
2248,37135,0
2260,37105,0
2276,37111,0
2292,37137,0
2306,37119,0
2332,37113,0
2328,37134,0
2348,37142,0
2344,37119,0
2356,37109,0
2340,37157,0
2336,37131,0
2324,37113,0
2312,37157,0
2292,37139,0
2336,37134,0
2313,37162,0
2304,37138,0
2294,37149,0
2284,37157,0
2276,37176,0
2277,37164,0
2240,37140,0
2232,37188,0
2238,37150,0
2240,37151,0
2252,37170,0
2250,37177,0
2264,37160,0
2280,37176,0
2288,37170,0
2292,37146,0
2290,37194,0
2296,37175,0
2296,37177,0
2296,37202,0
2300,37187,0
2308,37191,0
2300,37195,0
2300,37199,0
2292,37188,0
2296,37172,0
2296,37216,0
2288,37187,0
2288,37172,0
2296,37207,0
2288,37183,0
2288,37184,0
2340,37203,0
2340,37188,0
2354,37192,0
2320,37193,0
2310,37213,0
2304,37190,0
2232,37174,0
2221,37218,0
2206,37185,0
2200,37194,0
2212,37197,0
2220,37195,0
2224,37194,0
2228,37189,0
2252,37192,0
2262,37194,0
2272,37186,0
2288,37200,0
2288,37218,0
2296,37197,0
2304,37177,0
2293,37217,0
2289,37188,0
2288,37186,0
2288,37220,0
2284,37191,0
2282,37182,0
2280,37199,0
2288,37198,0
2288,37185,0
2284,37171,0
2282,37203,0
2348,37182,0
2360,37161,0
2372,37201,0
2384,37180,0
2404,37180,0
2420,37203,0
2372,37188,0
2384,37172,0
2377,37184,0
2376,37195,0
2372,37169,0
2360,37182,0
2338,37172,0
2328,37158,0
2296,37177,0
2280,37171,0
2256,37194,0
2240,37181,0
2232,37176,0
2232,37194,0
2216,37194,0
2218,37181,0
2226,37151,0
2216,37198,0
2208,37170,0
2208,37169,0
2210,37197,0
2212,37179,0
2228,37183,0
2216,37167,0
2216,37198,0
2212,37178,0
2258,37152,0
2256,37199,0
2272,37167,0
2274,37172,0
2288,37192,0
2284,37180,0
2242,37174,0
2253,37178,0
2264,37195,0
2274,37166,0
2292,37178,0
2304,37189,0
2480,37175,0
2316,37174,0
2314,37180,0
2322,37160,0
2320,37181,0
2320,37178,0
2312,37159,0
2290,37137,0
2292,37179,0
2276,37161,0
2276,37151,0
2276,37176,0
2264,37150,0
2256,37156,0
2252,37169,0
2256,37164,0
2256,37145,0
2250,37147,0
2256,37182,0
2268,37144,0
2336,37125,0
2344,37162,0
2344,37137,0
2352,37143,0
2354,37171,0
2352,37149,0
2292,37137,0
2274,37160,0
2262,37152,0
2250,37137,0
2240,37121,0
2228,37133,0
2224,37155,0
2220,37143,0
2216,37140,0
2224,37154,0
2216,37130,0
2224,37130,0
2232,37158,0
2244,37137,0
2260,37125,0
2256,37150,0
2274,37136,0
2280,37136,0
2274,37166,0
2272,37127,0
2272,37137,0
2268,37165,0
2252,37137,0
2256,37140,0
2242,37141,0
2232,37156,0
2288,37135,0
2288,37126,0
2288,37160,0
2290,37141,0
2304,37136,0
2314,37161,0
2266,37145,0
2272,37145,0
2278,37159,0
2276,37151,0
2284,37146,0
2276,37171,0
2282,37146,0
2280,37129,0
2276,37163,0
2277,37163,0
2280,37154,0
2292,37143,0
2308,37126,0
2320,37173,0
2320,37146,0
2336,37140,0
2330,37172,0
2338,37144,0
2340,37145,0
2361,37165,0
2380,37162,0
2388,37143,0
2404,37136,0
2420,37167,0
2448,37145,0
2480,37149,0
2592,37162,0
2640,37153,0
2704,37158,0
2756,37172,0
2822,37162,0
2874,37149,0
2848,37133,0
2865,37181,0
2872,37150,0
2860,37140,0
2864,37161,0
2812,37131,0
2772,37170,0
2716,37161,0
2656,37177,0
2576,37163,0
2496,37155,0
2406,37193,0
2336,37160,0
2224,37140,0
2148,37183,0
2064,37157,0
1992,37149,0
1932,37182,0
1884,37167,0
1840,37176,0
1800,37188,0
1776,37171,0
1732,37174,0
1704,37195,0
1690,37195,0
1664,37177,0
1682,37165,0
1680,37197,0
1664,37176,0
1656,37160,0
1648,37200,0
1640,37178,0
1620,37181,0
1609,37203,0
1604,37183,0
1604,37178,0
1612,37201,0
1613,37169,0
1617,37186,0
1612,37172,0
1624,37183,0
1624,37183,0
1624,37200,0
1644,37186,0
1650,37188,0
1670,37195,0
1690,37209,0
1712,37181,0
1732,37174,0
1764,37222,0
1768,37183,0
1796,37187,0
1812,37213,0
1832,37178,0
1842,37195,0
1868,37206,0
1882,37202,0
1904,37180,0
1960,37174,0
1978,37209,0
1978,37192,0
1984,37198,0
1992,37222,0
2006,37188,0
1962,37183,0
1970,37214,0
1980,37210,0
2022,37208,0
2046,37199,0
2072,37197,0
2084,37184,0
2116,37205,0
2144,37192,0
2160,37212,0
2192,37225,0
2188,37202,0
2204,37184,0
2212,37223,0
2216,37201,0
2224,37193,0
2232,37220,0
2236,37196,0
2240,37200,0
2240,37221,0
2248,37199,0
2240,37206,0
2266,37221,0
2264,37223,0
2328,37208,0
2346,37190,0
2352,37239,0
2356,37202,0
2368,37202,0
2360,37237,0
2352,37197,0
2296,37202,0
2292,37229,0
2280,37207,0
2274,37222,0
2264,37208,0
2258,37203,0
2252,37196,0
2245,37220,0
2250,37232,0
2252,37217,0
2256,37211,0
2264,37244,0
2280,37219,0
2288,37226,0
2324,37227,0
2312,37240,0
2324,37227,0
2328,37209,0
2328,37244,0
2336,37221,0
2328,37209,0
2312,37248,0
2306,37227,0
2306,37229,0
2296,37249,0
2280,37243,0
2324,37235,0
2328,37217,0
2308,37246,0
2312,37221,0
2304,37218,0
2314,37249,0
2260,37231,0
2266,37219,0
2272,37254,0
2278,37231,0
2300,37251,0
2302,37239,0
2316,37254,0
2324,37238,0
2332,37258,0
2320,37237,0
2312,37265,0
2304,37235,0
2304,37242,0
2296,37259,0
2288,37259,0
2280,37244,0
2272,37240,0
2288,37268,0
2280,37247,0
2276,37234,0
2282,37268,0
2288,37243,0
2296,37239,0
2300,37273,0
2292,37241,0
2300,37248,0
2352,37276,0
2352,37260,0
2344,37253,0
2336,37266,0
2330,37270,0
2328,37259,0
2268,37237,0
2270,37292,0
2260,37252,0
2256,37247,0
2272,37283,0
2264,37288,0
2274,37267,0
2280,37249,0
2290,37263,0
2293,37264,0
2300,37242,0
2168,37298,0
2308,37264,0
2296,37262,0
2296,37286,0
2296,37277,0
2280,37265,0
2268,37284,0
2280,37270,0
2260,37277,0
2264,37293,0
2250,37270,0
2248,37271,0
2250,37248,0
2244,37286,0
2248,37251,0
2296,37252,0
2300,37288,0
2312,37259,0
2316,37262,0
2320,37274,0
2342,37249,0
2284,37255,0
2296,37261,0
2280,37271,0
2280,37250,0
2284,37241,0
2256,37219,0
2272,37221,0
2264,37259,0
2264,37242,0
2248,37242,0
2244,37226,0
2244,37211,0
2256,37240,0
2244,37201,0
2248,37205,0
2268,37224,0
2272,37207,0
2276,37194,0
2288,37187,0
2292,37212,0
2292,37180,0
2296,37166,0
2300,37185,0
2304,37176,0
2300,37174,0
2304,37185,0
2352,37165,0
2348,37160,0
2345,37138,0
2352,37167,0
2336,37143,0
2337,37128,0
2280,37143,0
2266,37118,0
2257,37118,0
2272,37134,0
2264,37118,0
2280,37130,0
2264,37089,0
2276,37112,0
2282,37242,0
2292,37096,0
2292,37083,0
2292,37091,0
2308,37097,0
2300,37070,0
2304,37061,0
2296,37081,0
2296,37056,0
2284,37057,0
2280,37079,0
2276,37061,0
2276,37056,0
2272,37030,0
2280,37068,0
2276,37029,0
2280,37026,0
2280,37063,0
2344,37027,0
2336,37027,0
2340,37044,0
2338,37023,0
2340,37012,0
2336,37013,0
2282,37034,0
2269,37003,0
2256,36992,0
2248,37029,0
2248,37006,0
2240,37024,0
2228,36986,0
2232,37005,0
2242,37015,0
2264,37011,0
2264,36986,0
2284,36978,0
2308,37001,0
2288,36984,0
2296,36981,0
2292,36960,0
2289,36989,0
2296,36970,0
2288,36959,0
2292,36987,0
2288,36947,0
2288,36962,0
2268,36979,0
2260,36958,0
2252,36944,0
2240,36933,0
2292,36966,0
2274,36942,0
2276,36922,0
2276,36958,0
2281,36936,0
2282,36932,0
2240,36957,0
2246,36929,0
2252,36937,0
2256,36922,0
2280,36921,0
2282,36922,0
2290,36942,0
2292,36937,0
2296,36941,0
2288,36916,0
2288,36907,0
2280,36936,0
2272,36914,0
2264,36900,0
2258,36922,0
2248,36901,0
2240,36910,0
2232,36928,0
2232,36919,0
2232,36908,0
2244,36894,0
2252,36934,0
2264,36905,0
2276,36892,0
2276,36930,0
2280,36908,0
2340,36909,0
2342,36924,0
2344,36906,0
2346,36915,0
2348,36914,0
2340,36930,0
2296,36913,0
2288,36888,0
2284,36942,0
2276,36902,0
2288,36920,0
2288,36939,0
2288,36929,0
2288,36905,0
2300,36915,0
2290,36911,0
2292,36940,0
2296,36927,0
2302,36909,0
2303,36934,0
2300,36926,0
2300,36924,0
2292,36944,0
2280,36939,0
2264,36926,0
2256,36911,0
2248,36955,0
2242,36923,0
2236,36920,0
2228,36956,0
2228,36931,0
2090,36935,0
2288,36955,0
2304,36942,0
2304,36939,0
2310,36933,0
2328,36963,0
2332,36939,0
2288,36936,0
2294,36967,0
2288,36939,0
2296,36979,0
2292,36940,0
2280,36969,0
2264,36946,0
2258,36941,0
2236,36944,0
2228,36943,0
2232,36973,0
2224,36943,0
2216,36956,0
2216,36970,0
2234,36967,0
2242,36954,0
2256,36933,0
2276,36972,0
2282,36955,0
2296,36941,0
2300,36983,0
2300,36962,0
2320,36964,0
2312,36971,0
2352,36974,0
2338,36958,0
2340,36943,0
2336,36980,0
2324,36962,0
2313,36956,0
2304,36974,0
2250,36970,0
2241,36970,0
2240,36988,0
2244,36971,0
2260,36979,0
2264,36947,0
2276,36970,0
2282,36994,0
2296,36982,0
2304,36965,0
2312,37010,0
2320,36980,0
2316,36980,0
2314,37001,0
2320,36988,0
2314,36995,0
2292,36995,0
2290,37028,0
2268,36990,0
2248,36992,0
2240,37021,0
2232,37003,0
2224,37013,0
2228,37036,0
2224,37008,0
2232,37009,0
2280,37039,0
2278,37033,0
2304,37018,0
2290,37006,0
2298,37050,0
2308,37033,0
2260,37028,0
2260,37053,0
2252,37026,0
2252,37044,0
2260,37040,0
2256,37033,0
2256,37047,0
2268,37034,0
2280,37039,0
2284,37067,0
2288,37046,0
2296,37052,0
2312,37079,0
2302,37059,0
2308,37065,0
2312,37077,0
2176,37073,0
2290,37071,0
2288,37074,0
2286,37098,0
2284,37068,0
2276,37046,0
2264,37090,0
2260,37071,0
2268,37075,0
2256,37103,0
2304,37092,0
2304,37091,0
2320,37085,0
2305,37104,0
2304,37083,0
2310,37074,0
2272,37102,0
2266,37092,0
2256,37077,0
2256,37106,0
2272,37075,0
2264,37111,0
2352,37126,0
2256,37094,0
2256,37104,0
2256,37092,0
2240,37098,0
2248,37112,0
2248,37111,0
2256,37112,0
2240,37090,0
2236,37123,0
2232,37106,0
2232,37106,0
2234,37126,0
2240,37094,0
2244,37111,0
2256,37114,0
2273,37127,0
2272,37106,0
2288,37100,0
2288,37129,0
2360,37106,0
2356,37114,0
2353,37128,0
2361,37118,0
2352,37121,0
2356,37136,0
2292,37128,0
2280,37111,0
2269,37110,0
2260,37148,0
2268,37149,0
2256,37123,0
2250,37116,0
2256,37128,0
2264,37128,0
2280,37117,0
2284,37125,0
2290,37148,0
2296,37131,0
2302,37122,0
2304,37147,0
2312,37150,0
2314,37136,0
2312,37117,0
2312,37157,0
2300,37123,0
2292,37128,0
2284,37153,0
2264,37127,0
2248,37123,0
2229,37143,0
2212,37139,0
2264,37126,0
2272,37114,0
2276,37154,0
2292,37129,0
2298,37120,0
2320,37147,0
2276,37124,0
2289,37129,0
2290,37142,0
2306,37131,0
2324,37136,0
2328,37145,0
2332,37117,0
2500,37127,0
2328,37128,0
2316,37126,0
2306,37100,0
2288,37148,0
2280,37117,0
2262,37101,0
2264,37127,0
2256,37105,0
2258,37113,0
2258,37133,0
2256,37115,0
2256,37095,0
2260,37104,0
2260,37124,0
2260,37100,0
2256,37096,0
2256,37120,0
2256,37104,0
2308,37102,0
2304,37080,0
2304,37119,0
2288,37090,0
2282,37081,0
2282,37131,0
2220,37086,0
2219,37096,0
2208,37113,0
2210,37099,0
2220,37080,0
2218,37069,0
2220,37071,0
2228,37093,0
2240,37109,0
2248,37103,0
2256,37086,0
2256,37091,0
2264,37101,0
2264,37105,0
2256,37086,0
2268,37073,0
2252,37099,0
2252,37077,0
2248,37068,0
2256,37097,0
2268,37075,0
2276,37070,0
2280,37093,0
2290,37088,0
2292,37069,0
2290,37067,0
2352,37103,0
2354,37087,0
2348,37063,0
2352,37091,0
2348,37071,0
2346,37075,0
2378,37098,0
2288,37089,0
2258,37075,0
2230,37062,0
2232,37068,0
2212,37089,0
2200,37085,0
2196,37092,0
2200,37072,0
2208,37099,0
2200,37073,0
2208,37077,0
2224,37087,0
2244,37088,0
2272,37086,0
2288,37068,0
2296,37090,0
2312,37078,0
2308,37074,0
2320,37103,0
2320,37062,0
2316,37076,0
2312,37105,0
2308,37087,0
2301,37074,0
2288,37079,0
2352,37103,0
2332,37077,0
2322,37054,0
2314,37096,0
2304,37070,0
2304,37068,0
2260,37098,0
2261,37077,0
2248,37081,0
2262,37088,0
2260,37081,0
2252,37087,0
2248,37057,0
2240,37072,0
2236,37062,0
2224,37088,0
2216,37072,0
2208,37072,0
2208,37081,0
2196,37096,0
2194,37077,0
2200,37054,0
2218,37098,0
2226,37068,0
2256,37075,0
2280,37092,0
2320,37072,0
2348,37083,0
2368,37100,0
2384,37086,0
2408,37080,0
2416,37064,0
2488,37102,0
2480,37080,0
2468,37074,0
2456,37102,0
2448,37091,0
2452,37086,0
2392,37099,0
2400,37089,0
2426,37094,0
2536,37144,0
2602,37091,0
2668,37087,0
2744,37084,0
2808,37106,0
2864,37114,0
2896,37113,0
2920,37094,0
2908,37085,0
2888,37126,0
2840,37093,0
2788,37085,0
2692,37131,0
2608,37098,0
2504,37108,0
2404,37129,0
2288,37108,0
2180,37118,0
2064,37118,0
1980,37144,0
1896,37119,0
1872,37097,0
1808,37136,0
1764,37119,0
1722,37128,0
1692,37152,0
1669,37133,0
1652,37135,0
1616,37135,0
1608,37151,0
1600,37138,0
1610,37118,0
1606,37144,0
1600,37142,0
1596,37140,0
1593,37140,0
1592,37148,0
1588,37138,0
1588,37174,0
1576,37151,0
1576,37154,0
1574,37178,0
1584,37152,0
1593,37163,0
1596,37180,0
1616,37179,0
1628,37176,0
1646,37152,0
1666,37183,0
1540,37169,0
1690,37168,0
1718,37192,0
1746,37160,0
1754,37175,0
1804,37189,0
1816,37193,0
1828,37176,0
1821,37182,0
1828,37195,0
1836,37174,0
1804,37164,0
1816,37194,0
1836,37171,0
1840,37183,0
1868,37177,0
1881,37183,0
1900,37178,0
1928,37186,0
1936,37188,0
1954,37169,0
1972,37210,0
1984,37185,0
2004,37189,0
2028,37210,0
2040,37184,0
2056,37186,0
2068,37199,0
2096,37211,0
2092,37185,0
2100,37171,0
2116,37211,0
2128,37178,0
2144,37186,0
2148,37211,0
2154,37186,0
2192,37193,0
2242,37215,0
2260,37208,0
2272,37184,0
2284,37186,0
2294,37218,0
2298,37192,0
2258,37188,0
2270,37223,0
2260,37204,0
2260,37204,0
2265,37187,0
2262,37198,0
2260,37190,0
2264,37201,0
2258,37219,0
2245,37192,0
2256,37226,0
2260,37198,0
2256,37206,0
2261,37223,0
2260,37215,0
2256,37221,0
2258,37222,0
2256,37236,0
2256,37214,0
2260,37195,0
2268,37232,0
2268,37210,0
2264,37214,0
2266,37239,0
2264,37222,0
2272,37218,0
2316,37232,0
2328,37249,0
2324,37216,0
2332,37212,0
2340,37236,0
2356,37220,0
2304,37223,0
2304,37252,0
2306,37225,0
2336,37241,0
2324,37235,0
2314,37261,0
2316,37247,0
2312,37239,0
2312,37251,0
2316,37254,0
2288,37239,0
2284,37247,0
2276,37255,0
2266,37251,0
2252,37247,0
2252,37233,0
2258,37260,0
2244,37253,0
2248,37246,0
2249,37274,0
2264,37250,0
2268,37256,0
2272,37273,0
2280,37279,0
2280,37253,0
2273,37237,0
2328,37282,0
2340,37262,0
2332,37262,0
2320,37280,0
2316,37261,0
2300,37268,0
2244,37281,0
2244,37275,0
2232,37259,0
2236,37251,0
2252,37277,0
2256,37267,0
2304,37271,0
2288,37285,0
2308,37276,0
2332,37278,0
2336,37259,0
2356,37297,0
2336,37274,0
2328,37290,0
2326,37302,0
2316,37285,0
2296,37284,0
2280,37284,0
2256,37302,0
2244,37282,0
2228,37260,0
2220,37309,0
2216,37281,0
2216,37280,0
2210,37306,0
2224,37277,0
2288,37290,0
2296,37269,0
2312,37312,0
2320,37272,0
2328,37267,0
2328,37297,0
2276,37279,0
2276,37281,0
2268,37303,0
2267,37289,0
2272,37263,0
2264,37278,0
2258,37259,0
2252,37285,0
2256,37313,0
2248,37284,0
2248,37260,0
2252,37271,0
2258,37267,0
2264,37285,0
2272,37257,0
2280,37240,0
2288,37274,0
2292,37250,0
2289,37248,0
2296,37258,0
2296,37251,0
2290,37235,0
2292,37207,0
2288,37254,0
2290,37217,0
2288,37216,0
2340,37236,0
2336,37210,0
2332,37214,0
2322,37223,0
2322,37220,0
2336,37200,0
2272,37179,0
2282,37211,0
2274,37185,0
2272,37186,0
2288,37185,0
2280,37162,0
2288,37163,0
2282,37154,0
2282,37187,0
2284,37165,0
2274,37159,0
2280,37135,0
2272,37172,0
2272,37137,0
2280,37133,0
2278,37158,0
2284,37134,0
2280,37126,0
2284,37152,0
2284,37140,0
2288,37124,0
2288,37107,0
2288,37134,0
2300,37101,0
2300,37092,0
2298,37119,0
2368,37105,0
2368,37102,0
2352,37111,0
2348,37111,0
2356,37083,0
2326,37067,0
2272,37098,0
2257,37075,0
2241,37070,0
2232,37082,0
2234,37070,0
2224,37062,0
2220,37055,0
2224,37081,0
2220,37068,0
2220,37041,0
2224,37040,0
2234,37060,0
2242,37034,0
2252,37036,0
2258,37055,0
2276,37036,0
2288,37025,0
2298,37016,0
2297,37037,0
2300,37012,0
2296,37004,0
2288,37027,0
2282,36997,0
2273,37003,0
2268,37020,0
2260,36996,0
2304,36986,0
2306,36987,0
2304,36995,0
2312,36978,0
2324,36965,0
2336,36989,0
2292,36973,0
2300,36973,0
2300,36985,0
2304,36944,0
2304,36987,0
2292,36972,0
2300,36956,0
2288,36958,0
2280,36972,0
2272,36949,0
2256,36925,0
2244,36957,0
2232,36938,0
2216,36934,0
2216,36955,0
2204,36931,0
2212,36939,0
2220,36956,0
2232,36947,0
2240,36929,0
2258,36917,0
2268,36949,0
2292,36931,0
2300,36912,0
2368,36947,0
2378,36920,0
2376,36929,0
2384,36931,0
2380,36932,0
2376,36924,0
2368,36906,0
2296,36943,0
2278,36920,0
2258,36925,0
2248,36948,0
2248,36944,0
2242,36941,0
2236,36917,0
2234,36902,0
2248,36917,0
2236,36930,0
2232,36930,0
2237,36952,0
2240,36926,0
2244,36902,0
2248,36941,0
2248,36928,0
2256,36931,0
2264,36955,0
2268,36932,0
2272,36934,0
2284,36945,0
2288,36953,0
2304,36931,0
2308,36915,0
2312,36969,0
2306,36948,0
2360,36942,0
2348,36967,0
2349,36945,0
2332,36948,0
2330,36962,0
2324,36964,0
2260,36953,0
2245,36938,0
2236,36977,0
2238,36956,0
2242,36978,0
2234,36967,0
2258,36960,0
2244,36954,0
2244,36958,0
2242,36991,0
2244,36969,0
2244,36974,0
2256,36977,0
2260,36994,0
2264,36976,0
2276,36962,0
2276,37000,0
2288,36985,0
2280,36987,0
2292,37004,0
2274,36981,0
2268,36987,0
2268,36998,0
2264,37010,0
2248,36991,0
2240,36967,0
2296,37006,0
2297,36994,0
2296,36998,0
2290,37006,0
2304,37009,0
2304,36998,0
2256,36991,0
2268,37029,0
2274,36989,0
2292,36993,0
2300,37014,0
2306,37007,0
2308,37021,0
2322,36978,0
2336,36992,0
2328,37016,0
2324,36988,0
2320,37027,0
2312,37010,0
2300,37007,0
2288,37033,0
2264,37016,0
2248,37020,0
2088,37020,0
2228,37043,0
2220,37011,0
2212,37005,0
2216,37041,0
2224,37026,0
2228,37019,0
2236,37038,0
2237,37028,0
2304,37016,0
2296,37043,0
2298,37049,0
2312,37029,0
2309,37009,0
2316,37053,0
2264,37029,0
2268,37035,0
2264,37052,0
2260,37034,0
2264,37065,0
2248,37043,0
2244,37053,0
2240,37055,0
2232,37050,0
2228,37070,0
2224,37042,0
2234,37036,0
2241,37059,0
2252,37052,0
2264,37052,0
2284,37065,0
2282,37064,0
2284,37058,0
2284,37026,0
2286,37070,0
2304,37054,0
2278,37060,0
2264,37076,0
2264,37059,0
2250,37066,0
2234,37056,0
2276,37089,0
2272,37069,0
2260,37055,0
2258,37088,0
2256,37076,0
2264,37071,0
2213,37097,0
2212,37082,0
2216,37083,0
2224,37077,0
2236,37088,0
2244,37063,0
2248,37081,0
2256,37083,0
2268,37050,0
2260,37096,0
2272,37087,0
2268,37094,0
2268,37133,0
2272,37096,0
2272,37091,0
2268,37122,0
2268,37113,0
2264,37120,0
2272,37143,0
2268,37132,0
2284,37121,0
2284,37112,0
2304,37144,0
2312,37123,0
2290,37121,0
2288,37154,0
2346,37128,0
2336,37129,0
2336,37159,0
2330,37135,0
2336,37143,0
2324,37146,0
2266,37166,0
2268,37140,0
2248,37128,0
2244,37170,0
2252,37148,0
2248,37131,0
2256,37158,0
2260,37151,0
2128,37193,0
2256,37150,0
2272,37144,0
2284,37153,0
2296,37175,0
2304,37142,0
2312,37130,0
2312,37173,0
2312,37144,0
2296,37159,0
2288,37175,0
2276,37156,0
2264,37150,0
2244,37162,0
2228,37187,0
2218,37152,0
2210,37137,0
2216,37180,0
2288,37147,0
2306,37146,0
2328,37169,0
2354,37146,0
2372,37157,0
2400,37163,0
2360,37165,0
2368,37144,0
2372,37125,0
2382,37164,0
2376,37158,0
2352,37139,0
2362,37150,0
2320,37137,0
2312,37141,0
2282,37124,0
2272,37164,0
2252,37128,0
2244,37129,0
2240,37150,0
2240,37126,0
2232,37133,0
2250,37130,0
2244,37149,0
2252,37109,0
2244,37115,0
2244,37136,0
2240,37116,0
2240,37113,0
2244,37134,0
2236,37114,0
2224,37110,0
2280,37114,0
2268,37134,0
2252,37111,0
2244,37098,0
2240,37119,0
2232,37099,0
2180,37109,0
2172,37119,0
2172,37110,0
2173,37089,0
2188,37098,0
2200,37108,0
2208,37097,0
2226,37095,0
2244,37117,0
2252,37095,0
2264,37089,0
2268,37081,0
2280,37101,0
2280,37069,0
2280,37077,0
2276,37099,0
2268,37073,0
2264,37073,0
2256,37098,0
2252,37092,0
2258,37067,0
2256,37062,0
2248,37093,0
2257,37072,0
2256,37053,0
2264,37082,0
2320,37066,0
2320,37065,0
2324,37077,0
2316,37055,0
2316,37054,0
2320,37075,0
2260,37070,0
2256,37052,0
2250,37047,0
2242,37021,0
2260,37049,0
2236,37034,0
2236,37059,0
2240,37044,0
2250,37051,0
2248,37061,0
2264,37047,0
2260,37033,0
2261,37057,0
2260,37024,0
2264,37037,0
2260,37045,0
2272,37035,0
2268,37035,0
2268,37036,0
2268,37050,0
2264,37026,0
2264,37021,0
2272,37051,0
2264,37026,0
2320,37022,0
2328,37051,0
2320,37042,0
2320,37023,0
2312,37017,0
2320,37048,0
2312,37030,0
2266,37015,0
2272,37039,0
2264,37020,0
2260,37026,0
2268,37021,0
2252,37047,0
2240,37026,0
2228,37002,0
2220,37028,0
2210,37017,0
2208,37024,0
2200,37034,0
2200,37010,0
2204,37022,0
2201,37029,0
2210,37052,0
2216,37028,0
2234,36998,0
2248,37017,0
2264,37011,0
2288,37014,0
2302,37029,0
2324,37020,0
2336,37012,0
2360,37010,0
2358,37043,0
2440,37009,0
2464,36999,0
2476,37023,0
2514,37002,0
2550,37016,0
2602,37033,0
2592,37015,0
2648,37001,0
2704,36990,0
2753,37027,0
2816,37004,0
2856,37003,0
2880,37002,0
2888,37004,0
2872,37024,0
2842,37009,0
2794,37022,0
2724,37019,0
2640,37011,0
2540,36989,0
2456,37028,0
2340,37009,0
2236,36997,0
2128,37032,0
2032,37001,0
1962,37014,0
1888,37017,0
1828,37032,0
1652,37008,0
1757,36991,0
1740,37027,0
1720,36998,0
1744,37003,0
1740,37021,0
1729,37048,0
1725,37006,0
1732,36998,0
1720,37032,0
1682,37005,0
1673,37004,0
1668,37033,0
1657,37004,0
1660,37000,0
1648,37023,0
1640,37022,0
1644,37003,0
1628,37011,0
1624,37004,0
1618,37012,0
1618,37028,0
1610,37026,0
1624,37012,0
1624,36995,0
1637,37017,0
1644,37006,0
1668,37001,0
1676,37021,0
1692,37001,0
1704,37009,0
1720,37016,0
1740,37027,0
1749,36997,0
1764,37000,0
1776,37021,0
1834,37006,0
1852,36997,0
1866,37024,0
1884,37008,0
1896,37000,0
1920,36990,0
1889,37020,0
1905,36986,0
1916,36991,0
1938,37023,0
1964,36993,0
1986,36995,0
2000,37018,0
2008,37013,0
2020,36996,0
2025,36975,0
2032,37009,0
2040,36982,0
2040,36997,0
2042,37007,0
2040,37002,0
2047,36996,0
2056,36980,0
2052,37023,0
2064,36994,0
2082,36975,0
2096,37014,0
2112,36990,0
2130,36994,0
2144,37007,0
2160,36988,0
2176,36988,0
2256,36989,0
2256,37010,0
2276,36990,0
2292,36983,0
2297,37010,0
2304,36987,0
2252,36993,0
2266,37014,0
2253,36993,0
2252,36997,0
2252,36991,0
2236,36995,0
2236,37011,0
2224,36993,0
2228,36996,0
2232,36982,0
2252,37020,0
2260,37001,0
2274,36990,0
2292,37020,0
2296,36993,0
2302,37001,0
2320,37009,0
2312,37025,0
2312,37006,0
2308,36984,0
2302,37024,0
2296,36997,0
2284,37000,0
2276,37027,0
2264,37010,0
2252,37011,0
2300,37004,0
2294,37025,0
2280,37003,0
2266,36987,0
2274,37026,0
2266,37012,0
2212,36995,0
2224,37029,0
2222,37010,0
2228,37016,0
2256,37016,0
2264,37022,0
2276,37017,0
2304,37023,0
2292,37027,0
2288,37040,0
2292,37016,0
2288,36999,0
2280,37043,0
2272,37012,0
2256,37016,0
2256,37043,0
2248,37022,0
2242,37024,0
2252,37041,0
2258,37034,0
2272,37034,0
2276,37013,0
2288,37053,0
2290,37033,0
2292,37025,0
2296,37053,0
2360,37019,0
2352,37036,0
2356,37036,0
2346,37058,0
2336,37041,0
2328,37022,0
2264,37065,0
2253,37044,0
2243,37050,0
2244,37076,0
2240,37053,0
2258,37059,0
2248,37071,0
2248,37055,0
2256,37099,0
2266,37070,0
2272,37063,0
2280,37102,0
2288,37066,0
2290,37069,0
2292,37104,0
2296,37080,0
2288,37081,0
2272,37112,0
2264,37098,0
2252,37094,0
2256,37109,0
2240,37130,0
2242,37101,0
2250,37084,0
2236,37120,0
2248,37109,0
2316,37101,0
2326,37133,0
2333,37104,0
2356,37118,0
2352,37140,0
2362,37126,0
2300,37121,0
2294,37122,0
2285,37138,0
2274,37114,0
2112,37128,0
2256,37131,0
2228,37138,0
2224,37105,0
2208,37104,0
2200,37134,0
2208,37115,0
2212,37104,0
2220,37131,0
2224,37112,0
2234,37113,0
2252,37128,0
2264,37104,0
2276,37101,0
2276,37095,0
2288,37122,0
2288,37091,0
2296,37065,0
2296,37099,0
2300,37077,0
2290,37081,0
2282,37081,0
2336,37063,0
2328,37061,0
2316,37059,0
2316,37066,0
2320,37033,0
2312,37024,0
2268,37060,0
2267,37019,0
2265,37015,0
2288,36817,0
2292,37014,0
2300,37021,0
2308,37007,0
2303,36982,0
2308,36986,0
2308,36984,0
2312,36991,0
2298,36958,0
2300,36944,0
2292,36970,0
2304,36943,0
2284,36940,0
2280,36957,0
2264,36917,0
2260,36930,0
2252,36916,0
2256,36928,0
2248,36901,0
2268,36878,0
2272,36919,0
2324,36884,0
2324,36866,0
2328,36887,0
2328,36857,0
2324,36862,0
2316,36859,0
2306,36856,0
2256,36844,0
2244,36825,0
2232,36861,0
2224,36827,0
2216,36817,0
2208,36840,0
2196,36811,0
2192,36810,0
2188,36794,0
2188,36824,0
2186,36795,0
2192,36773,0
2202,36809,0
2224,36779,0
2228,36774,0
2244,36800,0
2258,36773,0
2264,36772,0
2274,36782,0
2272,36775,0
2272,36762,0
2280,36743,0
2276,36779,0
2276,36741,0
2272,36737,0
2266,36758,0
2336,36738,0
2328,36735,0
2328,36759,0
2336,36730,0
2336,36733,0
2324,36720,0
2280,36744,0
2252,36720,0
2240,36711,0
2234,36743,0
2248,36720,0
2232,36707,0
2224,36716,0
2224,36729,0
2224,36732,0
2224,36700,0
2224,36710,0
2228,36733,0
2226,36710,0
2240,36722,0
2232,36734,0
2240,36706,0
2248,36714,0
2260,36709,0
2258,36745,0
2281,36709,0
2274,36702,0
2284,36725,0
2292,36707,0
2308,36711,0
2292,36722,0
2300,36715,0
2336,36702,0
2336,36686,0
2338,36736,0
2328,36700,0
2321,36708,0
2320,36724,0
2266,36693,0
2254,36701,0
2240,36719,0
2232,36722,0
2232,36697,0
2228,36719,0
2232,36717,0
2240,36690,0
2248,36687,0
2252,36721,0
2274,36693,0
2280,36692,0
2280,36730,0
2280,36692,0
2288,36703,0
2288,36723,0
2288,36710,0
2276,36694,0
2264,36684,0
2256,36727,0
2248,36690,0
2248,36692,0
2256,36722,0
2248,36698,0
2256,36700,0
2256,36724,0
2312,36711,0
2320,36702,0
2328,36684,0
2336,36732,0
2342,36700,0
2346,36692,0
2292,36728,0
2282,36700,0
2272,36703,0
2258,36726,0
2264,36725,0
2234,36704,0
2228,36732,0
2220,36729,0
2202,36710,0
2192,36736,0
2186,36718,0
2196,36717,0
2192,36734,0
2208,36752,0
2212,36716,0
2232,36702,0
2244,36752,0
2250,36726,0
2428,36732,0
2272,36755,0
2264,36753,0
2272,36750,0
2264,36742,0
2264,36768,0
2258,36747,0
2256,36740,0
2296,36780,0
2281,36748,0
2274,36756,0
2264,36774,0
2264,36759,0
2272,36766,0
2232,36769,0
2233,36798,0
2237,36765,0
2242,36772,0
2268,36790,0
2276,36790,0
2298,36781,0
2304,36775,0
2312,36710,0
2312,36796,0
2309,36817,0
2304,36808,0
2308,36799,0
2288,36774,0
2304,36822,0
2276,36808,0
2260,36809,0
2248,36833,0
2232,36814,0
2234,36819,0
2220,36817,0
2216,36840,0
2208,36820,0
2208,36805,0
2208,36842,0
2220,36814,0
2280,36828,0
2294,36840,0
2296,36840,0
2298,36827,0
2322,36815,0
2320,36859,0
2266,36835,0
2267,36822,0
2260,36858,0
2248,36840,0
2256,36827,0
2242,36843,0
2240,36849,0
2244,36846,0
2248,36852,0
2240,36842,0
2240,36856,0
2236,36876,0
2242,36853,0
2248,36843,0
2242,36869,0
2256,36848,0
2244,36846,0
2256,36874,0
2256,36866,0
2264,36855,0
2260,36862,0
2256,36888,0
2252,36853,0
2252,36852,0
2236,36874,0
2232,36853,0
2280,36873,0
2284,36882,0
2284,36873,0
2288,36857,0
2298,36853,0
2304,36903,0
2266,36868,0
2264,36864,0
2266,36894,0
2270,36867,0
2284,36873,0
2280,36873,0
2276,36901,0
2268,36878,0
2264,36895,0
2262,36906,0
2248,36884,0
2244,36866,0
2240,36908,0
2244,36888,0
2249,36892,0
2248,36912,0
2256,36888,0
2256,36913,0
2264,36920,0
2260,36915,0
2276,36896,0
2284,36875,0
2288,36934,0
2288,36905,0
2284,36906,0
2276,36938,0
2336,36915,0
2324,36920,0
2308,36932,0
2298,36941,0
2298,36924,0
2284,36905,0
2238,36944,0
2212,36922,0
2198,36925,0
2193,36949,0
2192,36944,0
2200,36921,0
2212,36956,0
2224,36963,0
2248,36953,0
2258,36934,0
2268,36940,0
2270,36959,0
2288,36958,0
2290,36931,0
2296,36927,0
2296,36955,0
2292,36930,0
2289,36937,0
2280,36957,0
2272,36944,0
2256,36942,0
2256,36946,0
2260,36957,0
2240,36933,0
2240,36919,0
2240,36960,0
2296,36940,0
2312,36937,0
2316,36962,0
2324,36946,0
2336,36935,0
2348,36955,0
2296,36942,0
2306,36931,0
2305,36931,0
2312,36909,0
2304,36952,0
2300,36925,0
2284,36935,0
2276,36935,0
2264,36953,0
2260,36918,0
2264,36915,0
2264,36952,0
2260,36922,0
2264,36923,0
2272,36954,0
2272,36937,0
2276,36930,0
2280,36914,0
2288,36955,0
2276,36933,0
2276,36900,0
2256,36938,0
2248,36916,0
2234,36919,0
2272,36930,0
2260,36928,0
2260,36915,0
2256,36902,0
2224,36935,0
2228,36911,0
2220,36910,0
2164,36933,0
2168,36900,0
2172,36901,0
2184,36914,0
2196,36909,0
2208,36900,0
2224,36916,0
2232,36907,0
2248,36901,0
2248,36901,0
2256,36897,0
2252,36913,0
2248,36901,0
2244,36889,0
2244,36879,0
2240,36911,0
2242,36886,0
2236,36883,0
2244,36915,0
2236,36884,0
2244,36887,0
2252,36877,0
2260,36911,0
2268,36874,0
2274,36869,0
2280,36892,0
2340,36867,0
2336,36876,0
2336,36876,0
2328,36892,0
2320,36860,0
2308,36846,0
2248,36877,0
2228,36855,0
2216,36865,0
2196,36888,0
2209,36854,0
2192,36864,0
2184,36842,0
2188,36858,0
2192,36852,0
2200,36857,0
2208,36851,0
2232,36847,0
2244,36854,0
2268,36858,0
2274,36837,0
2280,36820,0
2288,36850,0
2284,36831,0
2272,36825,0
2272,36852,0
2272,36826,0
2260,36826,0
2256,36832,0
2248,36846,0
2236,36812,0
2232,36822,0
2276,36840,0
2280,36812,0
2280,36831,0
2285,36834,0
2284,36827,0
2290,36806,0
2248,36801,0
2250,36843,0
2252,36815,0
2244,36802,0
2264,36831,0
2240,36833,0
2232,36813,0
2236,36825,0
2248,36823,0
2260,36834,0
2272,36811,0
2272,36804,0
2284,36841,0
2288,36805,0
2292,36808,0
2308,36836,0
2328,36813,0
2340,36808,0
2352,36825,0
2368,36834,0
2392,36825,0
2396,36798,0
2420,36843,0
2304,36812,0
2468,36817,0
2500,36844,0
2616,36816,0
2672,36827,0
2728,36807,0
2780,36842,0
2848,36828,0
2898,36821,0
2856,36843,0
2877,36830,0
2884,36827,0
2868,36839,0
2856,36857,0
2804,36840,0
2744,36843,0
2672,36843,0
2580,36820,0
2496,36837,0
2384,36856,0
2284,36831,0
2178,36834,0
2084,36866,0
1984,36852,0
1908,36848,0
1840,36853,0
1776,36863,0
1740,36844,0
1708,36824,0
1680,36862,0
1664,36845,0
1648,36862,0
1640,36877,0
1644,36861,0
1632,36855,0
1664,36841,0
1658,36883,0
1657,36853,0
1660,36848,0
1664,36879,0
1658,36869,0
1626,36866,0
1620,36887,0
1604,36863,0
1607,36869,0
1608,36865,0
1589,36882,0
1576,36869,0
1577,36885,0
1572,36820,0
1569,36860,0
1584,36877,0
1568,36884,0
1592,36862,0
1604,36840,0
1648,36886,0
1648,36870,0
1673,36869,0
1700,36886,0
1737,36871,0
1748,36867,0
1756,36869,0
1777,36887,0
1788,36869,0
1796,36853,0
1808,36885,0
1808,36866,0
1860,36870,0
1868,36894,0
1865,36879,0
1872,36871,0
1881,36864,0
1902,36892,0
1872,36868,0
1878,36860,0
1888,36892,0
1904,36879,0
1928,36877,0
1949,36888,0
1973,36871,0
1996,36869,0
2008,36889,0
2024,36879,0
2034,36884,0
2047,36906,0
2064,36881,0
2072,36872,0
2188,36907,0
2072,36879,0
2072,36889,0
2088,36909,0
2092,36900,0
2104,36890,0
2128,36874,0
2148,36912,0
2176,36890,0
2196,36892,0
2216,36912,0
2240,36895,0
2320,36907,0
2332,36929,0
2338,36922,0
2348,36902,0
2352,36889,0
2352,36930,0
2285,36908,0
2274,36909,0
2258,36929,0
2244,36916,0
2236,36947,0
2224,36926,0
2220,36944,0
2220,36925,0
2200,36940,0
2224,36926,0
2240,36934,0
2244,36960,0
2272,36933,0
2284,36909,0
2296,36959,0
2308,36938,0
2312,36936,0
2316,36969,0
2312,36942,0
2312,36959,0
2304,36975,0
2300,36977,0
2292,36961,0
2282,36938,0
2274,36996,0
2264,36969,0
2320,36973,0
2305,36993,0
2312,36980,0
2298,36982,0
2304,37001,0
2356,37012,0
2248,36978,0
2246,36975,0
2246,37018,0
2249,36991,0
2264,37002,0
2260,37020,0
2260,37015,0
2256,37021,0
2256,37022,0
2264,37005,0
2260,37041,0
2258,37019,0
2248,37010,0
2244,37047,0
2248,37024,0
2258,37031,0
2264,37054,0
2268,37045,0
2280,37042,0
2288,37042,0
2288,37075,0
2280,37037,0
2296,37028,0
2288,37077,0
2284,37066,0
2274,37060,0
2328,37084,0
2320,37067,0
2312,37078,0
2292,37087,0
2284,37102,0
2284,37073,0
2224,37054,0
2218,37100,0
2216,37074,0
2224,37080,0
2240,37093,0
2261,37109,0
2272,37100,0
2282,37084,0
2300,37096,0
2308,37110,0
2312,37112,0
2316,37089,0
2338,37078,0
2312,37118,0
2321,37097,0
2308,37093,0
2312,37122,0
2304,37099,0
2282,37107,0
2268,37127,0
2258,37126,0
2240,37107,0
2240,37083,0
2226,37121,0
2280,37103,0
2280,37101,0
2280,37125,0
2286,37101,0
2290,37110,0
2297,37111,0
2308,37122,0
2260,37095,0
2262,37076,0
2262,37116,0
2260,37083,0
2268,37080,0
2264,37098,0
2272,37071,0
2256,37087,0
2260,37080,0
2248,37061,0
2242,37092,0
2248,37055,0
2244,37028,0
2244,37073,0
2240,37057,0
2236,37049,0
2250,37054,0
2244,37028,0
2248,37031,0
2252,37010,0
2256,37038,0
2256,37007,0
2264,36992,0
2272,37015,0
2260,36993,0
2264,36988,0
2314,36997,0
2304,37000,0
2292,36972,0
2296,36945,0
2300,36977,0
2300,36945,0
2268,36933,0
2273,36964,0
2273,36928,0
2284,36929,0
2304,36927,0
2302,36910,0
2308,36895,0
2312,36914,0
2316,36894,0
2320,36907,0
2312,36870,0
2314,36878,0
2316,36888,0
2312,36888,0
2300,36849,0
2300,36830,0
2280,36863,0
2268,36839,0
2256,36826,0
2256,36847,0
2252,36826,0
2250,36822,0
2253,36804,0
2260,36827,0
2256,36801,0
2256,36784,0
2320,36815,0
2320,36787,0
2320,36786,0
2312,36795,0
2304,36812,0
2304,36770,0
2236,36755,0
2220,36774,0
2216,36763,0
2194,36762,0
2196,36755,0
2188,36745,0
2192,36756,0
2192,36756,0
2188,36750,0
2208,36730,0
2224,36733,0
2228,36755,0
2236,36752,0
2244,36714,0
2248,36707,0
2264,36743,0
2260,36721,0
2260,36714,0
2272,36732,0
2268,36709,0
2264,36708,0
2256,36718,0
2272,36728,0
2232,36700,0
2232,36683,0
2220,36719,0
2272,36691,0
2264,36689,0
2260,36705,0
2277,36694,0
2282,36694,0
2290,36706,0
2248,36712,0
2268,36683,0
2266,36664,0
2260,36700,0
2278,36655,0
2280,36660,0
2288,36696,0
2280,36695,0
2288,36673,0
2274,36696,0
2268,36678,0
2258,36667,0
2252,36679,0
2244,36683,0
2240,36653,0
2232,36652,0
2225,36683,0
2232,36663,0
2244,36655,0
2260,36672,0
2244,36658,0
2256,36657,0
2258,36670,0
2265,36665,0
2272,36656,0
2274,36633,0
2336,36669,0
2320,36641,0
2312,36647,0
2312,36667,0
2304,36645,0
2292,36662,0
2226,36670,0
2220,36665,0
2208,36653,0
2210,36627,0
2208,36670,0
2216,36644,0
2216,36651,0
2226,36658,0
2240,36673,0
2244,36642,0
2256,36641,0
2270,36668,0
2280,36647,0
2292,36655,0
2308,36674,0
2312,36664,0
2316,36650,0
2312,36646,0
2312,36690,0
2156,36655,0
2300,36657,0
2292,36677,0
2284,36656,0
2282,36654,0
2268,36685,0
2264,36691,0
2312,36667,0
2304,36659,0
2304,36696,0
2288,36669,0
2284,36677,0
2280,36699,0
2212,36690,0
2208,36693,0
2197,36682,0
2192,36713,0
2204,36694,0
2208,36694,0
2240,36700,0
2240,36701,0
2248,36720,0
2252,36711,0
2256,36726,0
2266,36708,0
2276,36715,0
2308,36721,0
2288,36757,0
2288,36726,0
2302,36726,0
2288,36758,0
2296,36735,0
2288,36746,0
2284,36768,0
2276,36770,0
2272,36751,0
2256,36733,0
2240,36781,0
2240,36766,0
2280,36763,0
2272,36777,0
2264,36786,0
2264,36769,0
2268,36760,0
2268,36798,0
2228,36774,0
2232,36783,0
2230,36815,0
2240,36794,0
2256,36774,0
2248,36795,0
2264,36808,0
2264,36787,0
2276,36791,0
2268,36833,0
2272,36803,0
2264,36797,0
2261,36836,0
2248,36827,0
2240,36819,0
2228,36839,0
2226,36822,0
2212,36831,0
2216,36826,0
2208,36862,0
2220,36831,0
2224,36827,0
2232,36862,0
2252,36845,0
2266,36850,0
2280,36861,0
2356,36863,0
2368,36838,0
2370,36828,0
2376,36877,0
2368,36845,0
2368,36855,0
2298,36873,0
2296,36870,0
2286,36855,0
2270,36847,0
2256,36886,0
2244,36887,0
2234,36866,0
2224,36896,0
2220,36872,0
2217,36854,0
2220,36889,0
2220,36871,0
2228,36870,0
2248,36896,0
2252,36892,0
2268,36877,0
2268,36865,0
2268,36912,0
2272,36878,0
2264,36878,0
2268,36916,0
2250,36891,0
2248,36896,0
2236,36911,0
2224,36927,0
2210,36896,0
2260,36890,0
2250,36916,0
2253,36900,0
2260,36910,0
2268,36933,0
2288,36906,0
2248,36915,0
2261,36923,0
2264,36947,0
2300,37005,0
2272,36940,0
2272,36941,0
2280,36932,0
2268,36949,0
2268,36938,0
2256,36944,0
2272,36940,0
2244,36970,0
2248,36935,0
2240,36939,0
2248,36972,0
2248,36950,0
2256,36962,0
2260,36978,0
2268,36970,0
2274,36968,0
2289,36970,0
2288,36990,0
2296,36968,0
2288,36953,0
2344,36995,0
2352,36969,0
2336,36976,0
2325,36997,0
2318,36977,0
2304,36976,0
2288,36993,0
2210,37007,0
2202,36975,0
2181,36971,0
2174,37012,0
2180,36955,0
2180,37000,0
2210,37016,0
2220,36988,0
2234,36999,0
2256,37004,0
2264,36984,0
2282,36989,0
2288,37010,0
2300,37007,0
2308,36987,0
2314,36975,0
2320,37011,0
2320,36980,0
2320,36988,0
2312,37006,0
2312,36979,0
2292,36975,0
2288,36973,0
2276,37002,0
2274,36973,0
2276,36963,0
2336,36993,0
2336,36961,0
2360,36968,0
2352,36982,0
2353,36979,0
2352,36969,0
2298,36940,0
2302,36981,0
2284,36964,0
2280,36955,0
2284,36955,0
2268,36958,0
2252,36941,0
2240,36965,0
2220,36948,0
2208,36973,0
2204,36938,0
2204,36936,0
2208,36959,0
2224,36937,0
2232,36940,0
2240,36933,0
2240,36946,0
2252,36929,0
2258,36908,0
2258,36948,0
2264,36908,0
2260,36903,0
2258,36929,0
2250,36900,0
2240,36913,0
2224,36894,0
2274,36924,0
2256,36897,0
2240,36886,0
2228,36912,0
2224,36900,0
2226,36889,0
2176,36912,0
2182,36901,0
2180,36881,0
2196,36866,0
2213,36879,0
2216,36874,0
2232,36881,0
2236,36894,0
2244,36894,0
2240,36901,0
2252,36870,0
2242,36889,0
2238,36887,0
2240,36888,0
2232,36865,0
2228,36854,0
2224,36885,0
2224,36862,0
2232,36860,0
2240,36884,0
2248,36868,0
2266,36865,0
2280,36875,0
2288,36891,0
2296,36854,0
2300,36850,0
2354,36872,0
2352,36849,0
2340,36862,0
2328,36878,0
2320,36869,0
2304,36851,0
2240,36837,0
2239,36881,0
2229,36859,0
2228,36842,0
2232,36851,0
2232,36876,0
2234,36861,0
2236,36881,0
2248,36894,0
2244,36860,0
2248,36859,0
2249,36854,0
2258,36896,0
2252,36855,0
2260,36847,0
2258,36882,0
2256,36852,0
2248,36872,0
2248,36890,0
2236,36890,0
2232,36860,0
2232,36862,0
2220,36889,0
2216,36860,0
2360,36858,0
2208,36897,0
2260,36867,0
2241,36876,0
2256,36878,0
2261,36896,0
2261,36876,0
2282,36860,0
2248,36884,0
2260,36865,0
2268,36866,0
2282,36888,0
2308,36868,0
2316,36903,0
2332,36892,0
2340,36874,0
2346,36894,0
2352,36854,0
2360,36899,0
2372,36857,0
2376,36863,0
2392,36885,0
2404,36871,0
2418,36877,0
2436,36878,0
2464,36893,0
2532,36877,0
2558,36853,0
2620,36893,0
2684,36874,0
2748,36874,0
2804,36893,0
2864,36884,0
2900,36870,0
3008,36866,0
3008,36891,0
2996,36867,0
2960,36853,0
2912,36897,0
2840,36876,0
2688,36877,0
2590,36897,0
2481,36896,0
2378,36884,0
2292,36871,0
2180,36906,0
2082,36878,0
1989,36868,0
1912,36896,0
1840,36894,0
1778,36912,0
1732,36886,0
1673,36894,0
1657,36910,0
1624,36925,0
1609,36906,0
1584,36891,0
1568,36919,0
1544,36901,0
1534,36903,0
1528,36928,0
1524,36922,0
1528,36913,0
1532,36907,0
1530,36946,0
1548,36922,0
1588,36909,0
1588,36957,0
1600,36936,0
1610,36943,0
1624,36969,0
1634,36956,0
1616,36960,0
1626,36929,0
1635,36980,0
1620,36943,0
1628,36968,0
1632,36957,0
1616,36974,0
1626,36965,0
1632,36960,0
1632,36994,0
1644,36972,0
1656,36982,0
1680,37000,0
1708,36997,0
1732,36981,0
1756,36962,0
1772,37003,0
1796,36987,0
1808,36986,0
1820,37015,0
1841,37002,0
1848,36996,0
1861,37015,0
1876,37016,0
1874,37007,0
1878,36986,0
1932,37038,0
1936,37006,0
1940,36987,0
1956,37017,0
1971,37003,0
1996,36997,0
1978,37025,0
1996,37009,0
2015,37008,0
2044,37033,0
2066,36991,0
2084,37017,0
2100,37001,0
2120,37029,0
2136,37004,0
2150,37009,0
2168,37034,0
2180,37029,0
2184,37009,0
2192,37011,0
2208,37031,0
2208,37003,0
2208,36999,0
2224,37033,0
2212,36999,0
2240,37009,0
2226,37028,0
2240,37029,0
2248,37009,0
2280,36999,0
2264,37024,0
2272,37004,0
2328,37013,0
2322,37033,0
2324,37005,0
2324,37013,0
2324,37007,0
2320,37035,0
2268,37001,0
2262,36992,0
2253,37036,0
2248,37042,0
2250,37008,0
2244,37017,0
2252,37028,0
2260,37034,0
2264,37017,0
2272,37042,0
2278,37014,0
2280,37010,0
2296,37045,0
2300,37016,0
2302,37026,0
2288,37045,0
2296,37041,0
2284,37024,0
2276,37012,0
2260,37057,0
2276,37030,0
2258,37034,0
2242,37057,0
2248,37042,0
2305,37036,0
2304,37050,0
2310,37069,0
2320,37035,0
2338,37028,0
2345,37061,0
2356,37035,0
2302,37037,0
2308,37071,0
2298,37057,0
2290,37034,0
2296,37103,0
2292,37062,0
2448,37064,0
2288,37062,0
2272,37079,0
2268,37037,0
2264,37083,0
2256,37056,0
2248,37070,0
2248,37093,0
2244,37070,0
2244,37074,0
2245,37067,0
2248,37092,0
2260,37071,0
2264,37076,0
2272,37085,0
2276,37070,0
2288,37089,0
2304,37074,0
2300,37107,0
2300,37070,0
2356,37062,0
2360,37095,0
2370,37079,0
2372,37094,0
2368,37102,0
2362,37110,0
2296,37092,0
2289,37078,0
2278,37111,0
2272,37074,0
2280,37103,0
2280,37092,0
2272,37095,0
2284,37104,0
2284,37092,0
2276,37118,0
2284,37081,0
2288,37076,0
2292,37111,0
2284,37072,0
2284,37089,0
2276,37101,0
2276,37104,0
2272,37085,0
2268,37062,0
2264,37103,0
2258,37068,0
2252,37064,0
2260,37091,0
2256,37065,0
2260,37058,0
2272,37069,0
2344,37092,0
2352,37056,0
2360,37050,0
2360,37073,0
2364,37049,0
2364,37053,0
2308,37062,0
2304,37057,0
2296,37023,0
2276,37015,0
2280,37039,0
2264,37010,0
2272,37016,0
2232,37037,0
2224,36997,0
2216,37036,0
2140,36996,0
2208,36967,0
2208,37015,0
2250,36980,0
2242,36962,0
2256,36993,0
2260,36965,0
2272,36964,0
2284,36957,0
2292,36971,0
2296,36951,0
2308,36938,0
2304,36959,0
2306,36928,0
2304,36915,0
2298,36944,0
2336,36917,0
2340,36906,0
2330,36902,0
2322,36935,0
2309,36891,0
2296,36882,0
2236,36909,0
2226,36886,0
2228,36876,0
2224,36891,0
2236,36880,0
2240,36865,0
2244,36847,0
2256,36843,0
2268,36861,0
2280,36836,0
2276,36844,0
2282,36854,0
2280,36840,0
2270,36829,0
2264,36816,0
2272,36849,0
2264,36809,0
2256,36791,0
2260,36823,0
2260,36796,0
2260,36798,0
2272,36809,0
2274,36795,0
2277,36788,0
2280,36805,0
2288,36786,0
2336,36777,0
2344,36760,0
2320,36791,0
2320,36764,0
2320,36754,0
2304,36781,0
2244,36743,0
2232,36751,0
2220,36742,0
2222,36753,0
2232,36744,0
2228,36728,0
2240,36748,0
2226,36735,0
2232,36861,0
2242,36736,0
2240,36713,0
2264,36690,0
2264,36732,0
2284,36705,0
2280,36690,0
2284,36721,0
2288,36696,0
2292,36695,0
2288,36716,0
2288,36710,0
2280,36689,0
2284,36666,0
2272,36707,0
2272,36673,0
2260,36672,0
2249,36699,0
2304,36680,0
2304,36679,0
2292,36681,0
2304,36705,0
2296,36670,0
2312,36645,0
2266,36684,0
2270,36662,0
2277,36657,0
2280,36678,0
2288,36683,0
2288,36649,0
2288,36666,0
2284,36651,0
2284,36685,0
2274,36643,0
2264,36677,0
2260,36650,0
2264,36670,0
2248,36680,0
2240,36661,0
2228,36653,0
2232,36654,0
2234,36678,0
2240,36653,0
2252,36648,0
2122,36677,0
2272,36648,0
2276,36659,0
2280,36675,0
2280,36681,0
2276,36659,0
2324,36643,0
2320,36691,0
2316,36650,0
2308,36658,0
2304,36670,0
2308,36664,0
2244,36659,0
2252,36680,0
2244,36681,0
2253,36666,0
2268,36670,0
2276,36684,0
2284,36657,0
2292,36678,0
2304,36693,0
2300,36656,0
2308,36672,0
2302,36689,0
2300,36661,0
2284,36667,0
2316,36679,0
2276,36697,0
2264,36667,0
2256,36649,0
2256,36687,0
2244,36655,0
2236,36667,0
2224,36693,0
2220,36692,0
2228,36682,0
2232,36658,0
2244,36692,0
2312,36686,0
2316,36676,0
2321,36698,0
2324,36690,0
2328,36688,0
2320,36693,0
2264,36704,0
2261,36685,0
2245,36669,0
2258,36706,0
2272,36687,0
2272,36673,0
2264,36694,0
2264,36713,0
2260,36705,0
2258,36700,0
2256,36729,0
2258,36707,0
2264,36706,0
2268,36730,0
2272,36713,0
2284,36718,0
2284,36748,0
2292,36734,0
2296,36732,0
2298,36723,0
2300,36743,0
2300,36722,0
2300,36722,0
2304,36761,0
2304,36735,0
2300,36747,0
2340,36758,0
2320,36745,0
2312,36755,0
2304,36739,0
2289,36777,0
2294,36750,0
2240,36743,0
2254,36774,0
2252,36754,0
2268,36815,0
2280,36751,0
2280,36776,0
2280,36805,0
2274,36776,0
2276,36772,0
2264,36800,0
2264,36784,0
2258,36785,0
2258,36768,0
2248,36809,0
2252,36791,0
2244,36777,0
2264,36812,0
2249,36788,0
2256,36791,0
2256,36824,0
2260,36815,0
2264,36804,0
2276,36788,0
2272,36826,0
2336,36797,0
2328,36791,0
2324,36823,0
2320,36800,0
2312,36806,0
2296,36836,0
2280,36816,0
2224,36814,0
2224,36795,0
2209,36839,0
2202,36812,0
2212,36899,0
2200,36815,0
2229,36842,0
2240,36816,0
2264,36803,0
2276,36824,0
2298,36851,0
2312,36832,0
2322,36836,0
2332,36831,0
2336,36859,0
2328,36848,0
2332,36818,0
2320,36854,0
2304,36833,0
2304,36844,0
2301,36865,0
2292,36841,0
2282,36863,0
2272,36857,0
2268,36880,0
2256,36856,0
2292,36855,0
2276,36885,0
2280,36861,0
2288,36870,0
2290,36897,0
2288,36887,0
2240,36887,0
2256,36881,0
2264,36913,0
2260,36885,0
2282,36899,0
2280,36889,0
2280,36905,0
2284,36917,0
2284,36922,0
2288,36914,0
2276,36919,0
2276,36937,0
2268,36932,0
2260,36919,0
2276,36911,0
2252,36955,0
2248,36920,0
2248,36932,0
2244,36955,0
2244,36943,0
2237,36947,0
2240,36922,0
2240,36969,0
2228,36947,0
2236,36936,0
2248,36974,0
2320,36958,0
2338,36945,0
2344,36974,0
2345,36970,0
2342,36968,0
2336,36943,0
2282,36990,0
2282,36960,0
2272,36963,0
2265,36989,0
2288,36964,0
2292,36973,0
2320,36976,0
2312,36984,0
2328,36970,0
2336,36974,0
2352,36975,0
2358,36968,0
2364,36994,0
2364,36964,0
2368,36952,0
2364,36990,0
2352,36970,0
2344,36969,0
2324,36990,0
2328,36982,0
2292,36977,0
2280,36943,0
2272,36989,0
2256,36958,0
2248,36967,0
2240,36990,0
2288,36969,0
2276,36962,0
2268,36970,0
2265,36981,0
2265,36956,0
2264,36929,0
2218,36979,0
2220,36946,0
2214,36956,0
2212,36970,0
2220,36977,0
2218,36945,0
2216,36958,0
2208,36933,0
2216,36966,0
2212,36935,0
2220,36931,0
2220,36948,0
2218,36960,0
2216,36924,0
2224,36907,0
2228,36947,0
2240,36918,0
2248,36926,0
2258,36934,0
2256,36901,0
2264,36909,0
2264,36917,0
2276,36931,0
2272,36894,0
2252,36879,0
2264,36909,0
2324,36892,0
2320,36896,0
2320,36911,0
2328,36884,0
2316,36875,0
2316,36876,0
2266,36906,0
2280,36876,0
2275,36862,0
2280,36886,0
2296,36877,0
2292,36887,0
2308,36871,0
2290,36869,0
2288,36874,0
2288,36863,0
2284,36889,0
2276,36869,0
2274,36863,0
2266,36870,0
2248,36891,0
2242,36863,0
2236,36855,0
2224,36884,0
2218,36858,0
2232,36855,0
2232,36881,0
2244,36862,0
2256,36861,0
2264,36868,0
2280,36891,0
2288,36856,0
2360,36849,0
2356,36869,0
2364,36861,0
2361,36863,0
2350,36870,0
2338,36892,0
2272,36856,0
2253,36834,0
2234,36885,0
2224,36856,0
2228,36847,0
2224,36861,0
2216,36856,0
2220,36861,0
2224,36864,0
2240,36853,0
2250,36843,0
2258,36864,0
2272,36848,0
2284,36851,0
2288,36868,0
2284,36858,0
2284,36844,0
2274,36851,0
2268,36877,0
2240,36840,0
2240,36835,0
2232,36868,0
2212,36838,0
2208,36836,0
2192,36841,0
2194,36861,0
2260,36832,0
2285,36812,0
2304,36860,0
2326,36824,0
2352,36827,0
2380,36850,0
2348,36836,0
2372,36823,0
2388,36819,0
2406,36850,0
2428,36831,0
2436,36846,0
2444,36810,0
2452,36827,0
2466,36813,0
2488,36819,0
2492,36826,0
2528,36845,0
2576,36819,0
2616,36797,0
2672,36843,0
2728,36806,0
2784,36820,0
2842,36828,0
2884,36823,0
2912,36820,0
2920,36837,0
2904,36833,0
2864,36820,0
2812,36800,0
2740,36845,0
2660,36814,0
2616,36808,0
2508,36848,0
2388,36819,0
2268,36829,0
2144,36843,0
2032,36857,0
1904,36833,0
1821,36819,0
1754,36862,0
1704,36840,0
1676,36941,0
1652,36848,0
1636,36848,0
1632,36856,0
1632,36856,0
1612,36856,0
1612,36854,0
1596,36886,0
1596,36862,0
1585,36872,0
1584,36879,0
1572,36902,0
1432,36884,0
1572,36866,0
1556,36912,0
1556,36887,0
1553,36901,0
1560,36917,0
1576,36911,0
1580,36902,0
1592,36905,0
1608,36942,0
1656,36917,0
1666,36903,0
1692,36946,0
1704,36922,0
1718,36928,0
1722,36946,0
1700,36954,0
1701,36941,0
1704,36916,0
1696,36964,0
1712,36984,0
1728,36937,0
1740,36953,0
1754,36958,0
1772,36959,0
1797,36972,0
1808,36977,0
1837,36962,0
1872,36935,0
1894,36978,0
1904,36955,0
1936,36967,0
1944,36983,0
1972,36978,0
1972,36965,0
1978,36959,0
1978,37003,0
1980,36969,0
1994,36965,0
1992,36999,0
2008,36978,0
2032,36978,0
2072,36979,0
2082,37011,0
2092,36990,0
2100,36964,0
2113,36999,0
2146,36968,0
2116,36986,0
2145,37010,0
2162,36989,0
2192,36997,0
2224,37025,0
2236,36988,0
2256,37015,0
2256,37007,0
2268,36997,0
2268,36991,0
2272,37013,0
2264,36982,0
2266,36988,0
2252,37021,0
2244,36998,0
2244,36992,0
2248,36986,0
2244,37032,0
2244,36997,0
2248,36998,0
2252,37014,0
2258,37006,0
2274,37003,0
2276,37006,0
2292,37035,0
2300,37007,0
2368,36996,0
2384,37034,0
2388,37006,0
2396,37018,0
2372,37012,0
2368,37027,0
2306,37009,0
2294,37002,0
2280,37033,0
2270,37001,0
2272,37025,0
2260,37033,0
2258,37027,0
2426,37035,0
2272,37020,0
2272,36997,0
2282,37044,0
2286,37021,0
2296,37018,0
2302,37050,0
2324,37035,0
2304,37025,0
2308,37009,0
2304,37053,0
2288,37018,0
2272,37018,0
2272,37042,0
2252,37054,0
2248,37030,0
2236,37017,0
2240,37059,0
2244,37033,0
2292,37041,0
2292,37056,0
2312,37041,0
2324,37056,0
2330,37034,0
2346,37064,0
2293,37044,0
2294,37039,0
2284,37071,0
2286,37042,0
2288,37039,0
2284,37046,0
2280,37060,0
2272,37038,0
2272,37045,0
2258,37074,0
2248,37075,0
2237,37043,0
2244,37040,0
2240,37069,0
2248,37058,0
2258,37055,0
2272,37082,0
2292,37065,0
2302,37069,0
2310,37057,0
2328,37081,0
2332,37057,0
2328,37059,0
2320,37092,0
2312,37057,0
2292,37073,0
2344,37089,0
2320,37089,0
2304,37074,0
2298,37048,0
2288,37102,0
2285,37070,0
2232,37063,0
2232,37093,0
2230,37076,0
2238,37071,0
2252,37079,0
2258,37080,0
2268,37094,0
2280,37059,0
2296,37060,0
2302,37086,0
2308,37067,0
2304,37045,0
2312,37080,0
2308,37053,0
2300,37053,0
2296,37071,0
2288,37034,0
2280,37056,0
2281,37056,0
2268,37071,0
2260,37028,0
2260,37021,0
2258,37055,0
2264,37029,0
2265,37016,0
2256,37033,0
2324,37007,0
2320,37012,0
2328,36991,0
2336,37019,0
2336,36987,0
2348,36975,0
2296,37005,0
2294,36963,0
2284,36968,0
2284,36989,0
2284,36976,0
2272,36954,0
2249,36958,0
2248,36945,0
2242,36952,0
2232,36940,0
2220,36928,0
2228,36953,0
2232,36919,0
2228,36906,0
2248,36935,0
2256,36910,0
2260,36907,0
2272,36922,0
2289,36910,0
2292,36899,0
2302,36865,0
2308,36913,0
2312,36886,0
2316,36861,0
2312,36901,0
2316,36858,0
2368,36879,0
2358,36863,0
2368,36881,0
2368,36858,0
2368,36819,0
2368,36870,0
2312,36845,0
2314,36840,0
2312,36855,0
2312,36832,0
2316,36828,0
2300,36846,0
2292,36815,0
2280,36839,0
2276,36866,0
2266,36838,0
2264,36838,0
2260,36809,0
2252,36795,0
2252,36823,0
2248,36811,0
2240,36794,0
2236,36816,0
2244,36791,0
2248,36790,0
2272,36778,0
2260,36797,0
2272,36776,0
2280,36758,0
2282,36792,0
2277,36762,0
2282,36772,0
2344,36785,0
2344,36784,0
2344,36747,0
2338,36734,0
2336,36774,0
2328,36740,0
2260,36742,0
2239,36767,0
2224,36739,0
2216,36745,0
2224,36721,0
2228,36715,0
2228,36727,0
2236,36734,0
2256,36737,0
2260,36731,0
2272,36702,0
2281,36734,0
2282,36712,0
2292,36706,0
2292,36730,0
2296,36723,0
2288,36702,0
2280,36693,0
2256,36722,0
