ECG,IR,PCG
2170,38851,0
2224,38836,0
2188,38836,0
2208,38853,0
2168,38833,0
2184,38830,0
2144,38858,0
2136,38820,0
2104,38832,0
2136,38864,0
2120,38845,0
2114,38836,0
2121,38853,0
2128,38873,0
2108,38857,0
2132,38846,0
2122,38866,0
2132,38837,0
2184,38838,0
2200,38856,0
2160,38862,0
2172,38843,0
2164,38855,0
2196,38835,0
2144,38830,0
2124,38852,0
2104,38833,0
2074,38830,0
2080,38852,0
2022,38819,0
2004,38822,0
1996,38840,0
2008,38808,0
2026,38828,0
1972,38839,0
1996,38834,0
1986,38821,0
2048,38810,0
2036,38835,0
2052,38808,0
2056,38806,0
2140,38812,0
2128,38795,0
2146,38803,0
2177,38828,0
2190,38805,0
2192,38810,0
2240,38802,0
2220,38827,0
2249,38803,0
2292,38798,0
2338,38817,0
2360,38796,0
2436,38799,0
2516,38805,0
2624,38799,0
2760,38804,0
2872,38808,0
3000,38820,0
3164,38798,0
3256,38805,0
3388,38829,0
3512,38826,0
3648,38795,0
3728,38819,0
3896,38820,0
3904,38804,0
4040,38795,0
4004,38831,0
4095,38798,0
4020,38801,0
4000,38827,0
3968,38796,0
4000,38808,0
3928,38822,0
3860,38825,0
3780,38809,0
3716,38821,0
3633,38827,0
3532,38798,0
3496,38798,0
3404,38824,0
3352,38781,0
3274,38801,0
3156,38813,0
3070,38806,0
3044,38813,0
2960,38817,0
2916,38821,0
2872,38828,0
2880,38796,0
2824,38802,0
2796,38847,0
2776,38827,0
2776,38832,0
2737,38825,0
2704,38839,0
2720,38819,0
2658,38817,0
2656,38848,0
2604,38808,0
2600,38814,0
2572,38845,0
2546,38812,0
2512,38823,0
2512,38827,0
2469,38809,0
2424,38813,0
2392,38842,0
2362,38834,0
2304,38817,0
2288,38808,0
2246,38825,0
2232,38802,0
2240,38829,0
2232,38840,0
2208,38838,0
2188,38833,0
2184,38816,0
2196,38817,0
2216,38830,0
2172,38826,0
2160,38822,0
2146,38837,0
2138,38840,0
2112,38821,0
2092,38822,0
2075,38838,0
2072,38807,0
2028,38835,0
1986,38839,0
2018,38820,0
1946,38841,0
1984,38855,0
1936,38852,0
1928,38841,0
1918,38838,0
1960,38855,0
1962,38835,0
1976,38836,0
1976,38860,0
2011,38825,0
1446,38839,0
1992,38862,0
2001,38856,0
1990,38847,0
2024,38865,0
2030,38864,0
1976,38857,0
1944,38875,0
1940,38862,0
1932,38879,0
1924,38843,0
1932,38840,0
1912,38863,0
1909,38858,0
1904,38837,0
1917,38844,0
1924,38867,0
1930,38834,0
1932,38836,0
1961,38861,0
1936,38823,0
1957,38837,0
1964,38858,0
1953,38832,0
1916,38845,0
1900,38856,0
1889,38856,0
1920,38834,0
1881,38844,0
1868,38856,0
1889,38839,0
1872,38832,0
1844,38851,0
1884,38822,0
1874,38817,0
1892,38840,0
1962,38806,0
1922,38804,0
1956,38825,0
1940,38814,0
1938,38815,0
1952,38809,0
1920,38826,0
1908,38786,0
1888,38810,0
1880,38830,0
1868,38824,0
1856,38821,0
1860,38823,0
1874,38835,0
1872,38804,0
1857,38808,0
1890,38821,0
1880,38779,0
1896,38788,0
1897,38806,0
1912,38777,0
1952,38794,0
1966,38803,0
1989,38800,0
1960,38797,0
1958,38796,0
1969,38814,0
1944,38789,0
1901,38775,0
1904,38807,0
1882,38779,0
1896,38786,0
1928,38799,0
1857,38804,0
1856,38775,0
1900,38799,0
1888,38789,0
1892,38790,0
1904,38782,0
1952,38784,0
1944,38801,0
1960,38779,0
1970,38772,0
1988,38791,0
2005,38767,0
1976,38785,0
2000,38804,0
1970,38778,0
1960,38768,0
1954,38801,0
1956,38784,0
1914,38770,0
1906,38778,0
1904,38785,0
1932,38763,0
1952,38751,0
1969,38773,0
1984,38741,0
1996,38748,0
1988,38765,0
2018,38722,0
2036,38723,0
2024,38755,0
2048,38747,0
2064,38737,0
2008,38720,0
2014,38734,0
2008,38727,0
1972,38715,0
1988,38719,0
1952,38727,0
1938,38709,0
1956,38708,0
1932,38718,0
1962,38719,0
1980,38699,0
1994,38679,0
2000,38691,0
2008,38684,0
2018,38667,0
2020,38679,0
2041,38661,0
2036,38663,0
2034,38670,0
2033,38639,0
2044,38653,0
2057,38667,0
2042,38661,0
2008,38647,0
2005,38657,0
1994,38655,0
1956,38629,0
1963,38634,0
1992,38644,0
1958,38609,0
1984,38614,0
2008,38639,0
2008,38602,0
2016,38625,0
2016,38616,0
1984,38622,0
2024,38610,0
2040,38614,0
2032,38591,0
2042,38597,0
2036,38623,0
2052,38601,0
2008,38601,0
2012,38621,0
2000,38621,0
2008,38595,0
1996,38596,0
1996,38620,0
1976,38600,0
1984,38594,0
1976,38623,0
1968,38591,0
2004,38595,0
2032,38617,0
2080,38621,0
2084,38600,0
2056,38599,0
2074,38618,0
2052,38608,0
2037,38593,0
2064,38612,0
2020,38580,0
2028,38603,0
2016,38632,0
1958,38611,0
1946,38628,0
1936,38599,0
1948,38615,0
1936,38605,0
1936,38626,0
1944,38624,0
1980,38613,0
1976,38607,0
1984,38625,0
2008,38607,0
2021,38600,0
2044,38627,0
2048,38583,0
2028,38599,0
2047,38617,0
2024,38616,0
2032,38604,0
2010,38624,0
2000,38615,0
1964,38612,0
2000,38600,0
1964,38622,0
1972,38614,0
1956,38606,0
1928,38629,0
1910,38604,0
1923,38613,0
1968,38626,0
1990,38598,0
2016,38612,0
2012,38625,0
2064,38610,0
2016,38618,0
2008,38617,0
2053,38629,0
2008,38644,0
1996,38636,0
1994,38629,0
1985,38617,0
1956,38641,0
1954,38646,0
1940,38618,0
1940,38622,0
1920,38648,0
1938,38618,0
1936,38623,0
1976,38641,0
1985,38604,0
2008,38623,0
2000,38638,0
2004,38623,0
2032,38628,0
2064,38650,0
2058,38633,0
2056,38628,0
2036,38619,0
2026,38647,0
1993,38622,0
1974,38620,0
1956,38641,0
1947,38609,0
1972,38625,0
1978,38662,0
1929,38635,0
1936,38631,0
1960,38634,0
1976,38648,0
2008,38655,0
2016,38646,0
2028,38663,0
2041,38670,0
2040,38654,0
2047,38640,0
2047,38658,0
2071,38630,0
2056,38646,0
2064,38653,0
2020,38633,0
2009,38637,0
1980,38660,0
2000,38621,0
1984,38638,0
1984,38655,0
1976,38627,0
2010,38628,0
2000,38660,0
2017,38653,0
2028,38625,0
2076,38626,0
2076,38648,0
2069,38616,0
2068,38619,0
2100,38638,0
2090,38600,0
2089,38610,0
2044,38621,0
2046,38608,0
2012,38609,0
1994,38605,0
2008,38633,0
1970,38598,0
1964,38593,0
1964,38605,0
1962,38579,0
1960,38584,0
2000,38599,0
2002,38582,0
2002,38585,0
2064,38601,0
2052,38611,0
2104,38577,0
2100,38591,0
2160,38598,0
2116,38582,0
2140,38581,0
2100,38590,0
2130,38565,0
2106,38571,0
2116,38590,0
2074,38552,0
2080,38574,0
2020,38594,0
2013,38560,0
2020,38556,0
2008,38593,0
2042,38585,0
2064,38564,0
2032,38560,0
2044,38584,0
2064,38584,0
2072,38555,0
2076,38570,0
2072,38560,0
2080,38570,0
2104,38572,0
2064,38545,0
2052,38551,0
2044,38567,0
2080,38558,0
2020,38560,0
2072,38577,0
2040,38540,0
2020,38549,0
2000,38581,0
1984,38567,0
2016,38558,0
2064,38571,0
2056,38582,0
2114,38561,0
2122,38553,0
2168,38586,0
2152,38561,0
2150,38550,0
2136,38584,0
2116,38554,0
2104,38563,0
2104,38593,0
2080,38552,0
2016,38555,0
2002,38571,0
2000,38563,0
1994,38577,0
2000,38578,0
2008,38565,0
2024,38587,0
2038,38583,0
2064,38574,0
2080,38584,0
2092,38597,0
2114,38573,0
2112,38568,0
2168,38583,0
2132,38558,0
2128,38563,0
2084,38583,0
2088,38547,0
2052,38553,0
2034,38591,0
2042,38567,0
2048,38576,0
2052,38584,0
2016,38592,0
2026,38567,0
2033,38556,0
2024,38581,0
2046,38562,0
2064,38549,0
2116,38574,0
2128,38543,0
2160,38560,0
2100,38555,0
2114,38558,0
2112,38555,0
2105,38567,0
2088,38573,0
2074,38570,0
2047,38577,0
2064,38565,0
2026,38554,0
2024,38571,0
2020,38544,0
2015,38545,0
2000,38571,0
2064,38528,0
2024,38547,0
2072,38566,0
2076,38540,0
2100,38554,0
2104,38573,0
2120,38557,0
2112,38556,0
2168,38551,0
2156,38562,0
2152,38552,0
2144,38542,0
2138,38573,0
2085,38537,0
2062,38546,0
2039,38568,0
2021,38532,0
2040,38555,0
2037,38576,0
2000,38582,0
2028,38562,0
2037,38566,0
2057,38578,0
2082,38578,0
2088,38593,0
2106,38573,0
2092,38567,0
2072,38588,0
2104,38569,0
2120,38562,0
2129,38593,0
2112,38569,0
2112,38585,0
2080,38608,0
2092,38575,0
2044,38593,0
2068,38620,0
2040,38608,0
2056,38596,0
2042,38607,0
2072,38626,0
2080,38599,0
2088,38607,0
2108,38622,0
2112,38587,0
2132,38608,0
2113,38633,0
2104,38611,0
2102,38605,0
2156,38632,0
2120,38633,0
2092,38612,0
2066,38620,0
2056,38622,0
2040,38620,0
2036,38620,0
2040,38640,0
2044,38631,0
2052,38621,0
2056,38644,0
2097,38628,0
2096,38616,0
2132,38636,0
2148,38611,0
2192,38625,0
2176,38647,0
2232,38611,0
2224,38627,0
2208,38649,0
2180,38633,0
2172,38618,0
2148,38623,0
2170,38640,0
2150,38615,0
2132,38623,0
2120,38648,0
2144,38603,0
2096,38619,0
2102,38645,0
2104,38628,0
2126,38622,0
2168,38648,0
2210,38640,0
2156,38619,0
2178,38639,0
2184,38636,0
2186,38628,0
2192,38621,0
2284,38623,0
2192,38601,0
2185,38610,0
2168,38635,0
2146,38616,0
2130,38610,0
2123,38623,0
2124,38617,0
2152,38613,0
2088,38602,0
2104,38615,0
2088,38596,0
2104,38589,0
2106,38600,0
2116,38574,0
2144,38579,0
2178,38604,0
2200,38560,0
2202,38573,0
2213,38587,0
2216,38586,0
2197,38568,0
2187,38562,0
2168,38578,0
2178,38563,0
2176,38547,0
2156,38573,0
2112,38552,0
2138,38548,0
2136,38543,0
2104,38571,0
2138,38564,0
2116,38565,0
2130,38542,0
2144,38544,0
2152,38548,0
2156,38554,0
2160,38536,0
2177,38547,0
2188,38561,0
2192,38532,0
2172,38527,0
2184,38549,0
2148,38519,0
2144,38526,0
2130,38558,0
2096,38531,0
2100,38531,0
2144,38555,0
2128,38524,0
2128,38519,0
2130,38564,0
2144,38551,0
2136,38543,0
2144,38573,0
2153,38566,0
2160,38552,0
2216,38563,0
2187,38583,0
2148,38559,0
2144,38551,0
2132,38566,0
2132,38551,0
2128,38570,0
2136,38581,0
2112,38560,0
2108,38563,0
2096,38599,0
2096,38576,0
2100,38586,0
2108,38610,0
2100,38615,0
2128,38592,0
2116,38592,0
2152,38611,0
2156,38586,0
2180,38593,0
2164,38620,0
2176,38600,0
2174,38617,0
2226,38629,0
2230,38595,0
2184,38610,0
2197,38632,0
2146,38629,0
2124,38619,0
2129,38631,0
2092,38641,0
2084,38618,0
2121,38620,0
2088,38643,0
2058,38627,0
2060,38657,0
2064,38642,0
2080,38662,0
2106,38636,0
2084,38664,0
2084,38640,0
2088,38636,0
2116,38660,0
2090,38633,0
2082,38662,0
2084,38679,0
2046,38672,0
2072,38665,0
2042,38671,0
2036,38680,0
2034,38666,0
2068,38657,0
2074,38682,0
2100,38650,0
2144,38665,0
2224,38694,0
2276,38693,0
2386,38687,0
2436,38696,0
2522,38709,0
2596,38679,0
2696,38694,0
2816,38715,0
2938,38682,0
3088,38691,0
3200,38700,0
3268,38690,0
3336,38695,0
3436,38698,0
3544,38698,0
3652,38689,0
3776,38721,0
3892,38691,0
4026,38697,0
4056,38708,0
4056,38690,0
4056,38696,0
4083,38719,0
4084,38699,0
4095,38692,0
4080,38711,0
4094,38718,0
4068,38702,0
4064,38701,0
3952,38720,0
3880,38702,0
3776,38692,0
3760,38715,0
3640,38673,0
3504,38703,0
3394,38720,0
3280,38699,0
2656,38687,0
3092,38715,0
3024,38708,0
2984,38679,0
3000,38685,0
2900,38664,0
2908,38687,0
2864,38693,0
2850,38688,0
2836,38681,0
2808,38667,0
2784,38694,0
2728,38661,0
2716,38661,0
2633,38683,0
2592,38651,0
2580,38665,0
2528,38693,0
2528,38679,0
2452,38657,0
2436,38677,0
2380,38683,0
2392,38662,0
2360,38657,0
2360,38674,0
2388,38654,0
2384,38651,0
2381,38667,0
2360,38633,0
2388,38643,0
2340,38677,0
2290,38655,0
2268,38651,0
2244,38666,0
2217,38669,0
2216,38650,0
2189,38665,0
2144,38664,0
2116,38654,0
2108,38655,0
2100,38650,0
2088,38675,0
2120,38676,0
2100,38654,0
2112,38658,0
2108,38689,0
2130,38646,0
2124,38658,0
2131,38688,0
2104,38653,0
2112,38667,0
2080,38687,0
2084,38664,0
2033,38670,0
2028,38689,0
1996,38693,0
1984,38675,0
1984,38670,0
1992,38691,0
1998,38659,0
2000,38680,0
1984,38699,0
1992,38674,0
1970,38680,0
1985,38701,0
2004,38705,0
2041,38689,0
2032,38684,0
2034,38705,0
2002,38683,0
1988,38680,0
2010,38712,0
1968,38700,0
1952,38684,0
1942,38693,0
1952,38693,0
1912,38717,0
1913,38690,0
1914,38694,0
1920,38713,0
1911,38684,0
1930,38693,0
1944,38730,0
1948,38701,0
1968,38709,0
1952,38714,0
1988,38737,0
1964,38712,0
1960,38720,0
1960,38742,0
1984,38719,0
1961,38726,0
1994,38736,0
1940,38716,0
1937,38713,0
1910,38738,0
1882,38714,0
1881,38718,0
1876,38748,0
1932,38728,0
1913,38727,0
1904,38739,0
1898,38737,0
1928,38750,0
1968,38743,0
1976,38736,0
1965,38757,0
2004,38738,0
1980,38746,0
1984,38771,0
1980,38744,0
1960,38751,0
1995,38765,0
1948,38763,0
1960,38757,0
1912,38763,0
1932,38770,0
1928,38743,0
1916,38749,0
1912,38777,0
1908,38744,0
1940,38758,0
1960,38782,0
2004,38783,0
2000,38773,0
2004,38790,0
2009,38804,0
1994,38788,0
1996,38775,0
1992,38791,0
1990,38777,0
1992,38781,0
1980,38803,0
1938,38787,0
1922,38799,0
1924,38807,0
1906,38797,0
1908,38813,0
1905,38817,0
1909,38800,0
1926,38817,0
1960,38813,0
1952,38794,0
1994,38799,0
2009,38809,0
2018,38800,0
2036,38790,0
2040,38809,0
2072,38772,0
2020,38788,0
2028,38807,0
2016,38785,0
1996,38787,0
1976,38797,0
2012,38802,0
1978,38788,0
2005,38789,0
2006,38800,0
1986,38770,0
1972,38779,0
1969,38791,0
1989,38753,0
2037,38761,0
2048,38773,0
2049,38754,0
2040,38765,0
2056,38750,0
2056,38755,0
2068,38756,0
2060,38762,0
2058,38763,0
2044,38774,0
2029,38736,0
2004,38736,0
1992,38760,0
1992,38714,0
2008,38726,0
1968,38749,0
1980,38734,0
1962,38733,0
1984,38736,0
1984,38733,0
2022,38726,0
2028,38705,0
2045,38738,0
2072,38705,0
2116,38689,0
2102,38719,0
2122,38676,0
2117,38698,0
2092,38710,0
2090,38691,0
2058,38689,0
2036,38702,0
2049,38695,0
2024,38673,0
2018,38665,0
1984,38676,0
1974,38648,0
1984,38660,0
1988,38671,0
2000,38664,0
2016,38643,0
2064,38658,0
2058,38620,0
2072,38625,0
2092,38636,0
2084,38643,0
2100,38609,0
2104,38608,0
2120,38622,0
2072,38590,0
2074,38591,0
2040,38610,0
2040,38559,0
2002,38575,0
1984,38594,0
1968,38577,0
2001,38566,0
1991,38595,0
2008,38594,0
1993,38560,0
2010,38568,0
2012,38583,0
2014,38563,0
2028,38556,0
2052,38576,0
2058,38529,0
2069,38533,0
2036,38552,0
2036,38536,0
2028,38528,0
2018,38558,0
2000,38555,0
1986,38524,0
1976,38530,0
1956,38557,0
1956,38553,0
1944,38533,0
1944,38526,0
1968,38554,0
1968,38527,0
1996,38526,0
2004,38548,0
2024,38518,0
2040,38531,0
2064,38546,0
2046,38518,0
2076,38527,0
2047,38548,0
2072,38531,0
2060,38546,0
2048,38554,0
2024,38560,0
2002,38548,0
1984,38547,0
1962,38564,0
1960,38552,0
1979,38547,0
1984,38577,0
1994,38555,0
2016,38576,0
1992,38569,0
2046,38541,0
2057,38560,0
2064,38583,0
2068,38566,0
2098,38563,0
2072,38599,0
2096,38576,0
2074,38570,0
2092,38588,0
2044,38560,0
2024,38571,0
2020,38604,0
1984,38581,0
1990,38589,0
1968,38613,0
1988,38606,0
1992,38605,0
1984,38601,0
1996,38611,0
2048,38605,0
2060,38600,0
2070,38621,0
2086,38612,0
2085,38606,0
2068,38631,0
2081,38615,0
2068,38609,0
2056,38636,0
2064,38596,0
2000,38707,0
1992,38618,0
2000,38622,0
1980,38634,0
1976,38635,0
1980,38643,0
1988,38621,0
2012,38638,0
2032,38651,0
2044,38652,0
2052,38645,0
2084,38666,0
2088,38679,0
2148,38652,0
2096,38665,0
2120,38669,0
2088,38661,0
2088,38675,0
2052,38688,0
2028,38672,0
2080,38671,0
2037,38681,0
2016,38662,0
2027,38668,0
2038,38695,0
2032,38662,0
2010,38677,0
2034,38694,0
2048,38665,0
2080,38687,0
2112,38706,0
2116,38700,0
2080,38707,0
2081,38719,0
2088,38707,0
2082,38713,0
2088,38702,0
2076,38692,0
2047,38703,0
2036,38682,0
2018,38685,0
1997,38705,0
2028,38680,0
2000,38675,0
1976,38687,0
1996,38663,0
1989,38668,0
2008,38686,0
2002,38653,0
2036,38668,0
2040,38686,0
2046,38663,0
2066,38677,0
2112,38696,0
2112,38675,0
2118,38663,0
2130,38680,0
2121,38686,0
2092,38662,0
2080,38656,0
2056,38682,0
2049,38662,0
2064,38648,0
2080,38668,0
2018,38696,0
2020,38672,0
2028,38659,0
2064,38653,0
2080,38672,0
2064,38652,0
2080,38658,0
2080,38669,0
2092,38655,0
2100,38643,0
2100,38659,0
2111,38632,0
2096,38644,0
2104,38664,0
2064,38634,0
2064,38642,0
2032,38662,0
2040,38650,0
2010,38648,0
2012,38663,0
2008,38663,0
2024,38644,0
2029,38642,0
2050,38670,0
2096,38641,0
2073,38642,0
2082,38665,0
2090,38632,0
2108,38644,0
2117,38670,0
2136,38624,0
2139,38654,0
2100,38643,0
2090,38662,0
2080,38664,0
2076,38677,0
2056,38685,0
2040,38651,0
2028,38685,0
2016,38647,0
2012,38655,0
2037,38692,0
2047,38662,0
2040,38663,0
2047,38693,0
2080,38686,0
2080,38678,0
2112,38689,0
2100,38703,0
2130,38693,0
2106,38676,0
2128,38705,0
2112,38679,0
2144,38683,0
2125,38705,0
2112,38680,0
2093,38683,0
2084,38715,0
2080,38697,0
2056,38695,0
2056,38715,0
2052,38710,0
2080,38697,0
2090,38694,0
2066,38670,0
2068,38700,0
2080,38699,0
2096,38684,0
2112,38696,0
2120,38714,0
2132,38668,0
2112,38689,0
2112,38713,0
2122,38693,0
2090,38692,0
2100,38705,0
2072,38706,0
2088,38685,0
2060,38691,0
2068,38700,0
2047,38683,0
2096,38679,0
2056,38702,0
2072,38659,0
2088,38680,0
2128,38705,0
2136,38680,0
2148,38668,0
2186,38687,0
2176,38704,0
2152,38682,0
2144,38683,0
2134,38704,0
2126,38678,0
2128,38675,0
2113,38698,0
2060,38698,0
2046,38683,0
2040,38679,0
2032,38662,0
2044,38678,0
2029,38684,0
2033,38670,0
2052,38698,0
2068,38671,0
2104,38675,0
2120,38684,0
2117,38664,0
2112,38680,0
2138,38706,0
2108,38676,0
2128,38683,0
2104,38708,0
2116,38704,0
2096,38692,0
2064,38699,0
2047,38708,0
2082,38688,0
2072,38686,0
2072,38710,0
2074,38680,0
2084,38697,0
1524,38706,0
2097,38679,0
2116,38698,0
2177,38728,0
2196,38712,0
2220,38698,0
2228,38698,0
2208,38720,0
2208,38699,0
2202,38700,0
2192,38704,0
2184,38716,0
2169,38711,0
2148,38726,0
2130,38721,0
2136,38714,0
2138,38713,0
2082,38727,0
2096,38691,0
2128,38717,0
2116,38733,0
2152,38699,0
2144,38716,0
2176,38744,0
2170,38736,0
2184,38720,0
2178,38739,0
2252,38734,0
2221,38724,0
2216,38721,0
2218,38733,0
2188,38718,0
2160,38701,0
2128,38734,0
2108,38703,0
2086,38714,0
2104,38730,0
2099,38692,0
2064,38716,0
2082,38710,0
2100,38719,0
2128,38713,0
2146,38726,0
2186,38708,0
2180,38732,0
2197,38710,0
2200,38712,0
2208,38725,0
2204,38706,0
2218,38720,0
2200,38745,0
2200,38732,0
2156,38717,0
2146,38722,0
2132,38732,0
2152,38710,0
2124,38708,0
2100,38732,0
2088,38698,0
2136,38704,0
2154,38734,0
2154,38698,0
2194,38713,0
2180,38729,0
2168,38728,0
2190,38698,0
2189,38714,0
2220,38726,0
2200,38711,0
2208,38705,0
2168,38729,0
2156,38697,0
2148,38720,0
2132,38716,0
2124,38715,0
2124,38719,0
2116,38690,0
2140,38689,0
2116,38721,0
2128,38675,0
2132,38703,0
2176,38713,0
2154,38675,0
2224,38695,0
2184,38717,0
2202,38712,0
2193,38682,0
2216,38689,0
2184,38697,0
2192,38680,0
2176,38683,0
2200,38699,0
2176,38679,0
2152,38677,0
2168,38691,0
2144,38648,0
2117,38677,0
2112,38698,0
2108,38685,0
2120,38663,0
2176,38687,0
2176,38700,0
2164,38663,0
2172,38660,0
2232,38665,0
2196,38683,0
2204,38685,0
2200,38687,0
2228,38668,0
2184,38666,0
2188,38688,0
2152,38660,0
2148,38651,0
2128,38682,0
2128,38655,0
2108,38658,0
2104,38679,0
2076,38655,0
2100,38674,0
2072,38697,0
2096,38693,0
2112,38671,0
2112,38683,0
2116,38701,0
2112,38673,0
2112,38683,0
2144,38690,0
2112,38693,0
2080,38683,0
2064,38715,0
2046,38682,0
2048,38687,0
2084,38724,0
2020,38700,0
2024,38706,0
2042,38710,0
2076,38718,0
2104,38719,0
2144,38747,0
2196,38718,0
2242,38721,0
2302,38747,0
2378,38722,0
2500,38723,0
2567,38753,0
2656,38720,0
2792,38738,0
2860,38769,0
3000,38741,0
3064,38746,0
3208,38765,0
3272,38771,0
3384,38766,0
3632,38775,0
3680,38796,0
3800,38769,0
3892,38769,0
3985,38790,0
4084,38767,0
4072,38777,0
4095,38803,0
4088,38776,0
4081,38782,0
4095,38817,0
4082,38804,0
3944,38801,0
3884,38792,0
3800,38809,0
3716,38804,0
3624,38796,0
3524,38812,0
3416,38824,0
3320,38848,0
3210,38827,0
3136,38834,0
3056,38846,0
3005,38823,0
2952,38842,0
2968,38874,0
2904,38844,0
2944,38856,0
2906,38879,0
2936,38880,0
2928,38865,0
2900,38872,0
2912,38891,0
2916,38866,0
2888,38873,0
2853,38901,0
2792,38868,0
2737,38885,0
2648,38908,0
2586,38879,0
2552,38907,0
2505,38919,0
2496,38918,0
2450,38898,0
2384,38908,0
2372,38925,0
2376,38936,0
2356,38914,0
2376,38936,0
2368,38927,0
2364,38946,0
2364,38932,0
2344,38936,0
2336,38950,0
2324,38925,0
2315,38947,0
2256,38968,0
2260,38973,0
2192,38959,0
2176,38963,0
2132,38983,0
2130,38968,0
2092,38971,0
2090,38999,0
2072,38974,0
2112,38972,0
2112,39005,0
2112,38954,0
2133,38978,0
2144,39012,0
2128,38993,0
2123,38989,0
2116,39014,0
2112,39023,0
2120,39006,0
2112,39012,0
2047,39009,0
2026,38995,0
1996,39014,0
1972,39005,0
1960,39022,0
1932,39004,0
1932,39019,0
1922,39044,0
1918,39010,0
1918,39023,0
1924,39044,0
1961,39026,0
1972,39029,0
2008,39058,0
1968,39047,0
2004,39047,0
1992,39058,0
2010,39056,0
1992,39045,0
1992,39039,0
1976,39066,0
2012,39043,0
1984,39044,0
1976,39058,0
1968,39045,0
1961,39039,0
1936,39071,0
1932,39033,0
1933,39039,0
1936,39067,0
1960,39055,0
2012,39046,0
1978,39068,0
1993,39047,0
1984,39052,0
2008,39059,0
1992,39019,0
2047,39033,0
1993,39043,0
1992,39073,0
1968,39060,0
1954,39043,0
1952,39040,0
1927,39056,0
1912,39034,0
1916,39034,0
1897,39059,0
1900,39032,0
1896,39027,0
1928,39053,0
1920,39012,0
1944,39035,0
1952,39044,0
1994,39012,0
2002,39030,0
2016,39049,0
2024,39041,0
2036,39027,0
2010,39044,0
2008,39029,0
1992,39019,0
1984,39041,0
1976,39036,0
1957,39020,0
1916,39021,0
1924,39003,0
1908,39025,0
1904,39037,0
1912,39037,0
1901,39030,0
1928,38993,0
1957,39012,0
1956,39030,0
1976,38994,0
1992,39004,0
2011,39020,0
2040,38999,0
2052,39002,0
2012,39031,0
2016,39017,0
1986,39002,0
2020,39025,0
1960,39027,0
1952,39009,0
1936,39026,0
1976,39016,0
1956,38994,0
1986,39005,0
1968,39020,0
1984,38992,0
1980,38988,0
2000,39011,0
2021,38990,0
2060,38984,0
2081,38998,0
2084,38976,0
2056,38995,0
2047,38991,0
2060,38984,0
2040,38979,0
2028,38975,0
2009,38986,0
1992,38987,0
1992,38968,0
1978,38961,0
1970,38976,0
1964,38957,0
1976,38949,0
1996,38977,0
2018,38937,0
2032,38943,0
2034,38973,0
2042,38952,0
2072,38944,0
2108,38978,0
2084,38963,0
2092,38941,0
2132,38952,0
2130,38967,0
2122,38948,0
2139,38940,0
2096,38955,0
2056,38936,0
2057,38934,0
2034,38956,0
1522,38918,0
2036,38934,0
2034,38946,0
2016,38929,0
2040,38936,0
2032,38933,0
2044,38930,0
2088,38916,0
2108,38928,0
2080,38945,0
2084,38922,0
2088,38937,0
2092,38952,0
2096,38940,0
2073,38926,0
2088,38947,0
2072,38960,0
2028,38926,0
2032,38934,0
2000,38948,0
2010,38915,0
2032,38924,0
2000,38950,0
2036,38914,0
2040,38927,0
2082,38955,0
2072,38933,0
2085,38935,0
2116,38955,0
2122,38942,0
2085,38933,0
2082,38939,0
2080,38955,0
2112,38932,0
2036,38995,0
2024,38927,0
1992,38943,0
1996,38951,0
2004,38946,0
1980,38948,0
1976,38964,0
1972,38957,0
2000,38936,0
2016,38960,0
1978,38964,0
2004,38955,0
2034,38951,0
2048,38976,0
2032,38949,0
2056,38956,0
2047,38975,0
2064,38937,0
2064,38960,0
2044,38982,0
2048,38961,0
2040,38953,0
2035,38990,0
2012,38980,0
2000,38970,0
1994,38984,0
1948,38994,0
1968,38968,0
1956,38976,0
1962,38986,0
2008,38965,0
2016,38979,0
2004,39083,0
2016,39004,0
2026,38988,0
2024,38980,0
2018,39000,0
2056,38989,0
2024,39007,0
2004,38997,0
1992,39000,0
1962,39033,0
1945,39008,0
1952,39020,0
1952,39048,0
1952,39016,0
1928,39031,0
1952,39059,0
1944,39059,0
1968,39053,0
1972,39072,0
1993,39073,0
2016,39062,0
2056,39067,0
2058,39082,0
2072,39073,0
2073,39060,0
2076,39090,0
2050,39068,0
2024,39078,0
2012,39105,0
1996,39072,0
2000,39089,0
2010,39114,0
1941,39083,0
1944,39097,0
1952,39116,0
1960,39114,0
1952,39129,0
1952,39089,0
1956,39122,0
1980,39092,0
1996,39091,0
2012,39111,0
2016,39088,0
2062,39087,0
2024,39105,0
2048,39100,0
2032,39082,0
2032,39094,0
2004,39101,0
2000,39065,0
1980,39068,0
1960,39092,0
1954,39072,0
1989,39060,0
1992,39066,0
1973,39045,0
1994,39052,0
1998,39064,0
2002,39035,0
2016,39035,0
2028,39057,0
2066,39023,0
2080,39030,0
2080,39051,0
2060,39019,0
2060,39042,0
2052,39007,0
2040,39029,0
2032,39018,0
2020,39001,0
2000,39007,0
2016,39026,0
1982,38993,0
1981,38994,0
1970,39011,0
1979,38975,0
1960,38995,0
2000,39017,0
1988,38985,0
2016,38986,0
2004,39006,0
2042,39006,0
2032,38979,0
2032,38989,0
2036,38988,0
2064,38975,0
2085,38974,0
2049,38982,0
2034,38968,0
2032,38959,0
1996,38978,0
2000,38951,0
1996,38958,0
2000,38989,0
2042,38980,0
2041,38961,0
2000,38962,0
2004,38973,0
2028,38959,0
2050,38957,0
2058,38949,0
2096,38967,0
2080,38960,0
2080,38956,0
2108,38976,0
2076,38954,0
2040,38952,0
2077,38964,0
2047,38935,0
2040,38952,0
2008,38975,0
2018,38941,0
1992,38954,0
2008,38971,0
1994,38976,0
2004,38961,0
2016,38969,0
2064,38980,0
2080,38958,0
2123,38956,0
2114,38983,0
2132,38957,0
2116,38962,0
2122,38982,0
2123,38968,0
2112,38978,0
2128,39002,0
2104,38990,0
2047,38999,0
2028,38985,0
2016,38988,0
2009,38998,0
2009,38995,0
2002,38991,0
2000,39015,0
2040,39022,0
2018,39005,0
2032,38998,0
2047,39027,0
2092,39001,0
2092,39016,0
2132,39036,0
2112,39003,0
2152,39025,0
2106,39049,0
2154,39033,0
2100,39043,0
2088,39057,0
2076,39071,0
2092,39047,0
2076,39057,0
2064,39070,0
2075,39057,0
2040,39063,0
2016,39074,0
2056,39050,0
2060,39060,0
2058,39088,0
2092,39054,0
2100,39078,0
2076,39086,0
2080,39111,0
2080,39085,0
2088,39108,0
2088,38995,0
2096,39123,0
2112,39078,0
2060,39113,0
2064,39137,0
2052,39130,0
2040,39120,0
2055,39147,0
2044,39154,0
2072,39137,0
2040,39142,0
2056,39162,0
2056,39148,0
2084,39147,0
2088,39172,0
2114,39148,0
2112,39161,0
2152,39182,0
2160,39166,0
2169,39180,0
2162,39208,0
2155,39172,0
2116,39184,0
2101,39205,0
2080,39196,0
2070,39196,0
2080,39230,0
2072,39226,0
2018,39237,0
1968,39237,0
2020,39234,0
2016,39247,0
2034,39246,0
2060,39245,0
2068,39255,0
2081,39247,0
2096,39237,0
2098,39260,0
2106,39246,0
2115,39240,0
2108,39267,0
2146,39240,0
2112,39253,0
2100,39284,0
2068,39249,0
2072,39251,0
2041,39281,0
2036,39263,0
2032,39259,0
2052,39280,0
2057,39287,0
2060,39268,0
2064,39275,0
2076,39292,0
2065,39271,0
2080,39260,0
2096,39296,0
2102,39261,0
2136,39272,0
2146,39292,0
2120,39261,0
2124,39291,0
2120,39252,0
2092,39305,0
2088,39274,0
2070,39300,0
2060,39276,0
2047,39273,0
2052,39297,0
2072,39281,0
2047,39287,0
2080,39301,0
2084,39265,0
2132,39276,0
2138,39307,0
2184,39275,0
2192,39284,0
2216,39312,0
2208,39302,0
2204,39301,0
2228,39315,0
2249,39322,0
2240,39296,0
2192,39299,0
2168,39320,0
2152,39299,0
2124,39297,0
2112,39318,0
2104,39293,0
2122,39303,0
2112,39317,0
2117,39296,0
2096,39326,0
2128,39329,0
2152,39327,0
2140,39319,0
2152,39302,0
2186,39316,0
2168,39339,0
2178,39289,0
2176,39324,0
2172,39355,0
2160,39321,0
2154,39321,0
2128,39358,0
2144,39349,0
2104,39331,0
2096,39351,0
2084,39347,0
2100,39344,0
2080,39328,0
2080,39356,0
2089,39326,0
2154,39329,0
2145,39360,0
2164,39323,0
2178,39337,0
2184,39361,0
2169,39333,0
2165,39337,0
2165,39369,0
2165,39362,0
2160,39347,0
2092,39368,0
2082,39366,0
2072,39372,0
2100,39369,0
2068,39364,0
2070,39360,0
2096,39353,0
2080,39365,0
2096,39369,0
2116,39359,0
2128,39367,0
2164,39349,0
2161,39364,0
2193,39386,0
2168,39374,0
2208,39368,0
2168,39389,0
2208,39389,0
2148,39376,0
2121,39383,0
2144,39397,0
2136,39375,0
2154,39369,0
2092,39385,0
2089,39358,0
2082,39363,0
2066,39386,0
2061,39351,0
2070,39364,0
2088,39383,0
2136,39375,0
2146,39363,0
2156,39368,0
2130,39378,0
2148,39367,0
2148,39372,0
2144,39363,0
2144,39343,0
2132,39373,0
2146,39329,0
2100,39342,0
2090,39365,0
2098,39336,0
2090,39335,0
2080,39363,0
2090,39352,0
2072,39331,0
2100,39353,0
2088,39346,0
2120,39326,0
2156,39324,0
2132,39333,0
2160,39321,0
2192,39324,0
2216,39330,0
2192,39308,0
2185,39309,0
2176,39326,0
2170,39304,0
2122,39304,0
2104,39337,0
2088,39320,0
2100,39298,0
2080,39323,0
2028,39332,0
2014,39322,0
2004,39314,0
2012,39313,0
2044,39324,0
2016,39285,0
2016,39295,0
2032,39324,0
2026,39311,0
2060,39294,0
2032,39310,0
2046,39313,0
2044,39291,0
2066,39293,0
2044,39310,0
2104,39296,0
2066,39293,0
2112,39320,0
2114,39287,0
2170,39293,0
2184,39303,0
2280,39281,0
2328,39297,0
2426,39311,0
2496,39283,0
2604,39293,0
2696,39323,0
2813,39301,0
2962,39301,0
3073,39330,0
3236,39321,0
3352,39305,0
3400,39310,0
3496,39312,0
3624,39328,0
3696,39318,0
3792,39313,0
3892,39315,0
3964,39309,0
4032,39312,0
4064,39338,0
4076,39316,0
4048,39318,0
4064,39343,0
4068,39292,0
4080,39316,0
3960,39344,0
3960,39313,0
3848,39325,0
3808,39346,0
3680,39332,0
3582,39318,0
3480,39351,0
3456,39353,0
3344,39336,0
3240,39360,0
3148,39350,0
3072,39342,0
2968,39338,0
2917,39364,0
2900,39338,0
2864,39333,0
2884,39365,0
2904,39336,0
2820,39339,0
2812,39343,0
2812,39353,0
2792,39341,0
2776,39340,0
2784,39346,0
2764,39352,0
2698,39351,0
2664,39344,0
2624,39370,0
2576,39352,0
2540,39344,0
2480,39372,0
2456,39337,0
2392,39342,0
2388,39373,0
2338,39327,0
2368,39349,0
2296,39375,0
2292,39341,0
2302,39355,0
2328,39374,0
2312,39353,0
2314,39358,0
2320,39370,0
2292,39374,0
2256,39345,0
2236,39360,0
2213,39372,0
2193,39357,0
2196,39352,0
2188,39372,0
2104,39353,0
2084,39346,0
2064,39359,0
2064,39346,0
2042,39366,0
2037,39374,0
2046,39356,0
2040,39348,0
2056,39369,0
2076,39363,0
2080,39347,0
2101,39377,0
2104,39345,0
2104,39339,0
2076,39374,0
2088,39346,0
2047,39348,0
2080,39380,0
1992,39346,0
1968,39363,0
1964,39374,0
1952,39350,0
1936,39358,0
1930,39382,0
1912,39366,0
1920,39357,0
1921,39393,0
1918,39379,0
1933,39359,0
1974,39371,0
2016,39387,0
2032,39358,0
2004,39368,0
2000,39376,0
2000,39377,0
2020,39369,0
1992,39387,0
1972,39361,0
1954,39390,0
1936,39352,0
1914,39357,0
1896,39384,0
1904,39345,0
1896,39361,0
1896,39389,0
1896,39371,0
1882,39360,0
1914,39404,0
1906,39384,0
1956,39366,0
1974,39358,0
1984,39388,0
1956,39365,0
2000,39369,0
2004,39387,0
2032,39357,0
1994,39364,0
1971,39387,0
1942,39365,0
1932,39374,0
1928,39397,0
1904,39383,0
1920,39381,0
1908,39408,0
1900,39390,0
1881,39396,0
1889,39401,0
1888,39394,0
1916,39371,0
1928,39395,0
1952,39367,0
1964,39388,0
2000,39401,0
1996,39378,0
1976,39382,0
1982,39410,0
1968,39399,0
1972,39384,0
1928,39392,0
1928,39409,0
1892,39395,0
1900,39392,0
1877,39402,0
1873,39378,0
1872,39385,0
1904,39397,0
1906,39372,0
1942,39381,0
1947,39408,0
1958,39370,0
1948,39393,0
1965,39420,0
1974,39390,0
1984,39392,0
2016,39418,0
2021,39410,0
1972,39395,0
1964,39409,0
1960,39393,0
1945,39388,0
1940,39416,0
1928,39383,0
1936,39396,0
1932,39410,0
1936,39380,0
1938,39379,0
1944,39404,0
1995,39399,0
1980,39384,0
2016,39408,0
2000,39405,0
2046,39381,0
2032,39389,0
2041,39408,0
2032,39377,0
2040,39370,0
2024,39400,0
2052,39367,0
2048,39360,0
2028,39385,0
2008,39346,0
2008,39358,0
1976,39384,0
1960,39337,0
1962,39360,0
1971,39379,0
2000,39365,0
1992,39290,0
2032,39340,0
2032,39343,0
2034,39346,0
2040,39334,0
2058,39354,0
2060,39337,0
2044,39345,0
2058,39348,0
2036,39352,0
2020,39336,0
2013,39333,0
2000,39343,0
2016,39320,0
1988,39309,0
2002,39332,0
2016,39295,0
1992,39316,0
1984,39333,0
2000,39304,0
2042,39306,0
2074,39323,0
2090,39319,0
2096,39300,0
2105,39319,0
2104,39319,0
2088,39300,0
2088,39288,0
2066,39307,0
2091,39292,0
2060,39297,0
2054,39296,0
2008,39290,0
2000,39289,0
1988,39290,0
1972,39279,0
1968,39273,0
1968,39300,0
2000,39275,0
1992,39270,0
2002,39285,0
2022,39262,0
2036,39270,0
2061,39291,0
2052,39255,0
2096,39271,0
2068,39291,0
2080,39277,0
2044,39271,0
2056,39285,0
2004,39280,0
2000,39273,0
2032,39267,0
2000,39282,0
1997,39263,0
2000,39263,0
1996,39279,0
1997,39256,0
1984,39246,0
1996,39266,0
2001,39256,0
2012,39261,0
2032,39268,0
2067,39240,0
2012,39244,0
2018,39244,0
2008,39248,0
2006,39250,0
2004,39255,0
1969,39243,0
1960,39246,0
1944,39262,0
1936,39244,0
1924,39240,0
1930,39251,0
1942,39222,0
1928,39233,0
1972,39266,0
1964,39223,0
1994,39241,0
2004,39262,0
2048,39246,0
2032,39238,0
2041,39264,0
2064,39254,0
2080,39236,0
2064,39242,0
2096,39262,0
2048,39244,0
2024,39236,0
1984,39254,0
1961,39238,0
1942,39246,0
1940,39266,0
1940,39225,0
1968,39231,0
1908,39252,0
1918,39250,0
1928,39260,0
1952,39250,0
1964,39254,0
1977,39264,0
1988,39241,0
1986,39233,0
2010,39264,0
2001,39222,0
2032,39244,0
2007,39269,0
1984,39262,0
2000,39244,0
1960,39263,0
1956,39276,0
1926,39258,0
1948,39264,0
1940,39276,0
1938,39247,0
1938,39251,0
2009,39268,0
2000,39252,0
2016,39257,0
2068,39277,0
2060,39248,0
2066,39252,0
2068,39282,0
2070,39247,0
2070,39266,0
2088,39284,0
2072,39269,0
2016,39289,0
2002,39278,0
1984,39271,0
1965,39291,0
1956,39296,0
1957,39275,0
1964,39301,0
1968,39270,0
1944,39285,0
1956,39299,0
1974,39280,0
2000,39289,0
2004,39317,0
2052,39319,0
2042,39294,0
2076,39299,0
2085,39319,0
2080,39296,0
2060,39291,0
2065,39316,0
2040,39313,0
2060,39299,0
2036,39320,0
2024,39282,0
2013,39302,0
2003,39328,0
1988,39302,0
1993,39319,0
1993,39333,0
1997,39336,0
2036,39326,0
2050,39324,0
2020,39332,0
2034,39325,0
2045,39342,0
2064,39335,0
2058,39350,0
2080,39353,0
2068,39315,0
2056,39328,0
2040,39352,0
2046,39339,0
2004,39332,0
1999,39347,0
1976,39352,0
1986,39335,0
1968,39335,0
1984,39356,0
1984,39336,0
2008,39334,0
2016,39357,0
2024,39342,0
2040,39338,0
2096,39351,0
2121,39331,0
2128,39336,0
2100,39359,0
2128,39331,0
2072,39333,0
2066,39368,0
2050,39339,0
2038,39337,0
2040,39367,0
2028,39362,0
1986,39354,0
1984,39334,0
1980,39343,0
1978,39345,0
1988,39355,0
2004,39321,0
2020,39333,0
2032,39355,0
2040,39338,0
2064,39331,0
2080,39355,0
2091,39351,0
2084,39326,0
2116,39338,0
2080,39344,0
2096,39307,0
2064,39323,0
2084,39326,0
2028,39309,0
2020,39311,0
2016,39315,0
2040,39296,0
2032,39304,0
2028,39316,0
2036,39292,0
2038,39290,0
2036,39302,0
2056,39280,0
2072,39277,0
2088,39295,0
2116,39262,0
2124,39277,0
2088,39286,0
2084,39266,0
2088,39276,0
2088,39265,0
2056,39251,0
2072,39283,0
2024,39258,0
2012,39253,0
2002,39281,0
2004,39273,0
2004,39256,0
2016,39249,0
2008,39272,0
2064,39241,0
2032,39235,0
2064,39248,0
2088,39227,0
2082,39233,0
2068,39246,0
2088,39207,0
2084,39224,0
2104,39247,0
2096,39223,0
2088,39219,0
2080,39241,0
2088,39234,0
2064,39225,0
2020,39214,0
2024,39239,0
2037,39213,0
2040,39207,0
2048,39228,0
2032,39222,0
2028,39215,0
2060,39220,0
2074,39221,0
2100,39190,0
2108,39205,0
2104,39225,0
2132,39182,0
2120,39196,0
2124,39227,0
2112,39212,0
2116,39204,0
2096,39221,0
2107,39212,0
2066,39200,0
2132,39199,0
2040,39207,0
2066,39197,0
2036,39197,0
2032,39216,0
2045,39187,0
2090,39188,0
2098,39211,0
2112,39190,0
2140,39191,0
2152,39212,0
2136,39192,0
2129,39195,0
2154,39221,0
2162,39213,0
2146,39201,0
2072,39206,0
2064,39201,0
2046,39192,0
2021,39209,0
2018,39190,0
2010,39198,0
2010,39210,0
2006,39226,0
2033,39221,0
2040,39195,0
2060,39207,0
2087,39230,0
2088,39206,0
2136,39194,0
2096,39218,0
2128,39195,0
2128,39207,0
2120,39221,0
2112,39182,0
2080,39200,0
2096,39233,0
2065,39202,0
2066,39209,0
2088,39241,0
2053,39216,0
2056,39213,0
2044,39236,0
2082,39245,0
2065,39216,0
2080,39232,0
2116,39238,0
2144,39227,0
2128,39206,0
2172,39231,0
2152,39248,0
2164,39212,0
2176,39225,0
2172,39268,0
2170,39253,0
2160,39239,0
2140,39241,0
2132,39266,0
2120,39245,0
2118,39242,0
2112,39268,0
2121,39247,0
2096,39248,0
2120,39270,0
2108,39242,0
2168,39247,0
2144,39279,0
2156,39250,0
2176,39263,0
2232,39285,0
2216,39271,0
2229,39261,0
2227,39293,0
2220,39297,0
2228,39269,0
2176,39291,0
2184,39301,0
2137,39285,0
2144,39285,0
2133,39316,0
2120,39275,0
2092,39314,0
2098,39307,0
2092,39325,0
2116,39310,0
2136,39304,0
2144,39323,0
2164,39328,0
2177,39323,0
2180,39300,0
2186,39339,0
2217,39319,0
2192,39329,0
2216,39344,0
2180,39318,0
2196,39334,0
2144,39349,0
2136,39323,0
2100,39345,0
2080,39357,0
2066,39346,0
2088,39346,0
2104,39374,0
2096,39370,0
2112,39351,0
2139,39370,0
2180,39373,0
2164,39358,0
2189,39366,0
2204,39382,0
2241,39374,0
2252,39359,0
2216,39377,0
2216,39364,0
2196,39378,0
2176,39377,0
2164,39376,0
2144,39393,0
2132,39359,0
2116,39373,0
2096,39404,0
2085,39362,0
2084,39376,0
2090,39405,0
2072,39399,0
2116,39389,0
2104,39407,0
2136,39405,0
2132,39386,0
2164,39400,0
2156,39413,0
2196,39386,0
2208,39390,0
2218,39410,0
2242,39393,0
2200,39392,0
2192,39406,0
2166,39386,0
2144,39391,0
2132,39404,0
2109,39374,0
2117,39384,0
2144,39414,0
2144,39399,0
2120,39416,0
2128,39384,0
2154,39407,0
2152,39400,0
2172,39403,0
2192,39408,0
2178,39392,0
2184,39389,0
2188,39417,0
2185,39392,0
2160,39381,0
2157,39394,0
2148,39383,0
2144,39380,0
2116,39397,0
2128,39385,0
2112,39379,0
2128,39390,0
2100,39370,0
2104,39368,0
2108,39383,0
2202,39365,0
2176,39361,0
2192,39381,0
2195,39345,0
2186,39356,0
2152,39386,0
2148,39369,0
2129,39373,0
2110,39394,0
2128,39375,0
2104,39372,0
2040,39371,0
2025,39370,0
2000,39362,0
1992,39368,0
1980,39368,0
1984,39372,0
1992,39387,0
2013,39395,0
2040,39376,0
2084,39397,0
2136,39399,0
2194,39379,0
2248,39383,0
2306,39388,0
2320,39379,0
2412,39379,0
2464,39400,0
2560,39378,0
2624,39380,0
2704,39409,0
2800,39376,0
2968,39374,0
3105,39399,0
3200,39387,0
3313,39377,0
3428,39404,0
3512,39389,0
3640,39384,0
3763,39408,0
3900,39400,0
4080,39392,0
4095,39412,0
4064,39383,0
4056,39398,0
4064,39412,0
4088,39395,0
4076,39418,0
4048,39408,0
4056,39428,0
4016,39407,0
3976,39406,0
3912,39430,0
3844,39413,0
3783,39405,0
3680,39438,0
3632,39402,0
3480,39411,0
3424,39442,0
3280,39415,0
3248,39419,0
3140,39451,0
3088,39427,0
3040,39436,0
3072,39456,0
3032,39453,0
3002,39436,0
2964,39445,0
2933,39461,0
2896,39452,0
2826,39440,0
2787,39474,0
2744,39453,0
2740,39444,0
2730,39463,0
2618,39493,0
2596,39483,0
2568,39490,0
2546,39468,0
2530,39459,0
2520,39493,0
2528,39465,0
2488,39463,0
2468,39487,0
2452,39474,0
2460,39480,0
2417,39499,0
2388,39471,0
2392,39478,0
2336,39503,0
2314,39480,0
2272,39479,0
2260,39506,0
2224,39500,0
2208,39491,0
2188,39511,0
2256,39525,0
2197,39499,0
2210,39504,0
2192,39526,0
2222,39498,0
2186,39504,0
2185,39532,0
2184,39510,0
2178,39510,0
2196,39538,0
2185,39527,0
2136,39526,0
2122,39532,0
2100,39541,0
2084,39566,0
2064,39531,0
2044,39530,0
2016,39549,0
2008,39538,0
2020,39540,0
1993,39554,0
1992,39523,0
2013,39536,0
2004,39543,0
2044,39532,0
2024,39538,0
2040,39563,0
2044,39554,0
2084,39543,0
2024,39560,0
2024,39565,0
2028,39547,0
2040,39566,0
2021,39578,0
2000,39541,0
1984,39547,0
1989,39573,0
1932,39545,0
1931,39553,0
1922,39572,0
1948,39541,0
1936,39550,0
1928,39536,0
1952,39575,0
1938,39538,0
1941,39559,0
1964,39550,0
1973,39546,0
1977,39572,0
1974,39538,0
1988,39557,0
1978,39569,0
1970,39540,0
1963,39551,0
1944,39577,0
1948,39561,0
1916,39545,0
1922,39569,0
1904,39563,0
1912,39556,0
1922,39555,0
1900,39582,0
1952,39556,0
1962,39540,0
1974,39570,0
1984,39527,0
2004,39535,0
2016,39562,0
2018,39526,0
1979,39536,0
1974,39562,0
1976,39534,0
1984,39524,0
1970,39565,0
1926,39536,0
1912,39531,0
1904,39535,0
1892,39534,0
1892,39538,0
1892,39550,0
1900,39536,0
1912,39533,0
1918,39560,0
1945,39539,0
1956,39533,0
1986,39560,0
1994,39529,0
2020,39531,0
2002,39551,0
2020,39521,0
2000,39543,0
2002,39549,0
1974,39524,0
1952,39531,0
1954,39556,0
1944,39546,0
1925,39546,0
1924,39550,0
1920,39559,0
1916,39542,0
1892,39548,0
1910,39561,0
1926,39544,0
1962,39538,0
1984,39555,0
2008,39539,0
1984,39533,0
2016,39546,0
2032,39549,0
2016,39550,0
2036,39535,0
1998,39567,0
1992,39542,0
1976,39538,0
1956,39562,0
1936,39563,0
1924,39546,0
1952,39557,0
1916,39571,0
1936,39544,0
1956,39549,0
1944,39570,0
1944,39556,0
1976,39548,0
1980,39563,0
2000,39546,0
2012,39552,0
2057,39570,0
2092,39544,0
2082,39543,0
2088,39575,0
2085,39532,0
2042,39548,0
2056,39566,0
2020,39540,0
2002,39552,0
2016,39575,0
2040,39576,0
1988,39562,0
1984,39561,0
1992,39555,0
2010,39560,0
2020,39566,0
2047,39554,0
2044,39582,0
2064,39563,0
2072,39555,0
2072,39582,0
2068,39588,0
2078,39563,0
2056,39572,0
2064,39583,0
2032,39567,0
2024,39557,0
2004,39583,0
2000,39552,0
1974,39558,0
1968,39587,0
1976,39547,0
2001,39561,0
2002,39581,0
2028,39545,0
2037,39565,0
2040,39586,0
2044,39555,0
2068,39566,0
2064,39578,0
2064,39550,0
2096,39566,0
2130,39589,0
2084,39573,0
2080,39571,0
2032,39572,0
2032,39563,0
2000,39587,0
2012,39564,0
1972,39565,0
1968,39570,0
1968,39556,0
1989,39545,0
1976,39572,0
1985,39548,0
1992,39553,0
2029,39565,0
2016,39545,0
2040,39555,0
2032,39565,0
2056,39536,0
2120,39548,0
2040,39570,0
2042,39543,0
2050,39551,0
2048,39570,0
2024,39564,0
2016,39550,0
1993,39570,0
1960,39576,0
1962,39550,0
1958,39565,0
1946,39568,0
1976,39555,0
2029,39549,0
1976,39552,0
1994,39576,0
2004,39550,0
2020,39571,0
2064,39551,0
2064,39545,0
2040,39553,0
2056,39561,0
2032,39533,0
2036,39539,0
2000,39561,0
2016,39522,0
1972,39531,0
1972,39570,0
1976,39530,0
1952,39549,0
1968,39569,0
1952,39548,0
1944,39537,0
1958,39557,0
1968,39552,0
2008,39546,0
2017,39540,0
2038,39561,0
2038,39539,0
2049,39531,0
2042,39542,0
2034,39521,0
2034,39528,0
2034,39546,0
2036,39518,0
2027,39528,0
1976,39533,0
1960,39543,0
1952,39537,0
1981,39540,0
1960,39540,0
1936,39525,0
1980,39547,0
1982,39517,0
1992,39528,0
2005,39552,0
2042,39526,0
2055,39534,0
2047,39557,0
2080,39521,0
2047,39531,0
2080,39557,0
2042,39537,0
2040,39533,0
2009,39555,0
2008,39559,0
1972,39540,0
1984,39559,0
1976,39567,0
1974,39538,0
1963,39549,0
1962,39562,0
1932,39549,0
1961,39549,0
1976,39565,0
1993,39551,0
2064,39553,0
2048,39581,0
2041,39551,0
2032,39560,0
2032,39570,0
2040,39570,0
2032,39565,0
2030,39577,0
2012,39563,0
2008,39564,0
2024,39578,0
1992,39571,0
1992,39567,0
2002,39582,0
1988,39549,0
2024,39554,0
2016,39588,0
2036,39556,0
2032,39562,0
2068,39584,0
2064,39555,0
2068,39567,0
2080,39586,0
2112,39558,0
2114,39571,0
2116,39595,0
2100,39578,0
2088,39569,0
2064,39603,0
2034,39587,0
2011,39573,0
2012,39600,0
2020,39601,0
2020,39580,0
1980,39570,0
1988,39592,0
1988,39605,0
1994,39580,0
2032,39584,0
2047,39610,0
2092,39579,0
2084,39579,0
2092,39617,0
2100,39585,0
2090,39592,0
2108,39613,0
2072,39589,0
2112,39596,0
2058,39618,0
2056,39583,0
2016,39602,0
2016,39628,0
1994,39606,0
1992,39602,0
2008,39626,0
2028,39618,0
2036,39601,0
2056,39634,0
2069,39625,0
2085,39608,0
2080,39618,0
2086,39639,0
2096,39612,0
2128,39613,0
2120,39644,0
2084,39633,0
2072,39605,0
2068,39612,0
2040,39611,0
2020,39606,0
2008,39630,0
1994,39612,0
2000,39612,0
1992,39638,0
2004,39628,0
2020,39623,0
2039,39640,0
2047,39632,0
2098,39619,0
2082,39628,0
2144,39634,0
2114,39607,0
2146,39618,0
2145,39641,0
2120,39621,0
2168,39614,0
2128,39635,0
2124,39616,0
2112,39613,0
2091,39642,0
2084,39601,0
2056,39602,0
2060,39631,0
2050,39591,0
2053,39619,0
2064,39639,0
2093,39625,0
2168,39633,0
2105,39621,0
2084,39622,0
2100,39622,0
2104,39603,0
2096,39642,0
2100,39601,0
2096,39609,0
2112,39647,0
2088,39606,0
2047,39612,0
2052,39635,0
2034,39612,0
2052,39614,0
2024,39627,0
2036,39614,0
2024,39605,0
2080,39625,0
2064,39626,0
2076,39600,0
2084,39604,0
2136,39623,0
2144,39597,0
2140,39594,0
2146,39617,0
2146,39587,0
2132,39597,0
2128,39622,0
2125,39582,0
2109,39593,0
2120,39619,0
2138,39592,0
2047,39589,0
2047,39591,0
2044,39608,0
2044,39582,0
2047,39597,0
2047,39583,0
2060,39585,0
2066,39609,0
2080,39586,0
2124,39568,0
2106,39602,0
2135,39563,0
2152,39578,0
2160,39594,0
2148,39571,0
2152,39587,0
2128,39608,0
2128,39595,0
2112,39573,0
2090,39597,0
2096,39608,0
2116,39573,0
2108,39586,0
2098,39611,0
2112,39587,0
2104,39588,0
2098,39603,0
1654,39579,0
2128,39592,0
2138,39605,0
2176,39568,0
2169,39584,0
2132,39611,0
2124,39580,0
2144,39592,0
2120,39592,0
2112,39584,0
2096,39613,0
2080,39580,0
2070,39593,0
2064,39611,0
2041,39606,0
2040,39595,0
2055,39597,0
2044,39613,0
2080,39595,0
2066,39588,0
2098,39616,0
2104,39584,0
2136,39600,0
2124,39610,0
2153,39577,0
2136,39592,0
2176,39607,0
2164,39584,0
2184,39599,0
2152,39624,0
2131,39600,0
2096,39606,0
2074,39626,0
2070,39600,0
2076,39615,0
2096,39618,0
2093,39624,0
2080,39640,0
2088,39601,0
2112,39628,0
2124,39641,0
2144,39638,0
2185,39618,0
2216,39617,0
2212,39629,0
2212,39613,0
2209,39618,0
2224,39641,0
2222,39620,0
2204,39625,0
2216,39640,0
2160,39620,0
2160,39618,0
2124,39640,0
2106,39614,0
2108,39627,0
2097,39645,0
2122,39621,0
2144,39629,0
2154,39665,0
2168,39643,0
2200,39642,0
2203,39657,0
2185,39658,0
2197,39650,0
2214,39658,0
2205,39664,0
2240,39656,0
2232,39663,0
2184,39648,0
2204,39656,0
2152,39677,0
2144,39683,0
2122,39653,0
2122,39669,0
2116,39683,0
2118,39700,0
2114,39700,0
2120,39683,0
2128,39699,0
2169,39709,0
2164,39689,0
2178,39687,0
2160,39717,0
2210,39697,0
2160,39694,0
2180,39719,0
2164,39692,0
2160,39703,0
2138,39722,0
2160,39695,0
2149,39712,0
2138,39734,0
2134,39712,0
2137,39721,0
2124,39753,0
2108,39731,0
2121,39732,0
2164,39754,0
2160,39755,0
2176,39740,0
2164,39768,0
2168,39775,0
2176,39766,0
2172,39740,0
2168,39775,0
2162,39777,0
2160,39778,0
2148,39771,0
2132,39769,0
2128,39781,0
2116,39768,0
2118,39774,0
2116,39799,0
2136,39775,0
2112,39784,0
2130,39802,0
2116,39771,0
2152,39794,0
2144,39816,0
2168,39784,0
2176,39804,0
2232,39830,0
2258,39807,0
2248,39803,0
2246,39838,0
2245,39834,0
2224,39815,0
2203,39829,0
2220,39852,0
2173,39835,0
2176,39843,0
2150,39862,0
2112,39828,0
2124,39833,0
2120,39838,0
2116,39860,0
2116,39843,0
2124,39868,0
2136,39848,0
2152,39855,0
2152,39875,0
2185,39846,0
2196,39842,0
2216,39860,0
2208,39849,0
2232,39854,0
2196,39864,0
2208,39843,0
2172,39863,0
2176,39880,0
2160,39849,0
2132,39859,0
2112,39881,0
2152,39857,0
2152,39860,0
2128,39889,0
2131,39854,0
2136,39861,0
2120,39889,0
2117,39866,0
2130,39879,0
2134,39901,0
2160,39891,0
2160,39875,0
2128,39902,0
2124,39886,0
2116,39882,0
2105,39894,0
2088,39863,0
2073,39880,0
2064,39896,0
2044,39866,0
2047,39887,0
2060,39903,0
2074,39875,0
2112,39883,0
2117,39905,0
2216,39886,0
2208,39879,0
2280,39912,0
2320,39905,0
2432,39892,0
2512,39908,0
2576,39914,0
2668,39888,0
2824,39894,0
2944,39920,0
3044,39888,0
3140,39897,0
3248,39912,0
3313,39902,0
3425,39887,0
3524,39920,0
3672,39891,0
3792,39904,0
3888,39959,0
3984,39913,0
4024,39885,0
4048,39926,0
4040,39911,0
4095,39921,0
4004,39937,0
3952,39927,0
3912,39929,0
3840,39932,0
3744,39939,0
3659,39922,0
3552,39930,0
3499,39950,0
3352,39925,0
3320,39920,0
3168,39948,0
3136,39926,0
3024,39926,0
2988,39945,0
3016,39913,0
2992,39929,0
2981,39956,0
3020,39923,0
3000,39939,0
3024,39958,0
2944,39939,0
2936,39950,0
2918,39965,0
2893,39977,0
2880,39966,0
2832,39952,0
2736,39959,0
2672,39965,0
2616,39965,0
2576,39969,0
2512,39963,0
2484,39965,0
2456,39984,0
2424,39968,0
2410,39968,0
2408,39978,0
2416,39960,0
2409,39957,0
2400,39985,0
2426,39979,0
2388,39971,0
2432,39996,0
2384,39964,0
2368,39976,0
2328,39995,0
2292,39953,0
2288,39983,0
2272,40001,0
2241,39976,0
2208,39986,0
2192,40004,0
2168,40002,0
2125,39979,0
2128,40010,0
2102,40017,0
2106,39985,0
2132,40001,0
2144,40010,0
2112,39963,0
2124,40009,0
2161,40004,0
2136,40007,0
2140,39991,0
2136,40003,0
2136,40013,0
2117,40011,0
2096,39994,0
2077,40028,0
2047,40011,0
2064,39996,0
2012,40008,0
2056,40020,0
2002,40005,0
1996,40005,0
1976,40010,0
1988,40005,0
1992,40000,0
2020,40020,0
2012,39992,0
2048,39998,0
2040,40015,0
2056,39990,0
2076,40004,0
2070,40026,0
2032,39981,0
2040,39991,0
2016,40017,0
1997,39986,0
1992,40001,0
1986,40026,0
1976,39998,0
1936,40015,0
1924,40001,0
1946,39996,0
1920,39990,0
1924,39995,0
1936,39999,0
1949,40017,0
1960,39993,0
1968,39998,0
1980,40019,0
1996,40002,0
1974,40001,0
2000,40013,0
1972,40019,0
1987,40005,0
1960,39999,0
1962,40016,0
1938,39995,0
1928,39989,0
1928,40009,0
1940,39992,0
1940,39989,0
1936,40007,0
1964,39983,0
1970,39978,0
1968,40006,0
1980,39976,0
1997,39978,0
2000,39989,0
2022,39960,0
2016,39972,0
2004,39975,0
1996,39979,0
1984,39970,0
1973,39965,0
1944,39964,0
1928,39980,0
1946,39983,0
1904,39961,0
1904,39960,0
1912,39977,0
1916,39955,0
1919,39942,0
1952,39964,0
1970,39949,0
1984,39942,0
2004,39967,0
1994,39939,0
2040,39935,0
2024,39953,0
2032,39924,0
2028,39932,0
2060,39955,0
2054,39927,0
2036,39922,0
2023,39954,0
2024,39920,0
1968,39921,0
1958,39953,0
1953,39924,0
1972,39920,0
1960,39948,0
1956,39934,0
1936,39912,0
1952,39909,0
1976,39915,0
1988,39923,0
2016,39935,0
2016,39905,0
2024,39914,0
2040,39937,0
2040,39893,0
2052,39906,0
2028,39923,0
2038,39888,0
2012,39906,0
2024,39928,0
1996,39917,0
2000,39895,0
1968,39922,0
2020,39923,0
1988,39904,0
1976,39904,0
1986,39910,0
2034,39896,0
2048,39895,0
2068,39908,0
2100,39885,0
2090,39888,0
2080,39908,0
2104,39882,0
2100,39879,0
2093,39897,0
2112,39858,0
2104,39877,0
2047,39888,0
2024,39898,0
2004,39880,0
2000,39898,0
1984,39866,0
2005,39854,0
1978,39880,0
1996,39840,0
2008,39847,0
2044,39870,0
2058,39850,0
2092,39852,0
2100,39858,0
2136,39848,0
2128,39852,0
2144,39864,0
2132,39867,0
2144,39840,0
2104,39852,0
2100,39854,0
2076,39832,0
2092,39825,0
2080,39854,0
2061,39826,0
2051,39818,0
2066,39839,0
2016,39807,0
2025,39819,0
2022,39840,0
2049,39798,0
2080,39814,0
2080,39840,0
2068,39833,0
2080,39838,0
2084,39827,0
2090,39820,0
2104,39820,0
2097,39801,0
2092,39816,0
2068,39833,0
2047,39810,0
2040,39808,0
2033,39826,0
2026,39833,0
2012,39803,0
2016,39805,0
1996,39833,0
2020,39809,0
2004,39801,0
2040,39823,0
2040,39793,0
2044,39797,0
2056,39815,0
2100,39785,0
2100,39799,0
2096,39813,0
2092,39782,0
2086,39795,0
2060,39808,0
2036,39780,0
2008,39791,0
1992,39812,0
2004,39794,0
1994,39798,0
1960,39774,0
1938,39823,0
1952,39809,0
1970,39816,0
1988,39780,0
1996,39791,0
2016,39816,0
2024,39787,0
2044,39789,0
2056,39825,0
2046,39810,0
2100,39789,0
2060,39819,0
2084,39808,0
2036,39801,0
2048,39816,0
2008,39826,0
2000,39804,0
1973,39808,0
1964,39821,0
1953,39800,0
2000,39803,0
1976,39821,0
1986,39795,0
1992,39806,0
2001,39824,0
2024,39792,0
2020,39810,0
2024,39831,0
2054,39809,0
2084,39805,0
2028,39788,0
2016,39837,0
2016,39834,0
1996,39820,0
1996,39813,0
1973,39821,0
1961,39825,0
1968,39833,0
1964,39814,0
1960,39809,0
1985,39842,0
1995,39816,0
1976,39823,0
2020,39825,0
2008,39798,0
2037,39810,0
2036,39843,0
2058,39796,0
2033,39814,0
2040,39834,0
2072,39819,0
2080,39814,0
2054,39831,0
2034,39833,0
2026,39811,0
2020,39814,0
1984,39831,0
1986,39797,0
1971,39822,0
1976,39824,0
1992,39792,0
2000,39796,0
2008,39788,0
2032,39811,0
2024,39799,0
2072,39786,0
2060,39811,0
2073,39813,0
2096,39810,0
2074,39792,0
2072,39793,0
2069,39797,0
2064,39774,0
2047,39790,0
2028,39794,0
2056,39784,0
2028,39771,0
2020,39787,0
1992,39779,0
2009,39764,0
1992,39801,0
2000,39773,0
2010,39766,0
2064,39787,0
2068,39767,0
2080,39755,0
2089,39784,0
2104,39751,0
2106,39743,0
2097,39769,0
2121,39736,0
2094,39744,0
2104,39761,0
2088,39732,0
2040,39733,0
2028,39754,0
2016,39750,0
2012,39761,0
2009,39762,0
2016,39742,0
2004,39765,0
2022,39750,0
2026,39742,0
2044,39768,0
2056,39760,0
2097,39731,0
2084,39765,0
2136,39753,0
2088,39752,0
2116,39761,0
2112,39762,0
2112,39742,0
2084,39756,0
2068,39766,0
2047,39748,0
2084,39736,0
2050,39758,0
2048,39736,0
2048,39748,0
2032,39757,0
2018,39750,0
2028,39744,0
2037,39753,0
2053,39739,0
2084,39738,0
2100,39759,0
2072,39735,0
2116,39734,0
2104,39743,0
2116,39727,0
2112,39739,0
2112,39738,0
2112,39743,0
2088,39753,0
2100,39745,0
2098,39742,0
2064,39759,0
2076,39762,0
2064,39731,0
2106,39765,0
2064,39755,0
2096,39738,0
2068,39753,0
2096,39757,0
2096,39737,0
2108,39748,0
2112,39761,0
2152,39741,0
2149,39749,0
2148,39757,0
2144,39736,0
2144,39754,0
2100,39763,0
2089,39743,0
2081,39754,0
2066,39762,0
2080,39740,0
2072,39749,0
2044,39758,0
2060,39742,0
2080,39740,0
2072,39744,0
2056,39743,0
2080,39764,0
2084,39735,0
2112,39744,0
2116,39775,0
2152,39751,0
2128,39748,0
2141,39771,0
2128,39752,0
2146,39756,0
2100,39781,0
2120,39771,0
2047,39758,0
2049,39779,0
2016,39784,0
2020,39760,0
2016,39784,0
2048,39779,0
2052,39760,0
2069,39790,0
2084,39792,0
2096,39775,0
2116,39774,0
2118,39798,0
2138,39779,0
2142,39785,0
2176,39807,0
2186,39782,0
2128,39789,0
2130,39769,0
2136,39768,0
2096,39779,0
2084,39768,0
2072,39760,0
2068,39795,0
2056,39766,0
2064,39762,0
2047,39791,0
2044,39757,0
2072,39765,0
2080,39779,0
2120,39752,0
2104,39762,0
2144,39794,0
2128,39770,0
2152,39774,0
2188,39797,0
2156,39781,0
2152,39764,0
2176,39783,0
2153,39781,0
2130,39772,0
2112,39754,0
2096,39778,0
2068,39764,0
2058,39758,0
2043,39773,0
2072,39763,0
2080,39749,0
2089,39784,0
2068,39759,0
2090,39758,0
2096,39747,0
2116,39744,0
2120,39762,0
2128,39783,0
2168,39754,0
2128,39749,0
2124,39771,0
2140,39755,0
2096,39734,0
2088,39763,0
2064,39759,0
2066,39745,0
2041,39767,0
2056,39738,0
2028,39740,0
2041,39759,0
2040,39731,0
2052,39739,0
2072,39757,0
2116,39729,0
2144,39733,0
2154,39769,0
2176,39720,0
2176,39740,0
2154,39764,0
2156,39742,0
2152,39749,0
2150,39763,0
2202,39749,0
2162,39743,0
2152,39756,0
2150,39767,0
2128,39771,0
2136,39766,0
2120,39747,0
2128,39780,0
2136,39748,0
2142,39742,0
2154,39774,0
2172,39769,0
2184,39745,0
2198,39771,0
2196,39775,0
2216,39756,0
2194,39771,0
2224,39779,0
2192,39756,0
2208,39770,0
2208,39778,0
2180,39753,0
2160,39747,0
2176,39776,0
2160,39759,0
2128,39764,0
2122,39776,0
2124,39757,0
2108,39740,0
2120,39779,0
2133,39761,0
2159,39759,0
2192,39781,0
2198,39741,0
2200,39787,0
2204,39789,0
2212,39787,0
2200,39786,0
2196,39750,0
2180,39756,0
2160,39775,0
2148,39738,0
2112,39761,0
2112,39779,0
2088,39751,0
2104,39758,0
2072,39784,0
2092,39786,0
2080,39766,0
2128,39786,0
2112,39778,0
2144,39763,0
2156,39783,0
2172,39787,0
2173,39759,0
2213,39771,0
2216,39786,0
2228,39765,0
2213,39767,0
2210,39774,0
2172,39769,0
2156,39764,0
2142,39797,0
2144,39761,0
2136,39761,0
2090,39744,0
2080,39771,0
2100,39774,0
2104,39778,0
2164,39770,0
2144,39793,0
2148,39768,0
2168,39781,0
2176,39785,0
2172,39763,0
2184,39768,0
2198,39783,0
2172,39773,0
2184,39765,0
2146,39789,0
2138,39757,0
2104,39759,0
2116,39774,0
2088,39738,0
2096,39756,0
2120,39765,0
2118,39740,0
2130,39749,0
2134,39775,0
2155,39741,0
2166,39747,0
2169,39764,0
2186,39746,0
2189,39752,0
2194,39772,0
2224,39737,0
2218,39746,0
2168,39744,0
2150,39746,0
2136,39757,0
2116,39730,0
2104,39752,0
2085,39735,0
2076,39750,0
2072,39735,0
2072,39733,0
2084,39756,0
2072,39712,0
2111,39733,0
2112,39744,0
2152,39716,0
2180,39731,0
2184,39750,0
2164,39729,0
2192,39728,0
2168,39758,0
2176,39710,0
2152,39724,0
2168,39757,0
2129,39727,0
2112,39730,0
2088,39754,0
2056,39729,0
2016,39736,0
2008,39753,0
1995,39735,0
1984,39734,0
2040,39749,0
2028,39747,0
2056,39728,0
2032,39731,0
2044,39755,0
2076,39727,0
2100,39750,0
2128,39719,0
2152,39721,0
2176,39755,0
2186,39716,0
2242,39731,0
2240,39753,0
2314,39717,0
2348,39732,0
2404,39753,0
2450,39743,0
2576,39743,0
2632,39765,0
2784,39757,0
2880,39745,0
3002,39767,0
3128,39773,0
3336,39757,0
3472,39775,0
3608,39786,0
3720,39759,0
3848,39763,0
3912,39781,0
3994,39759,0
4072,39763,0
4080,39781,0
4095,39765,0
4095,39767,0
4048,39768,0
4040,39771,0
4012,39783,0
3966,39792,0
3912,39781,0
3832,39787,0
3792,39763,0
3696,39777,0
3608,39800,0
3544,39782,0
3454,39793,0
3400,39807,0
3280,39806,0
3264,39789,0
3144,39797,0
3140,39807,0
3060,39791,0
3008,39808,0
2932,39811,0
2896,39792,0
2864,39788,0
2896,39807,0
2881,39793,0
2850,39805,0
2828,39806,0
2800,39794,0
2746,39791,0
2728,39824,0
2742,39792,0
2696,39782,0
2704,39806,0
2688,39777,0
2612,39795,0
2576,39814,0
2556,39802,0
2528,39826,0
2488,39817,0
2440,39796,0
2408,39796,0
2374,39810,0
2336,39803,0
2312,39782,0
2280,39813,0
2275,39791,0
2244,39789,0
2264,39803,0
2224,39791,0
2260,39789,0
2240,39802,0
2266,39778,0
2240,39784,0
2240,39806,0
2224,39778,0
2248,39784,0
2266,39806,0
2208,39775,0
2184,39775,0
2161,39801,0
2112,39766,0
2072,39786,0
2052,39807,0
2040,39773,0
2060,39783,0
2026,39802,0
1992,39791,0
1988,39788,0
1996,39823,0
2012,39804,0
2018,39783,0
2032,39771,0
2032,39796,0
2042,39767,0
2042,39778,0
2056,39800,0
2046,39764,0
2057,39779,0
2034,39798,0
2032,39761,0
1988,39786,0
2020,39799,0
1960,39759,0
1952,39775,0
1952,39797,0
1952,39756,0
1936,39770,0
1970,39800,0
1970,39774,0
1988,39770,0
1993,39802,0
2008,39771,0
1996,39766,0
1993,39797,0
1985,39788,0
1985,39780,0
2008,39805,0
2028,39792,0
1956,39794,0
1940,39790,0
1928,39784,0
1918,39784,0
1912,39796,0
1896,39759,0
1888,39769,0
1890,39796,0
1888,39769,0
1898,39770,0
1912,39803,0
1923,39776,0
1944,39774,0
1960,39786,0
1952,39792,0
1984,39767,0
1960,39776,0
1984,39792,0
1964,39771,0
1964,39779,0
2024,39790,0
1968,39776,0
1956,39772,0
1936,39792,0
1915,39767,0
1920,39757,0
1896,39789,0
1892,39759,0
1893,39764,0
1908,39789,0
1932,39751,0
1968,39764,0
1940,39782,0
1968,39784,0
1970,39768,0
1980,39767,0
1984,39762,0
1996,39771,0
1984,39793,0
1980,39768,0
1968,39772,0
1954,39783,0
1940,39763,0
1936,39764,0
1908,39784,0
1922,39758,0
1900,39763,0
1910,39787,0
1889,39753,0
1914,39762,0
1916,39772,0
1936,39750,0
1948,39763,0
1992,39783,0
2026,39761,0
2020,39769,0
2020,39792,0
2016,39771,0
1984,39769,0
1985,39791,0
1988,39784,0
1972,39770,0
2000,39781,0
1960,39785,0
1920,39765,0
1930,39759,0
1937,39768,0
1932,39762,0
1938,39765,0
1952,39743,0
1976,39758,0
1992,39765,0
1994,39734,0
2033,39747,0
2066,39770,0
2096,39746,0
2064,39751,0
2084,39756,0
2064,39756,0
2068,39740,0
2044,39736,0
2040,39757,0
2000,39733,0
1992,39724,0
1984,39748,0
2000,39716,0
2000,39722,0
2010,39752,0
2006,39711,0
2019,39722,0
2012,39738,0
2057,39701,0
2042,39708,0
2062,39722,0
2096,39690,0
2064,39675,0
2065,39713,0
2064,39706,0
2061,39705,0
2046,39700,0
2047,39716,0
2016,39699,0
2000,39702,0
1996,39720,0
2012,39690,0
2000,39686,0
2017,39718,0
2004,39683,0
2040,39697,0
2042,39704,0
2080,39685,0
2072,39691,0
2106,39708,0
2080,39666,0
2088,39682,0
2152,39703,0
2144,39668,0
2106,39684,0
2124,39704,0
2065,39658,0
2081,39678,0
2018,39700,0
2017,39664,0
2022,39679,0
1982,39706,0
2008,39667,0
2016,39679,0
1984,39675,0
1994,39692,0
2016,39677,0
2026,39672,0
2072,39679,0
2105,39688,0
2080,39681,0
2090,39671,0
2104,39686,0
2097,39676,0
2092,39667,0
2079,39691,0
2052,39666,0
2056,39671,0
2020,39696,0
2020,39662,0
1992,39665,0
2000,39687,0
1972,39659,0
1972,39678,0
1960,39691,0
2004,39673,0
2032,39672,0
2032,39695,0
2048,39666,0
2060,39666,0
2048,39695,0
2050,39661,0
2050,39678,0
2042,39702,0
2050,39678,0
2048,39671,0
2002,39677,0
1992,39674,0
1968,39676,0
1961,39684,0
1992,39666,0
1956,39671,0
1956,39693,0
1949,39656,0
1970,39667,0
1984,39692,0
2002,39657,0
2034,39664,0
2032,39692,0
2072,39651,0
2060,39667,0
2080,39681,0
2047,39666,0
2064,39659,0
2036,39685,0
2016,39663,0
2000,39669,0
2016,39702,0
1978,39671,0
1973,39679,0
1952,39689,0
1980,39685,0
1944,39673,0
1932,39695,0
1956,39681,0
1966,39661,0
2000,39678,0
2017,39689,0
2004,39673,0
2016,39654,0
2020,39673,0
2016,39668,0
2040,39668,0
2052,39664,0
2012,39664,0
2008,39692,0
2000,39672,0
1984,39663,0
1968,39681,0
1972,39674,0
1952,39658,0
1978,39678,0
1956,39684,0
1972,39651,0
1960,39670,0
2004,39687,0
1988,39662,0
2008,39665,0
2018,39682,0
2064,39657,0
2064,39663,0
2070,39681,0
2082,39666,0
2083,39653,0
2064,39670,0
2045,39662,0
2032,39651,0
2016,39674,0
2016,39646,0
1992,39653,0
1956,39651,0
1944,39667,0
1936,39661,0
1952,39643,0
1978,39652,0
1976,39665,0
2018,39638,0
2036,39644,0
2040,39688,0
2060,39645,0
2060,39657,0
2086,39679,0
2072,39649,0
2102,39654,0
2064,39679,0
2072,39679,0
2044,39653,0
2040,39677,0
2016,39679,0
2012,39656,0
2004,39673,0
2033,39687,0
2024,39657,0
2030,39672,0
2040,39676,0
2082,39660,0
2045,39672,0
2060,39679,0
2100,39668,0
2108,39663,0
2104,39678,0
2114,39672,0
2084,39655,0
2080,39667,0
2073,39664,0
2060,39670,0
2052,39681,0
2033,39654,0
2016,39663,0
2010,39684,0
1988,39650,0
1992,39659,0
1968,39693,0
1981,39652,0
1980,39666,0
2008,39690,0
2000,39669,0
2036,39673,0
2036,39709,0
2082,39684,0
2064,39676,0
2074,39711,0
2080,39695,0
2117,39679,0
2114,39697,0
2103,39700,0
2085,39696,0
2074,39688,0
2020,39718,0
2020,39686,0
2034,39690,0
2033,39711,0
2024,39699,0
2032,39689,0
2020,39705,0
2024,39696,0
2047,39693,0
2047,39707,0
2064,39734,0
2101,39714,0
2090,39727,0
2088,39713,0
2096,39720,0
2076,39736,0
2068,39711,0
2070,39719,0
2028,39740,0
2048,39723,0
2034,39734,0
2020,39751,0
2000,39726,0
2020,39732,0
2005,39754,0
2016,39718,0
2024,39730,0
2072,39750,0
2099,39730,0
2112,39735,0
2132,39758,0
2132,39742,0
1568,39748,0
2116,39763,0
2124,39757,0
2112,39751,0
2128,39772,0
2108,39769,0
2047,39757,0
2026,39757,0
2024,39767,0
2000,39785,0
2020,39772,0
1988,39781,0
1986,39764,0
2002,39788,0
2032,39771,0
2032,39769,0
2064,39783,0
2080,39787,0
2104,39777,0
2112,39784,0
2096,39800,0
2116,39783,0
2116,39771,0
2120,39798,0
2088,39785,0
2080,39769,0
2064,39802,0
2080,39770,0
2064,39786,0
2060,39806,0
2048,39770,0
2056,39784,0
2034,39799,0
2036,39779,0
2041,39785,0
2058,39812,0
2100,39779,0
2117,39784,0
2092,39781,0
2096,39819,0
2104,39797,0
2116,39796,0
2116,39801,0
2112,39789,0
2098,39817,0
2112,39814,0
2088,39798,0
2068,39800,0
2072,39826,0
2057,39797,0
2044,39801,0
2064,39819,0
2034,39806,0
2056,39791,0
2068,39823,0
2088,39790,0
2089,39794,0
2100,39821,0
2112,39782,0
2164,39795,0
2154,39821,0
2154,39801,0
2152,39801,0
2149,39827,0
2120,39817,0
2098,39798,0
2082,39815,0
2064,39827,0
2072,39805,0
2032,39836,0
2032,39800,0
2032,39803,0
2072,39799,0
2036,39804,0
2081,39820,0
2080,39795,0
2088,39805,0
2104,39826,0
2116,39809,0
2096,39804,0
2135,39816,0
2120,39825,0
2180,39810,0
2112,39822,0
2120,39821,0
2084,39812,0
2080,39799,0
2184,39836,0
2045,39814,0
2064,39818,0
2060,39830,0
2066,39804,0
2080,39807,0
2105,39832,0
2108,39814,0
2112,39810,0
2136,39835,0
2166,39809,0
2180,39815,0
2210,39839,0
2220,39805,0
2185,39836,0
2182,39833,0
2168,39854,0
2156,39839,0
2144,39851,0
2128,39833,0
2104,39832,0
2106,39851,0
2096,39834,0
2112,39826,0
2080,39844,0
2114,39813,0
2096,39820,0
2144,39840,0
2130,39804,0
2160,39825,0
2148,39837,0
2192,39805,0
2168,39830,0
2176,39856,0
2200,39817,0
2216,39824,0
2195,39849,0
2186,39842,0
2176,39831,0
2153,39843,0
2122,39858,0
2116,39833,0
2108,39831,0
2104,39867,0
2128,39834,0
2130,39829,0
2120,39824,0
2148,39824,0
2168,39831,0
2154,39841,0
2164,39837,0
2178,39854,0
2180,39815,0
2172,39830,0
2188,39849,0
2188,39822,0
2196,39827,0
2212,39863,0
2140,39835,0
2148,39828,0
2106,39848,0
2120,39848,0
2072,39835,0
2104,39851,0
2072,39853,0
2096,39832,0
2096,39850,0
2144,39862,0
2168,39827,0
2176,39835,0
2192,39843,0
2189,39838,0
2200,39834,0
2177,39846,0
2184,39834,0
2173,39823,0
2184,39843,0
2164,39828,0
2104,39833,0
2058,39835,0
2080,39836,0
2076,39840,0
2092,39842,0
2090,39826,0
2096,39847,0
2108,39833,0
2112,39827,0
2138,39848,0
2156,39836,0
2192,39833,0
2170,39846,0
2244,39850,0
2184,39824,0
2208,39842,0
2184,39844,0
2176,39832,0
2144,39837,0
2152,39857,0
2104,39830,0
2128,39837,0
2116,39848,0
2112,39836,0
2104,39837,0
2112,39842,0
2104,39823,0
2118,39822,0
2136,39851,0
2162,39820,0
2184,39823,0
2200,39842,0
2180,39836,0
2184,39833,0
2192,39831,0
2220,39833,0
2184,39835,0
2180,39838,0
2168,39837,0
2156,39849,0
2140,39857,0
2120,39835,0
2133,39832,0
2128,39864,0
2108,39834,0
2124,39835,0
2112,39858,0
2136,39833,0
2108,39831,0
2146,39851,0
2160,39818,0
2156,39834,0
2168,39854,0
2164,39820,0
2149,39836,0
2130,39861,0
2112,39820,0
2091,39843,0
2048,39854,0
2028,39824,0
2035,39850,0
2001,39859,0
2016,39834,0
2026,39841,0
2004,39854,0
2016,39848,0
2032,39836,0
2086,39855,0
2088,39849,0
2152,39847,0
2176,39868,0
2224,39853,0
2272,39840,0
2312,39874,0
2376,39856,0
2455,39850,0
2504,39872,0
2616,39844,0
2664,39852,0
2788,39869,0
2856,39842,0
2994,39852,0
3071,39883,0
3240,39839,0
3336,39857,0
3512,39870,0
3640,39845,0
3786,39865,0
3928,39882,0
4064,39844,0
4088,39867,0
4095,39883,0
4095,39856,0
4095,39865,0
4095,39885,0
4095,39860,0
4056,39854,0
4056,39873,0
4020,39869,0
3984,39860,0
3928,39865,0
3839,39857,0
3760,39867,0
3668,39885,0
3592,39865,0
3492,39870,0
3360,39883,0
3296,39877,0
3200,39869,0
3184,39886,0
3080,39880,0
3080,39871,0
3012,39878,0
3010,39874,0
2952,39861,0
2928,39892,0
2920,39877,0
2912,39868,0
2882,39878,0
2838,39888,0
2796,39869,0
2748,39890,0
2684,39891,0
2648,39876,0
2608,39874,0
2585,39897,0
2592,39873,0
2592,39871,0
2504,39889,0
2494,39861,0
2488,39871,0
2476,39869,0
2448,39870,0
2436,39873,0
2452,39892,0
2400,39863,0
2416,39866,0
2377,39899,0
2322,39868,0
2304,39864,0
2252,39889,0
2248,39855,0
2208,39868,0
2196,39897,0
2156,39849,0
2156,39859,0
2132,39892,0
2132,39863,0
2120,39863,0
2192,39891,0
2176,39863,0
2169,39872,0
2198,39900,0
2184,39871,0
2156,39869,0
2152,39889,0
2145,39888,0
2136,39867,0
2136,39888,0
2112,39899,0
2060,39877,0
2028,39873,0
2010,39885,0
2000,39877,0
1988,39879,0
1980,39895,0
1972,39877,0
1982,39878,0
2000,39896,0
2000,39869,0
2000,39875,0
2015,39897,0
2036,39872,0
2040,39889,0
2016,39898,0
2024,39878,0
1996,39886,0
2000,39902,0
1968,39865,0
1960,39879,0
1936,39902,0
1946,39867,0
1924,39878,0
1920,39907,0
1948,39868,0
1906,39886,0
1920,39903,0
1920,39878,0
1935,39884,0
1952,39912,0
1984,39870,0
1968,39910,0
2004,39891,0
1972,39894,0
1970,39907,0
1964,39893,0
1952,39895,0
1940,39912,0
1916,39895,0
1904,39899,0
1892,39920,0
1888,39885,0
1892,39900,0
1876,39919,0
1908,39898,0
1892,39894,0
1920,39917,0
1918,39890,0
1941,39898,0
1960,39919,0
1952,39895,0
1985,39899,0
1984,39923,0
1998,39879,0
1988,39898,0
1990,39923,0
1977,39891,0
1936,39894,0
1926,39931,0
1915,39912,0
1933,39896,0
1925,39919,0
1929,39913,0
1898,39910,0
1898,39898,0
1908,39903,0
1910,39896,0
1940,39909,0
1948,39920,0
1968,39880,0
1978,39889,0
1972,39914,0
1982,39872,0
1972,39894,0
2010,39906,0
1956,39883,0
1960,39888,0
1936,39915,0
1952,39881,0
1904,39890,0
1936,39921,0
1904,39897,0
1892,39893,0
1893,39910,0
1925,39911,0
1942,39888,0
1955,39901,0
1976,39910,0
1994,39887,0
1994,39897,0
2011,39897,0
2029,39886,0
2028,39876,0
2056,39892,0
2058,39880,0
2016,39880,0
2000,39889,0
1985,39885,0
1974,39896,0
1984,39888,0
1960,39870,0
1940,39900,0
1950,39851,0
1936,39869,0
1944,39890,0
1952,39861,0
1999,39860,0
1980,39885,0
2034,39863,0
2016,39865,0
2045,39878,0
2042,39876,0
2080,39857,0
2058,39883,0
2060,39868,0
2060,39853,0
2064,39872,0
2052,39877,0
2036,39853,0
2034,39848,0
2008,39874,0
1982,39848,0
1977,39842,0
1981,39861,0
2008,39846,0
2040,39836,0
2026,39855,0
2072,39833,0
2045,39845,0
2064,39845,0
2073,39838,0
2080,39820,0
2088,39843,0
2080,39827,0
2096,39818,0
2068,39842,0
2047,39808,0
2036,39821,0
2032,39842,0
2008,39796,0
2016,39813,0
2000,39835,0
2040,39798,0
2000,39825,0
2016,39833,0
2004,39824,0
2056,39810,0
2040,39834,0
2088,39837,0
2096,39808,0
2104,39817,0
2105,39840,0
2106,39820,0
2076,39805,0
2076,39829,0
2064,39813,0
2043,39818,0
2048,39835,0
2038,39804,0
1994,39817,0
1986,39822,0
2016,39818,0
1992,39810,0
2000,39815,0
1984,39815,0
2000,39833,0
2009,39802,0
2016,39819,0
2047,39829,0
2047,39798,0
2066,39819,0
2066,39837,0
2084,39798,0
2060,39809,0
2072,39831,0
2064,39834,0
2080,39806,0
2005,39831,0
1992,39831,0
1980,39811,0
1992,39819,0
1984,39832,0
1976,39808,0
1976,39812,0
1972,39824,0
1952,39808,0
1992,39802,0
1995,39823,0
2019,39800,0
2036,39796,0
2064,39816,0
2024,39814,0
2036,39819,0
2040,39802,0
2036,39785,0
2032,39811,0
2012,39791,0
1993,39800,0
1976,39818,0
1960,39784,0
1952,39791,0
1956,39820,0
1945,39774,0
1936,39793,0
1960,39821,0
1952,39794,0
1988,39795,0
1984,39815,0
2020,39786,0
2018,39793,0
2040,39828,0
2036,39783,0
2112,39793,0
2108,39818,0
2096,39777,0
2080,39793,0
2080,39819,0
2028,39788,0
2024,39800,0
2018,39824,0
2013,39798,0
2016,39788,0
2032,39819,0
2004,39795,0
1984,39793,0
1988,39803,0
2000,39793,0
2016,39786,0
2026,39804,0
2032,39805,0
2034,39818,0
2032,39792,0
2036,39800,0
2066,39816,0
2034,39803,0
2024,39794,0
2036,39819,0
2000,39810,0
2002,39795,0
1976,39818,0
1984,39813,0
1972,39791,0
2004,39794,0
1972,39809,0
2016,39787,0
2032,39791,0
2048,39805,0
2072,39792,0
2080,39794,0
2073,39794,0
2076,39775,0
2076,39775,0
2085,39789,0
2090,39768,0
2096,39775,0
2036,39778,0
2016,39777,0
2010,39775,0
1985,39774,0
1978,39769,0
1958,39794,0
1960,39776,0
1960,39763,0
1968,39787,0
1978,39776,0
2000,39770,0
2026,39765,0
2040,39779,0
2092,39751,0
2084,39765,0
2113,39778,0
2108,39750,0
2124,39749,0
2100,39765,0
2090,39746,0
2144,39743,0
2096,39755,0
2096,39734,0
2056,39726,0
2052,39733,0
2080,39718,0
2020,39725,0
2021,39745,0
2021,39713,0
2025,39723,0
2064,39744,0
2070,39704,0
2052,39710,0
2068,39714,0
2072,39721,0
2080,39708,0
2088,39687,0
2112,39712,0
2090,39730,0
2090,39711,0
2076,39699,0
2084,39720,0
2047,39726,0
2069,39699,0
2026,39720,0
2034,39714,0
2012,39689,0
2032,39709,0
2012,39697,0
2028,39685,0
2016,39700,0
2024,39688,0
2047,39689,0
2100,39711,0
2092,39701,0
2104,39684,0
2117,39688,0
2124,39709,0
2100,39686,0
2101,39695,0
2092,39701,0
2109,39671,0
2080,39670,0
2016,39740,0
2008,39703,0
2000,39703,0
2000,39686,0
1992,39696,0
1992,39699,0
2016,39682,0
2052,39679,0
2064,39706,0
2082,39688,0
2074,39695,0
2108,39712,0
2100,39689,0
2160,39693,0
2104,39720,0
2112,39703,0
2076,39701,0
2072,39707,0
2047,39710,0
2032,39705,0
2064,39725,0
2052,39721,0
2048,39703,0
2048,39715,0
2040,39731,0
2081,39713,0
2056,39708,0
2066,39727,0
2112,39711,0
2094,39702,0
2120,39735,0
2136,39718,0
2090,39788,0
2096,39740,0
2096,39741,0
2084,39741,0
2064,39749,0
2058,39728,0
2044,39755,0
2064,39735,0
2032,39727,0
2032,39756,0
2036,39738,0
2048,39732,0
2036,39749,0
2068,39730,0
2056,39732,0
2096,39759,0
2088,39723,0
2112,39732,0
2116,39762,0
2124,39746,0
2124,39746,0
2153,39762,0
2148,39757,0
2144,39755,0
2125,39775,0
2129,39769,0
2106,39759,0
2073,39758,0
2064,39781,0
2057,39762,0
2080,39755,0
2074,39789,0
2052,39788,0
2080,39775,0
2096,39761,0
2096,39763,0
2112,39766,0
2116,39779,0
2136,39752,0
2130,39754,0
2168,39770,0
2136,39738,0
2140,39765,0
2140,39780,0
2124,39758,0
2132,39767,0
2090,39781,0
2096,39742,0
2072,39766,0
2084,39780,0
2090,39743,0
2072,39754,0
2072,39778,0
2116,39731,0
2132,39747,0
2144,39768,0
2164,39756,0
2165,39744,0
2168,39772,0
2136,39753,0
2132,39744,0
2132,39765,0
2148,39766,0
2148,39747,0
2106,39770,0
2092,39753,0
2073,39755,0
2068,39750,0
2064,39744,0
2060,39749,0
2044,39723,0
2047,39737,0
2032,39755,0
2046,39733,0
2060,39727,0
2091,39754,0
2096,39745,0
2132,39726,0
2116,39737,0
2152,39735,0
2128,39713,0
2144,39731,0
2122,39741,0
2116,39707,0
2108,39707,0
2128,39717,0
2104,39706,0
2122,39687,0
2082,39706,0
2088,39690,0
2070,39676,0
2073,39707,0
2092,39695,0
2096,39677,0
2136,39696,0
2168,39671,0
2152,39660,0
2170,39664,0
2200,39663,0
2200,39678,0
2176,39688,0
2208,39696,0
2208,39679,0
2204,39674,0
2180,39665,0
2162,39691,0
2148,39670,0
2176,39662,0
2116,39683,0
2138,39659,0
2128,39661,0
2144,39673,0
2132,39653,0
2170,39662,0
2160,39677,0
2172,39639,0
2176,39660,0
2228,39683,0
2224,39646,0
2220,39665,0
2224,39686,0
2208,39646,0
2169,39657,0
2165,39680,0
2150,39669,0
2169,39654,0
2164,39685,0
2148,39683,0
2114,39675,0
2116,39664,0
2112,39690,0
2148,39661,0
2124,39668,0
2156,39673,0
2154,39663,0
2168,39697,0
2176,39670,0
2194,39677,0
2236,39694,0
2201,39666,0
2208,39683,0
2232,39703,0
2192,39671,0
2209,39689,0
2172,39716,0
2185,39689,0
2144,39698,0
2148,39723,0
2128,39720,0
2168,39698,0
2188,39721,0
2162,39715,0
2176,39718,0
2185,39737,0
2184,39731,0
2188,39717,0
2200,39738,0
2221,39743,0
2256,39730,0
2260,39741,0
2248,39735,0
2218,39746,0
2208,39737,0
2180,39744,0
2164,39668,0
2145,39767,0
2128,39730,0
2118,39740,0
2112,39766,0
2112,39742,0
2104,39747,0
2159,39778,0
2128,39747,0
2168,39752,0
2156,39786,0
2200,39750,0
2192,39762,0
2216,39788,0
2216,39760,0
2209,39772,0
2208,39797,0
2240,39786,0
2257,39772,0
2214,39810,0
2200,39795,0
2192,39785,0
2176,39805,0
2155,39807,0
2120,39787,0
2139,39795,0
2152,39816,0
2164,39791,0
2116,39789,0
2130,39799,0
2180,39801,0
2166,39797,0
2160,39815,0
2204,39817,0
2193,39830,0
2168,39811,0
2184,39805,0
2168,39843,0
2176,39818,0
2156,39808,0
2128,39835,0
2132,39813,0
2112,39824,0
2116,39839,0
2104,39804,0
2112,39817,0
2085,39840,0
2090,39814,0
2104,39813,0
2145,39841,0
2148,39815,0
2144,39821,0
2157,39840,0
2145,39809,0
1602,39817,0
2126,39837,0
2126,39807,0
2108,39818,0
2112,39846,0
2100,39811,0
2056,39819,0
2046,39827,0
2040,39818,0
2032,39839,0
2041,39848,0
2092,39831,0
2088,39832,0
2114,39847,0
2160,39833,0
2208,39826,0
2292,39855,0
2335,39833,0
2384,39832,0
2488,39857,0
2536,39829,0
2688,39826,0
2712,39862,0
2856,39832,0
2912,39833,0
3016,39854,0
3096,39832,0
3268,39836,0
3376,39856,0
3480,39824,0
3600,39836,0
3712,39860,0
3860,39834,0
3866,39845,0
3961,39857,0
4038,39849,0
4095,39844,0
4080,39853,0
4028,39846,0
4016,39841,0
3970,39841,0
3928,39843,0
3828,39847,0
3776,39847,0
3652,39857,0
3560,39867,0
3464,39837,0
3376,39851,0
3295,39859,0
3180,39848,0
3154,39851,0
3042,39872,0
3032,39841,0
2960,39836,0
2996,39850,0
2960,39828,0
2948,39831,0
3008,39853,0
3000,39835,0
3017,39829,0
2970,39867,0
2952,39834,0
2928,39835,0
2880,39856,0
2800,39828,0
2752,39839,0
2696,39848,0
2688,39829,0
2632,39839,0
2544,39864,0
2536,39858,0
2476,39858,0
2441,39862,0
2464,39867,0
2420,39853,0
2400,39865,0
2408,39837,0
2408,39858,0
2386,39872,0
2388,39856,0
2374,39840,0
2340,39864,0
2368,39844,0
2320,39846,0
2314,39879,0
2264,39838,0
2288,39854,0
2209,39866,0
2184,39859,0
2192,39850,0
2194,39880,0
2212,39859,0
2212,39857,0
2194,39879,0
2187,39846,0
2176,39855,0
2188,39884,0
2184,39851,0
2186,39867,0
2200,39888,0
2185,39861,0
2144,39864,0
2122,39897,0
2120,39884,0
2080,39904,0
2058,39896,0
2032,39877,0
2028,39906,0
2004,39884,0
1992,39882,0
1985,39911,0
1984,39909,0
2001,39896,0
2016,39915,0
2008,39927,0
2016,39900,0
2033,39926,0
2024,39934,0
2036,39910,0
2028,39899,0
2028,39938,0
2036,39923,0
2073,39922,0
2048,39936,0
2032,39915,0
2018,39910,0
1986,39938,0
1966,39920,0
1958,39916,0
1944,39942,0
1946,39930,0
1972,39921,0
1965,39951,0
1940,39958,0
1948,39955,0
1960,39957,0
2010,39943,0
1992,39942,0
2037,39940,0
2004,39967,0
1964,39942,0
2016,39946,0
2004,39966,0
1988,39946,0
1989,39946,0
1960,39977,0
1960,39952,0
1952,39956,0
1938,39982,0
1920,39950,0
1936,39960,0
1920,39991,0
1914,39960,0
1932,39963,0
2000,39989,0
1996,39963,0
2016,39983,0
2016,39991,0
2050,39962,0
2008,39974,0
2016,40002,0
2013,39966,0
2003,39985,0
2009,40014,0
2002,39983,0
1952,39996,0
1917,40009,0
1932,40016,0
1932,40014,0
1924,40008,0
1932,39992,0
1932,40021,0
1941,39999,0
1960,40006,0
1994,40022,0
1988,39992,0
2001,39998,0
2024,40024,0
2040,39998,0
2036,40005,0
2020,40031,0
2006,39996,0
2024,40002,0
2000,40035,0
1976,40002,0
1968,40017,0
2000,40036,0
1989,40009,0
1992,40021,0
2000,40038,0
1992,40021,0
1984,40019,0
2000,40043,0
2011,40024,0
2041,40023,0
2056,40039,0
2074,40023,0
2056,40030,0
2066,40038,0
2068,40039,0
2080,40025,0
2074,40029,0
2075,40016,0
2052,40036,0
2036,39998,0
2020,40022,0
2005,40033,0
1996,39994,0
2010,40019,0
1988,40030,0
2004,40001,0
1982,40016,0
2008,40035,0
2026,40008,0
2032,40005,0
2052,40028,0
2068,40015,0
2088,40006,0
2138,40033,0
2134,40011,0
2154,40003,0
2153,40015,0
2145,40010,0
2117,39990,0
2104,40011,0
2088,40007,0
2080,39992,0
2072,39983,0
2068,40007,0
2024,39978,0
2017,39981,0
2052,39976,0
2032,39987,0
2034,39988,0
2047,39955,0
2064,39975,0
2080,39990,0
2096,39959,0
2108,39968,0
2128,39985,0
2121,39949,0
2140,39954,0
2166,39978,0
2104,39960,0
2112,39955,0
2080,39970,0
2080,39969,0
2058,39949,0
2058,39970,0
2056,39960,0
2100,39939,0
2086,39954,0
2092,39959,0
2098,39939,0
2113,39960,0
2104,39948,0
2125,39927,0
2132,39939,0
2136,39956,0
2176,39924,0
2161,39936,0
2128,39919,0
2112,39918,0
2082,39908,0
2098,39923,0
2046,39914,0
2034,39924,0
2020,39898,0
2008,39910,0
2032,39924,0
1994,39899,0
1992,39909,0
2008,39932,0
2016,39889,0
2052,39900,0
2040,39926,0
2088,39890,0
2072,39900,0
2096,39924,0
2080,39908,0
2068,39905,0
2098,39911,0
2101,39915,0
2084,39900,0
2080,39922,0
2048,39921,0
2022,39898,0
1988,39900,0
1980,39916,0
1972,39900,0
1997,39891,0
1992,39907,0
2000,39896,0
1984,39896,0
2001,39904,0
2020,39900,0
2028,39893,0
2040,39928,0
2047,39872,0
2064,39889,0
2060,39930,0
2065,39873,0
2056,39890,0
2046,39918,0
2036,39891,0
2012,39895,0
2009,39911,0
1977,39902,0
1992,39896,0
1960,39925,0
1976,39909,0
1964,39899,0
1978,39917,0
2000,39914,0
2040,39897,0
2058,39908,0
2080,39917,0
2116,39900,0
2091,39898,0
2082,39915,0
2088,39896,0
2098,39891,0
2066,39928,0
2080,39887,0
2058,39891,0
2016,39905,0
2004,39920,0
1988,39899,0
1992,39910,0
1984,39906,0
1984,39886,0
2012,39907,0
1996,39908,0
2016,39890,0
2020,39903,0
2020,39907,0
2046,39887,0
2056,39900,0
2080,39925,0
2052,39900,0
2082,39892,0
2064,39918,0
2068,39895,0
2033,39891,0
2017,39915,0
2008,39905,0
2016,39898,0
2006,39918,0
2006,39901,0
2012,39900,0
2016,39907,0
1972,39891,0
2049,39887,0
2034,39918,0
2058,39882,0
2098,39903,0
2092,39917,0
2096,39906,0
2100,39915,0
2100,39910,0
2112,39896,0
2076,39919,0
2052,39884,0
2036,39909,0
2020,39927,0
2004,39897,0
1984,39910,0
1997,39938,0
1984,39922,0
1994,39903,0
1972,39942,0
2004,39917,0
2000,39909,0
2032,39932,0
2112,39919,0
2056,39909,0
2090,39931,0
2106,39929,0
2108,39913,0
2112,39924,0
2119,39937,0
2106,39898,0
2076,39914,0
2056,39929,0
2064,39907,0
2030,39914,0
2072,39920,0
2032,39909,0
2008,39917,0
2008,39921,0
2009,39916,0
2016,39904,0
2036,39905,0
2056,39928,0
2072,39899,0
2068,39920,0
2092,39929,0
2092,39899,0
2132,39912,0
2112,39937,0
2080,39904,0
2100,39910,0
2068,39933,0
2089,39922,0
2024,39915,0
2032,39937,0
2016,39933,0
2016,39909,0
2008,39933,0
2040,39935,0
2052,39915,0
2060,39918,0
2081,39930,0
2128,39915,0
2107,39921,0
2120,39941,0
2124,39900,0
2156,39922,0
2160,39930,0
2165,39899,0
2120,39895,0
2100,39889,0
2082,39911,0
2073,39914,0
2064,39899,0
2042,39884,0
2040,39908,0
2036,39926,0
2016,39890,0
2032,39896,0
2034,39920,0
2063,39892,0
2064,39903,0
2100,39921,0
2096,39890,0
2168,39891,0
2120,39919,0
2148,39921,0
2128,39885,0
2124,39910,0
2152,39916,0
2136,39884,0
2136,39903,0
2096,39905,0
2082,39876,0
2096,39896,0
2040,39909,0
2036,39882,0
2034,39888,0
2037,39896,0
2100,39881,0
2072,39866,0
2072,39874,0
2088,39870,0
2100,39879,0
2114,39884,0
2128,39861,0
2132,39846,0
2136,39869,0
2130,39827,0
2116,39845,0
2096,39854,0
2082,39822,0
2072,39837,0
2052,39855,0
2064,39822,0
2028,39827,0
2040,39843,0
2047,39820,0
2080,39815,0
2032,39831,0
2044,39816,0
2080,39811,0
2128,39836,0
2140,39815,0
2156,39800,0
2160,39835,0
2160,39821,0
2144,39802,0
2137,39804,0
2128,39811,0
2128,39795,0
2120,39790,0
2104,39804,0
2046,39796,0
2045,39797,0
2044,39777,0
1994,39786,0
2058,39766,0
2034,39786,0
2056,39776,0
2070,39757,0
2084,39785,0
2100,39756,0
2112,39764,0
2132,39776,0
2116,39747,0
2148,39759,0
2124,39772,0
2144,39753,0
2116,39747,0
2120,39774,0
2080,39735,0
2058,39744,0
2044,39760,0
2064,39729,0
2089,39745,0
2049,39772,0
2087,39722,0
2052,39742,0
2044,39758,0
2060,39760,0
2065,39747,0
2091,39766,0
2120,39759,0
2126,39744,0
2096,39749,0
2096,39748,0
2100,39740,0
2108,39759,0
2104,39770,0
2088,39768,0
2080,39730,0
2064,39752,0
2060,39768,0
2056,39758,0
2044,39758,0
2055,39773,0
2080,39781,0
2080,39766,0
2098,39779,0
2128,39781,0
2152,39771,0
2176,39773,0
2192,39794,0
2184,39776,0
2218,39778,0
2232,39789,0
2225,39779,0
2226,39779,0
2221,39790,0
2184,39782,0
2148,39791,0
2118,39798,0
2140,39789,0
2097,39785,0
2104,39809,0
2106,39785,0
2178,39810,0
2068,39782,0
2088,39814,0
2138,39800,0
2112,39806,0
2136,39809,0
2176,39821,0
2164,39795,0
2192,39806,0
2204,39837,0
2192,39807,0
2192,39821,0
2168,39842,0
2184,39828,0
2146,39831,0
2144,39849,0
2114,39822,0
2136,39829,0
2092,39854,0
2084,39828,0
2080,39840,0
2112,39854,0
2118,39832,0
2112,39842,0
2128,39864,0
2150,39834,0
2176,39847,0
2162,39869,0
2172,39849,0
2181,39861,0
2210,39870,0
2220,39854,0
2172,39859,0
2168,39863,0
2180,39875,0
2136,39878,0
2112,39925,0
2104,39870,0
2098,39874,0
2128,39900,0
2096,39873,0
2112,39877,0
2092,39890,0
2119,39883,0
2120,39891,0
2160,39901,0
2154,39887,0
2176,39876,0
2164,39915,0
2178,39887,0
2164,39885,0
2176,39900,0
2152,39891,0
2180,39897,0
2184,39909,0
2164,39893,0
2128,39899,0
2112,39912,0
2101,39893,0
2116,39899,0
2096,39912,0
2104,39889,0
2176,39894,0
2150,39915,0
2128,39894,0
2138,39909,0
2148,39898,0
2168,39905,0
2172,39895,0
2172,39913,0
2162,39896,0
2168,39894,0
2152,39913,0
2136,39880,0
2124,39889,0
2139,39919,0
2100,39891,0
2128,39897,0
2084,39917,0
2100,39886,0
2080,39907,0
2096,39919,0
2096,39891,0
2124,39895,0
2128,39912,0
2180,39885,0
2187,39884,0
2192,39916,0
2200,39897,0
2208,39895,0
2188,39925,0
2177,39896,0
2176,39892,0
2164,39917,0
2176,39891,0
2104,39913,0
2088,39894,0
2076,39903,0
2060,39907,0
2047,39913,0
2076,39898,0
2072,39920,0
2052,39881,0
2052,39899,0
2072,39919,0
2068,39888,0
2080,39906,0
2080,39918,0
2104,39907,0
2100,39907,0
2088,39915,0
2056,39918,0
2028,39902,0
2044,39930,0
2036,39921,0
2080,39904,0
2089,39924,0
2120,39926,0
2136,39906,0
2180,39927,0
2226,39913,0
2256,39914,0
2324,39938,0
2412,39932,0
2508,39916,0
2632,39923,0
2730,39943,0
2796,39913,0
2916,39922,0
3024,39927,0
3136,39923,0
3232,39914,0
3340,39939,0
3448,39951,0
3528,39923,0
3668,39932,0
3730,39956,0
3856,39927,0
3945,39922,0
3988,39958,0
4095,39928,0
4048,39925,0
4095,39950,0
4040,39923,0
4088,39929,0
4000,39952,0
3936,39919,0
3872,39932,0
3876,39955,0
3793,39933,0
3728,39943,0
3600,39972,0
3483,39935,0
3360,39935,0
3234,39970,0
3154,39944,0
3116,39949,0
3072,39968,0
3024,39945,0
2920,39954,0
2920,39947,0
2904,39969,0
2924,39982,0
2890,39958,0
2880,39942,0
2874,39943,0
2856,39976,0
2840,39945,0
2808,39944,0
2776,39970,0
2748,39959,0
2688,39954,0
2688,39976,0
2592,39961,0
2572,39962,0
2496,39982,0
2488,39971,0
2428,39954,0
2400,39970,0
2369,39969,0
2402,39969,0
2386,39970,0
2389,39983,0
2384,39956,0
2389,39956,0
2346,39971,0
2328,39955,0
2346,39961,0
2332,39984,0
2356,39955,0
2300,39959,0
2232,40000,0
2209,39967,0
2180,39986,0
2152,39964,0
2128,39956,0
2116,39979,0
2100,39962,0
2092,39969,0
2046,39981,0
2080,39969,0
2080,39967,0
2109,39977,0
2098,39962,0
2136,39965,0
2112,39990,0
2120,39956,0
2112,39952,0
2122,39976,0
2088,39959,0
2066,39962,0
2047,39987,0
2052,39954,0
2022,39960,0
2122,39983,0
1992,39949,0
1980,39967,0
1964,39996,0
1952,39957,0
1954,39966,0
1960,39988,0
1984,39956,0
1994,39969,0
1980,39967,0
1984,39971,0
2000,39959,0
2009,39973,0
2000,39967,0
2002,40007,0
1992,39977,0
1984,39972,0
1960,39985,0
1956,39975,0
1936,39973,0
1920,39992,0
1912,39974,0
1904,39984,0
1882,39993,0
1898,39981,0
1882,39974,0
1908,40002,0
1900,39972,0
1920,39984,0
1941,40001,0
1984,39971,0
1984,39982,0
1992,40002,0
1996,39972,0
2028,39979,0
1972,40002,0
1972,39969,0
1962,39966,0
1944,40009,0
1936,39971,0
1938,39989,0
1888,39999,0
1886,39984,0
1876,39977,0
1888,39982,0
1896,39997,0
1984,40002,0
1928,39982,0
1950,39978,0
1952,40005,0
1962,39991,0
1984,39982,0
1991,40007,0
1996,39993,0
2016,39983,0
1964,40005,0
1968,39992,0
1938,39986,0
1932,40010,0
1904,39986,0
1889,39983,0
1884,40004,0
1900,39980,0
1893,39985,0
1905,40007,0
1925,39989,0
1922,39987,0
1920,40004,0
1928,40004,0
1957,39986,0
1973,40008,0
2020,39981,0
2004,39985,0
2008,39987,0
1985,39978,0
2008,39987,0
1964,39997,0
1960,39995,0
1956,39993,0
1920,39982,0
1910,39976,0
1936,40001,0
1922,39980,0
1936,39977,0
1919,40007,0
1928,39983,0
1952,39990,0
1952,40000,0
1984,39978,0
1994,39984,0
2016,40010,0
2016,39973,0
2024,39972,0
2020,40006,0
2060,39994,0
2052,39980,0
2028,40008,0
2034,39996,0
2002,39980,0
1968,39997,0
1978,40013,0
1950,39996,0
1954,39979,0
1976,40003,0
1977,39984,0
1972,39980,0
1970,39975,0
2001,39985,0
2024,39979,0
2047,40002,0
2056,39971,0
2068,40003,0
2066,39983,0
2112,39979,0
2073,39994,0
2080,39960,0
2068,39963,0
2040,39993,0
2053,39957,0
2004,39952,0
2020,39978,0
1985,39945,0
1992,39962,0
1970,39973,0
1976,39951,0
1988,39954,0
2040,39974,0
2048,39943,0
2068,39957,0
2096,39969,0
2145,39936,0
2096,39947,0
2096,39970,0
2112,39936,0
2105,39940,0
2098,39961,0
2086,39927,0
2065,39959,0
2008,39946,0
1992,39959,0
1980,39959,0
1984,39930,0
1994,39945,0
1968,39925,0
1960,39926,0
1980,39944,0
1996,39921,0
2016,39915,0
2037,39943,0
2044,39921,0
2084,39914,0
2084,39935,0
2108,39895,0
2080,39907,0
2096,39921,0
2100,39898,0
2066,39903,0
2047,39925,0
2120,39903,0
2052,39905,0
2032,39919,0
2017,39914,0
2004,39894,0
1972,39914,0
1969,39918,0
1968,39889,0
1990,39908,0
2008,39906,0
2016,39855,0
2016,39893,0
2020,39877,0
2029,39891,0
2024,39899,0
2028,39880,0
2018,39899,0
2004,39866,0
1990,39875,0
1974,39903,0
1968,39887,0
1949,39872,0
1928,39873,0
1945,39894,0
1932,39867,0
1944,39862,0
1944,39897,0
1972,39870,0
1976,39865,0
1992,39876,0
2032,39868,0
2037,39859,0
2064,39877,0
2052,39849,0
2048,39865,0
2036,39875,0
2018,39852,0
2040,39847,0
2021,39873,0
1972,39851,0
2002,39844,0
1979,39880,0
1948,39859,0
1948,39848,0
1952,39860,0
1941,39848,0
1954,39862,0
1962,39832,0
1976,39849,0
1992,39872,0
2034,39846,0
2014,39854,0
2008,39869,0
2021,39851,0
2016,39853,0
2032,39868,0
1986,39851,0
1988,39848,0
1960,39869,0
1968,39851,0
1940,39850,0
1932,39868,0
1937,39861,0
1960,39837,0
1960,39865,0
1996,39865,0
2020,39851,0
2020,39866,0
1472,39868,0
2030,39845,0
2044,39861,0
2052,39866,0
2068,39860,0
2056,39849,0
2052,39859,0
2028,39857,0
2016,39842,0
2000,39853,0
1984,39848,0
1960,39877,0
1946,39851,0
1954,39856,0
1928,39885,0
1928,39864,0
1940,39864,0
1965,39891,0
1952,39874,0
1984,39875,0
1988,39885,0
2040,39897,0
2026,39873,0
2028,39895,0
2036,39895,0
2036,39869,0
2046,39886,0
2080,39894,0
2066,39879,0
2056,39895,0
2076,39880,0
2056,39873,0
2008,39897,0
1995,39887,0
1988,39876,0
2028,39896,0
2002,39890,0
2011,39878,0
1984,39890,0
2004,39878,0
2018,39884,0
2028,39884,0
2047,39871,0
2060,39867,0
2064,39892,0
2047,39866,0
2088,39877,0
2052,39900,0
2040,39878,0
2047,39871,0
2020,39907,0
2032,39878,0
2000,39873,0
2016,39888,0
1992,39897,0
2008,39886,0
1989,39890,0
1996,39896,0
2009,39874,0
2048,39897,0
2073,39880,0
2066,39882,0
2086,39887,0
2082,39889,0
2080,39865,0
2098,39886,0
2084,39881,0
2080,39874,0
2084,39891,0
2084,39882,0
2018,39873,0
2004,39887,0
2004,39865,0
2002,39863,0
2000,39865,0
1994,39845,0
2000,39849,0
2008,39877,0
2000,39835,0
2024,39848,0
2044,39885,0
2052,39838,0
2057,39848,0
2080,39880,0
2064,39847,0
2084,39842,0
2064,39871,0
2080,39846,0
2044,39842,0
2044,39872,0
2056,39857,0
2052,39830,0
2038,39862,0
2025,39855,0
2020,39839,0
2016,39864,0
1984,39861,0
2008,39846,0
2012,39862,0
2043,39852,0
2088,39843,0
2097,39866,0
2084,39857,0
2098,39871,0
2112,39862,0
2106,39855,0
2108,39851,0
2104,39850,0
2084,39828,0
2108,39841,0
2047,39865,0
2032,39835,0
2013,39834,0
2021,39865,0
2016,39850,0
2016,39842,0
2040,39869,0
2024,39842,0
2046,39844,0
2064,39872,0
2072,39833,0
2096,39840,0
2104,39863,0
2152,39842,0
2162,39835,0
2176,39867,0
2161,39870,0
2150,39846,0
2125,39870,0
2112,39869,0
2096,39846,0
2073,39856,0
2088,39874,0
2074,39845,0
2040,39864,0
2064,39861,0
2041,39852,0
2040,39874,0
2056,39851,0
2068,39847,0
2088,39869,0
2110,39853,0
2128,39840,0
2128,39868,0
2132,39846,0
2143,39838,0
2140,39857,0
2184,39841,0
2120,39836,0
2106,39871,0
2072,39848,0
2072,39847,0
2042,39863,0
2040,39841,0
2032,39841,0
2080,39867,0
2073,39836,0
2075,39846,0
2088,39864,0
2098,39828,0
2096,39839,0
2144,39852,0
2130,39828,0
2125,39839,0
2164,39857,0
2154,39827,0
2132,39848,0
2112,39843,0
2104,39827,0
2076,39847,0
2056,39874,0
2036,39837,0
2044,39843,0
2028,39862,0
2000,39833,0
2000,39847,0
2000,39859,0
2025,39831,0
2047,39840,0
2080,39858,0
2080,39837,0
2106,39844,0
2120,39860,0
2136,39824,0
2160,39837,0
2138,39859,0
2144,39821,0
2176,39836,0
2145,39861,0
2156,39833,0
2112,39831,0
2104,39858,0
2064,39823,0
2048,39844,0
2042,39869,0
2054,39827,0
2068,39844,0
2076,39860,0
2072,39861,0
2092,39865,0
2112,39849,0
2136,39831,0
2138,39849,0
2164,39866,0
2172,39851,0
2172,39843,0
2180,39873,0
2170,39856,0
2164,39853,0
2168,39874,0
2132,39836,0
2160,39855,0
2120,39885,0
2124,39839,0
2100,39859,0
2132,39890,0
2114,39860,0
2124,39866,0
2140,39887,0
2192,39863,0
2202,39865,0
2218,39889,0
2240,39880,0
2272,39875,0
2226,39899,0
2228,39885,0
2217,39882,0
2199,39893,0
2216,39895,0
2128,39911,0
2128,39898,0
2122,39900,0
2120,39897,0
2124,39895,0
2120,39891,0
2128,39908,0
2152,39881,0
2192,39886,0
2176,39917,0
2208,39881,0
2223,39894,0
2208,39916,0
2240,39914,0
2208,39907,0
2220,39910,0
2210,39924,0
2192,39908,0
2152,39925,0
2152,39923,0
2168,39916,0
2144,39922,0
2132,39926,0
2134,39908,0
2147,39904,0
2133,39931,0
2128,39903,0
2140,39905,0
2164,39928,0
2173,39904,0
2232,39913,0
2252,39933,0
2188,39907,0
2200,39904,0
2200,39915,0
2208,39918,0
2208,39936,0
2200,39928,0
2194,39901,0
2180,39905,0
2168,39930,0
2148,39899,0
2144,39909,0
2136,39938,0
2136,39898,0
2192,39918,0
2136,39946,0
2156,39905,0
2148,39907,0
2176,39935,0
2202,39902,0
2178,39918,0
2184,39942,0
2240,39912,0
2240,39918,0
2240,39934,0
2236,39906,0
2224,39919,0
2184,39937,0
2161,39901,0
2144,39915,0
2144,39933,0
2152,39931,0
2150,39917,0
2120,39907,0
2124,39927,0
2128,39925,0
2177,39931,0
2160,39932,0
2180,39924,0
2192,39910,0
2201,39941,0
2208,39921,0
2208,39911,0
2204,39940,0
2212,39928,0
2192,39906,0
2208,39937,0
2168,39923,0
2172,39920,0
2132,39937,0
2140,39921,0
2116,39925,0
2100,39940,0
2100,39927,0
2148,39922,0
2133,39936,0
2153,39920,0
2204,39920,0
2192,39937,0
2184,39910,0
2221,39917,0
2198,39936,0
2208,39918,0
2244,39926,0
2230,39940,0
2168,39944,0
2164,39952,0
2160,39938,0
2128,39945,0
2066,39941,0
2056,39957,0
2036,39930,0
2028,39954,0
2032,39967,0
2032,39924,0
2047,39940,0
2063,39969,0
2064,39936,0
2120,39952,0
2108,39978,0
2168,39948,0
2156,39953,0
2232,39986,0
2208,39954,0
2234,39959,0
2264,39985,0
2324,39953,0
2349,39971,0
2402,39990,0
2460,39976,0
2550,39978,0
2624,40003,0
2729,39984,0
2841,39985,0
3002,40006,0
3144,39980,0
3284,39993,0
3360,39999,0
3496,40001,0
3636,40031,0
3768,39998,0
3888,40004,0
4000,40038,0
4080,40012,0
4052,40020,0
4052,40034,0
4064,40013,0
4080,40029,0
4088,40051,0
4056,40021,0
4095,40033,0
4024,40054,0
4048,40041,0
3952,40036,0
3952,40065,0
3816,40046,0
3736,40055,0
3664,40066,0
3648,40051,0
3569,40049,0
3472,40070,0
3380,40063,0
3296,40050,0
3185,40063,0
3125,40053,0
3072,40060,0
3024,40083,0
3016,40059,0
2992,40065,0
2880,40058,0
2852,40070,0
2820,40071,0
2789,40075,0
2768,40089,0
2746,40064,0
2736,40097,0
2720,40070,0
2704,40083,0
2688,40100,0
2664,40066,0
2660,40074,0
2608,40099,0
2608,40065,0
2558,40080,0
2537,40098,0
2472,40061,0
2456,40079,0
2400,40108,0
2368,40071,0
2336,40079,0
2362,40093,0
2340,40071,0
2328,40086,0
2328,40113,0
2320,40071,0
2296,40086,0
2296,40106,0
2307,40065,0
2296,40081,0
2348,40106,0
2317,40082,0
2304,40088,0
2257,40101,0
2264,40102,0
2232,40095,0
2208,40089,0
2178,40100,0
2168,40116,0
2156,40081,0
2136,40092,0
2084,40119,0
2068,40105,0
2067,40107,0
2047,40129,0
2064,40109,0
2040,40109,0
2064,40129,0
2036,40106,0
2068,40111,0
2064,40133,0
2076,40115,0
2072,40112,0
2112,40142,0
2112,40110,0
2140,40118,0
2100,40140,0
2090,40115,0
2028,40117,0
2016,40139,0
1990,40115,0
1981,40129,0
1977,40147,0
1984,40114,0
1984,40151,0
1944,40145,0
1956,40183,0
1964,40145,0
1980,40155,0
1986,40135,0
2024,40171,0
2004,40145,0
2004,40148,0
2012,40167,0
2008,40147,0
2008,40153,0
1980,40164,0
1992,40154,0
1948,40141,0
1938,40169,0
1904,40150,0
1904,40155,0
1908,40179,0
1888,40146,0
1880,40161,0
1920,40183,0
1920,40144,0
1960,40158,0
1955,40183,0
1968,40146,0
1434,40156,0
1986,40193,0
1993,40163,0
2002,40166,0
2024,40177,0
2018,40174,0
1980,40173,0
1965,40200,0
1961,40173,0
1952,40186,0
1920,40210,0
1913,40174,0
1904,40170,0
1900,40188,0
1892,40172,0
1896,40174,0
1914,40181,0
1952,40170,0
1938,40170,0
1972,40193,0
1960,40177,0
1993,40177,0
1980,40194,0
2000,40173,0
1988,40170,0
1986,40204,0
1976,40184,0
1990,40175,0
1972,40201,0
1956,40181,0
1962,40172,0
1936,40210,0
1928,40178,0
1913,40171,0
1910,40199,0
1914,40175,0
1932,40176,0
1948,40203,0
1976,40193,0
1960,40180,0
1968,40187,0
1988,40188,0
2000,40203,0
2028,40202,0
2008,40181,0
2016,40189,0
2016,40191,0
1992,40188,0
1982,40199,0
1991,40201,0
1964,40178,0
1978,40196,0
1954,40198,0
1968,40174,0
1972,40182,0
1978,40199,0
1976,40167,0
1984,40180,0
1984,40200,0
2021,40180,0
2034,40176,0
2040,40192,0
2034,40167,0
2048,40177,0
2028,40198,0
2036,40171,0
2032,40162,0
2026,40182,0
2040,40159,0
2008,40150,0
1996,40153,0
2020,40164,0
2008,40176,0
2009,40177,0
2047,40158,0
2032,40176,0
2068,40153,0
2052,40146,0
2068,40169,0
2100,40139,0
2098,40146,0
2080,40157,0
2112,40139,0
2081,40153,0
2104,40164,0
2100,40119,0
2064,40135,0
2074,40154,0
2032,40128,0
2058,40132,0
2050,40151,0
2048,40140,0
2065,40123,0
2054,40153,0
2064,40138,0
2058,40132,0
2076,40144,0
2092,40132,0
2109,40123,0
2136,40153,0
2152,40137,0
2120,40150,0
2113,40131,0
2116,40132,0
2120,40139,0
2092,40114,0
2065,40139,0
2041,40104,0
2028,40102,0
2047,40135,0
2016,40091,0
2020,40102,0
2027,40130,0
2016,40081,0
2041,40111,0
2047,40117,0
2072,40084,0
2068,40092,0
2096,40113,0
2080,40119,0
2088,40108,0
2176,40116,0
2120,40112,0
2108,40095,0
2090,40113,0
2072,40123,0
2060,40085,0
2024,40109,0
2010,40096,0
1990,40080,0
1980,40102,0
1992,40106,0
1984,40077,0
1956,40081,0
1961,40083,0
1984,40087,0
1994,40078,0
2016,40075,0
2034,40078,0
2044,40097,0
2046,40084,0
2040,40065,0
2045,40089,0
2052,40075,0
2042,40069,0
2028,40095,0
2056,40065,0
2024,40074,0
2016,40096,0
1960,40055,0
1984,40068,0
1936,40074,0
1936,40050,0
1936,40059,0
1976,40079,0
1988,40049,0
1996,40059,0
2012,40086,0
2022,40045,0
2006,40065,0
2022,40083,0
2034,40053,0
2037,40067,0
2084,40078,0
2060,40049,0
2016,40048,0
1985,40052,0
1988,40051,0
2004,40075,0
1962,40066,0
1994,40062,0
1964,40083,0
1956,40062,0
1936,40056,0
1976,40071,0
1973,40055,0
2009,40049,0
2004,40085,0
2034,40054,0
2016,40051,0
2064,40067,0
2046,40041,0
2056,40053,0
2028,40074,0
2010,40056,0
2008,40045,0
2024,40069,0
2006,40037,0
2004,40057,0
1985,40071,0
1984,40046,0
1992,40043,0
1966,40060,0
1973,40028,0
1992,40040,0
2032,40076,0
2037,40049,0
2042,40085,0
2047,40050,0
2056,40063,0
2066,40059,0
2064,40060,0
2066,40073,0
2052,40047,0
2084,40082,0
2024,40070,0
2010,40067,0
2000,40076,0
2026,40071,0
1988,40064,0
2016,40082,0
1980,40077,0
1992,40055,0
1980,40072,0
2016,40075,0
2008,40058,0
2032,40082,0
2046,40075,0
2092,40059,0
2106,40083,0
2116,40088,0
2120,40063,0
2125,40076,0
2104,40089,0
2082,40061,0
2070,40077,0
2050,40073,0
2052,40061,0
2048,40085,0
1994,40085,0
1994,40074,0
1986,40085,0
1988,40079,0
1992,40076,0
2028,40075,0
2016,40051,0
2025,40062,0
2040,40081,0
2088,40054,0
2068,40068,0
2087,40086,0
2088,40056,0
2124,40057,0
2096,40074,0
2108,40056,0
2068,40062,0
2064,40084,0
2036,40064,0
2024,40063,0
2020,40080,0
2050,40067,0
2049,40065,0
2048,40082,0
2048,40052,0
2056,40066,0
2050,40079,0
2058,40055,0
2072,40070,0
2072,40089,0
2112,40052,0
2105,40058,0
2074,40091,0
2072,40090,0
2064,40090,0
2052,40085,0
2028,40070,0
2024,40092,0
2001,40063,0
1992,40072,0
1994,40093,0
2006,40062,0
2000,40073,0
2009,40090,0
2012,40077,0
2046,40063,0
2036,40088,0
2085,40078,0
2072,40075,0
2112,40088,0
2096,40059,0
2100,40065,0
2128,40094,0
2122,40054,0
2121,40073,0
2112,40088,0
2092,40053,0
2085,40071,0
2042,40095,0
2030,40055,0
2025,40072,0
2032,40092,0
2048,40068,0
2058,40075,0
2040,40088,0
2056,40080,0
2072,40076,0
2092,40080,0
2104,40081,0
2120,40103,0
2124,40080,0
2132,40081,0
2144,40118,0
2130,40093,0
2128,40086,0
2132,40101,0
2104,40094,0
2120,40084,0
2080,40112,0
2080,40112,0
2046,40094,0
2080,40101,0
2046,40114,0
2040,40086,0
2047,40090,0
2096,40106,0
2116,40095,0
2132,40088,0
2178,40112,0
2154,40090,0
2148,40088,0
2148,40120,0
2150,40086,0
2154,40098,0
2160,40115,0
2152,40088,0
2116,40106,0
2088,40109,0
2064,40091,0
2054,40096,0
2044,40097,0
2064,40087,0
2032,40114,0
2036,40107,0
2080,40094,0
2064,40121,0
2072,40106,0
2112,40105,0
2112,40116,0
2152,40098,0
2144,40100,0
2160,40129,0
2144,40112,0
2176,40101,0
2148,40130,0
2136,40109,0
2120,40105,0
2146,40115,0
2120,40108,0
2113,40105,0
2096,40139,0
2088,40110,0
2064,40117,0
2075,40140,0
2088,40116,0
2084,40112,0
2116,40133,0
2112,40166,0
2110,40130,0
2120,40120,0
2128,40119,0
2132,40132,0
2122,40150,0
2114,40102,0
2113,40130,0
2088,40153,0
2080,40110,0
2064,40123,0
2071,40149,0
2084,40117,0
2080,40120,0
2056,40148,0
2084,40112,0
2072,40125,0
2112,40149,0
2108,40119,0
2128,40143,0
2184,40149,0
2186,40117,0
2185,40143,0
2208,40174,0
2181,40132,0
2181,40149,0
2160,40178,0
2136,40154,0
2112,40151,0
2107,40169,0
2112,40169,0
2112,40169,0
2068,40166,0
2092,40159,0
2116,40177,0
2096,40155,0
2112,40173,0
2128,40182,0
2162,40154,0
2180,40163,0
2178,40188,0
2206,40156,0
2210,40168,0
2224,40193,0
2224,40168,0
2248,40171,0
2224,40188,0
2228,40165,0
2192,40180,0
2192,40200,0
2156,40172,0
2152,40181,0
2152,40189,0
2180,40181,0
2176,40188,0
2176,40205,0
2192,40177,0
2178,40192,0
2176,40208,0
2182,40195,0
2200,40191,0
2242,40198,0
2244,40176,0
2248,40193,0
2208,40192,0
2212,40194,0
2192,40205,0
2174,40207,0
2152,40205,0
2138,40228,0
2120,40199,0
2140,40205,0
2105,40229,0
2122,40202,0
2092,40215,0
2124,40246,0
2116,40205,0
2176,40219,0
2168,40231,0
2208,40201,0
2200,40210,0
2240,40243,0
2232,40202,0
2232,40224,0
2240,40249,0
2273,40222,0
2272,40226,0
2252,40260,0
2257,40226,0
2208,40240,0
2152,40265,0
2137,40235,0
2106,40238,0
2106,40258,0
2112,40248,0
2112,40247,0
2084,40276,0
2110,40252,0
2128,40262,0
2152,40248,0
2168,40258,0
2193,40266,0
2216,40260,0
2224,40264,0
2224,40284,0
2220,40264,0
2216,40284,0
2231,40302,0
2180,40265,0
2196,40282,0
2160,40292,0
2160,40279,0
2128,40283,0
2144,40305,0
2120,40293,0
2116,40301,0
2128,40310,0
2176,40296,0
2196,40286,0
2208,40314,0
2220,40301,0
2232,40287,0
2208,40322,0
2216,40301,0
2214,40301,0
2208,40332,0
2212,40315,0
2240,40308,0
2144,40306,0
2128,40297,0
2120,40310,0
2124,40307,0
2112,40314,0
2108,40332,0
2116,40308,0
2128,40320,0
2136,40333,0
2152,40301,0
2144,40319,0
2226,40347,0
2208,40320,0
2264,40325,0
2264,40341,0
2265,40322,0
2240,40331,0
2240,40352,0
2216,40329,0
2200,40326,0
2186,40358,0
2194,40317,0
2182,40326,0
2170,40347,0
2163,40311,0
2168,40325,0
2160,40345,0
2132,40315,0
2140,40327,0
2157,40350,0
2184,40307,0
2193,40343,0
2178,40331,0
2170,40334,0
2168,40323,0
2160,40317,0
2152,40329,0
2132,40327,0
2100,40349,0
2104,40327,0
2058,40330,0
2044,40352,0
2024,40334,0
2032,40338,0
1992,40358,0
2020,40335,0
2008,40346,0
2032,40360,0
2046,40341,0
2128,40342,0
2120,40355,0
2154,40345,0
2196,40341,0
2280,40362,0
2320,40328,0
2346,40346,0
2388,40361,0
2444,40334,0
2464,40346,0
2509,40361,0
2572,40336,0
2648,40354,0
2768,40375,0
2856,40344,0
2904,40359,0
3028,40364,0
3144,40372,0
3288,40380,0
3384,40376,0
3508,40355,0
3648,40388,0
3736,40353,0
3872,40377,0
3964,40393,0
4036,40371,0
4095,40382,0
4088,40394,0
4095,40377,0
4048,40381,0
4056,40417,0
3952,40397,0
3944,40393,0
3816,40417,0
3736,40408,0
3640,40395,0
3632,40423,0
3540,40423,0
3457,40407,0
3380,40429,0
3312,40407,0
3212,40421,0
3156,40428,0
3112,40402,0
3080,40424,0
3104,40451,0
3076,40408,0
2996,40414,0
2968,40438,0
2976,40461,0
2928,40451,0
2896,40446,0
2860,40429,0
2816,40435,0
2768,40449,0
2724,40431,0
2684,40450,0
2640,40457,0
2627,40440,0
2608,40443,0
2616,40457,0
2558,40441,0
2568,40449,0
2552,40465,0
2520,40439,0
2512,40443,0
2473,40467,0
2444,40443,0
2464,40453,0
2434,40467,0
2408,40453,0
2378,40458,0
2336,40462,0
2292,40449,0
2272,40473,0
2258,40474,0
2248,40458,0
2264,40455,0
2249,40468,0
2212,40446,0
2212,40453,0
2208,40454,0
2216,40466,0
2212,40473,0
2204,40469,0
2208,40448,0
2188,40485,0
2176,40464,0
2170,40461,0
2144,40469,0
2122,40478,0
2096,40462,0
2088,40482,0
2044,40485,0
2056,40453,0
2008,40470,0
2018,40468,0
1993,40460,0
1996,40482,0
2004,40455,0
2052,40463,0
2066,40487,0
2074,40452,0
2120,40454,0
2082,40479,0
2100,40448,0
2104,40465,0
2058,40472,0
2049,40445,0
2056,40453,0
1992,40474,0
1968,40457,0
1978,40463,0
1944,40464,0
1960,40446,0
1944,40458,0
1945,40478,0
1953,40481,0
1960,40463,0
1976,40481,0
1988,40484,0
2011,40460,0
2000,40487,0
2040,40489,0
2016,40479,0
2024,40491,0
2002,40475,0
2006,40458,0
1982,40483,0
1960,40483,0
2000,40466,0
1984,40480,0
1941,40491,0
1933,40472,0
1933,40478,0
1930,40485,0
1908,40460,0
1920,40501,0
1930,40487,0
1965,40469,0
1994,40489,0
1994,40482,0
1988,40536,0
1996,40474,0
2000,40479,0
2004,40477,0
2000,40468,0
1994,40467,0
2004,40468,0
1968,40488,0
1952,40476,0
1970,40476,0
1940,40500,0
1940,40478,0
1932,40479,0
1957,40497,0
1937,40465,0
1960,40464,0
1964,40504,0
1993,40471,0
1992,40470,0
2032,40497,0
2010,40480,0
2040,40480,0
2048,40500,0
2048,40483,0
2036,40481,0
2017,40505,0
1988,40481,0
1964,40474,0
1957,40501,0
1950,40494,0
1976,40485,0
1956,40507,0
1937,40536,0
1948,40504,0
1954,40473,0
1964,40492,0
1984,40494,0
2022,40494,0
2020,40511,0
2036,40492,0
2044,40497,0
2060,40515,0
2069,40493,0
2084,40491,0
2064,40520,0
2072,40495,0
2034,40485,0
2036,40508,0
1996,40489,0
2000,40489,0
1980,40521,0
1972,40502,0
1968,40488,0
2024,40520,0
2003,40489,0
2052,40485,0
2030,40506,0
2060,40485,0
2064,40486,0
2088,40512,0
2098,40480,0
2128,40481,0
2168,40507,0
2176,40468,0
2120,40481,0
2096,40468,0
2088,40491,0
2057,40474,0
2038,40479,0
2040,40481,0
2033,40496,0
2024,40480,0
2016,40474,0
2012,40497,0
2024,40470,0
2073,40480,0
2044,40492,0
2089,40472,0
2088,40474,0
2120,40484,0
2100,40459,0
2138,40464,0
2136,40483,0
2144,40451,0
2140,40453,0
2152,40484,0
2134,40460,0
2118,40458,0
2114,40468,0
2093,40448,0
2060,40444,0
2056,40456,0
2072,40442,0
2053,40427,0
2084,40456,0
2096,40433,0
2080,40418,0
2120,40443,0
2108,40435,0
2122,40444,0
2136,40431,0
2136,40443,0
2136,40405,0
2136,40424,0
2116,40436,0
2104,40412,0
2092,40413,0
2080,40431,0
2047,40400,0
2065,40402,0
2032,40427,0
2034,40396,0
2020,40400,0
2026,40410,0
2016,40384,0
2024,40380,0
2044,40407,0
2100,40371,0
2133,40381,0
2112,40402,0
2146,40368,0
2144,40375,0
2122,40405,0
2136,40354,0
2128,40374,0
2120,40389,0
2128,40346,0
2104,40369,0
2080,40383,0
2036,40371,0
2008,40357,0
1992,40383,0
1988,40379,0
1985,40375,0
1976,40380,0
1986,40372,0
1996,40356,0
2012,40374,0
2020,40379,0
2044,40351,0
2044,40379,0
2092,40368,0
2064,40349,0
2080,40359,0
2064,40373,0
2072,40350,0
2032,40367,0
2024,40379,0
2000,40353,0
2028,40368,0
2026,40377,0
2003,40347,0
1988,40360,0
1993,40361,0
1968,40349,0
1976,40349,0
2000,40369,0
2016,40345,0
2042,40358,0
2057,40365,0
2026,40358,0
2028,40344,0
2032,40348,0
2029,40366,0
2018,40374,0
2020,40369,0
1952,40356,0
1988,40373,0
1972,40365,0
1948,40356,0
1956,40378,0
1951,40380,0
1973,40373,0
1976,40368,0
1970,40384,0
1992,40361,0
1988,40354,0
2024,40385,0
2008,40361,0
2020,40360,0
2020,40385,0
2064,40358,0
2066,40362,0
2057,40384,0
2048,40355,0
2026,40360,0
2008,40377,0
2010,40353,0
1973,40368,0
1964,40381,0
2008,40356,0
1981,40359,0
1980,40366,0
1968,40364,0
1980,40364,0
2000,40384,0
2016,40391,0
2028,40391,0
2044,40371,0
2064,40357,0
2056,40400,0
2061,40380,0
2056,40377,0
2069,40394,0
2036,40373,0
2044,40374,0
2004,40401,0
2008,40380,0
1984,40371,0
1984,40396,0
1984,40393,0
1957,40379,0
1960,40386,0
1988,40398,0
2011,40376,0
2017,40400,0
2036,40393,0
2036,40379,0
2033,40401,0
2046,40387,0
2078,40365,0
2077,40390,0
2096,40378,0
2104,40366,0
2064,40377,0
2052,40369,0
2040,40365,0
2012,40365,0
2004,40363,0
2008,40366,0
1986,40387,0
1976,40351,0
1984,40361,0
1984,40384,0
2016,40347,0
2030,40362,0
2016,40383,0
2048,40343,0
2040,40358,0
2068,40388,0
2052,40345,0
2112,40361,0
2060,40378,0
2064,40341,0
2047,40364,0
2066,40385,0
2048,40338,0
2032,40363,0
2018,40378,0
2012,40357,0
1988,40349,0
1977,40380,0
1980,40348,0
1985,40357,0
2032,40377,0
2048,40360,0
2016,40370,0
2044,40366,0
2046,40358,0
2058,40355,0
2068,40372,0
2082,40349,0
2080,40349,0
2080,40360,0
2072,40342,0
2047,40348,0
2040,40366,0
2031,40355,0
2004,40350,0
2024,40366,0
1992,40347,0
2008,40345,0
1986,40365,0
2000,40361,0
1996,40343,0
2004,40372,0
2018,40342,0
2064,40344,0
2068,40375,0
2080,40326,0
2088,40351,0
2096,40365,0
2088,40345,0
2089,40340,0
2084,40365,0
2100,40335,0
2112,40348,0
2032,40345,0
2028,40368,0
2032,40365,0
2028,40357,0
2024,40349,0
2028,40376,0
2036,40341,0
2060,40379,0
2064,40370,0
2072,40357,0
2104,40365,0
2096,40372,0
2100,40353,0
2136,40360,0
2100,40369,0
2104,40354,0
2104,40348,0
2080,40364,0
2046,40351,0
2032,40346,0
2048,40377,0
2048,40362,0
2036,40351,0
2036,40380,0
2037,40351,0
2032,40353,0
2036,40373,0
2053,40345,0
2073,40341,0
2088,40359,0
2120,40351,0
2116,40349,0
2100,40345,0
2092,40335,0
2105,40343,0
2084,40356,0
2074,40356,0
2058,40355,0
2045,40364,0
2036,40348,0
2012,40359,0
2008,40364,0
2008,40343,0
2048,40346,0
2012,40361,0
2044,40344,0
2026,40345,0
2060,40361,0
2068,40334,0
2096,40337,0
2084,40362,0
2096,40340,0
2176,40334,0
2178,40349,0
2178,40344,0
2144,40335,0
2132,40352,0
2124,40331,0
2084,40329,0
2064,40353,0
2052,40330,0
2050,40337,0
2064,40354,0
2054,40329,0
2020,40319,0
2028,40328,0
2072,40344,0
2050,40349,0
2076,40332,0
2096,40330,0
2100,40342,0
2108,40354,0
2112,40320,0
2110,40338,0
2112,40361,0
2109,40328,0
2096,40338,0
2144,40351,0
2084,40335,0
2072,40333,0
2036,40350,0
2048,40321,0
2024,40331,0
2040,40348,0
2026,40334,0
2052,40332,0
2080,40352,0
2088,40333,0
2107,40325,0
2149,40349,0
2104,40317,0
2113,40322,0
2120,40355,0
2130,40314,0
2148,40321,0
2146,40348,0
2092,40332,0
2066,40326,0
2052,40348,0
2046,40329,0
2064,40333,0
2034,40310,0
2036,40328,0
2037,40346,0
2036,40320,0
2056,40327,0
2060,40355,0
2090,40325,0
2092,40332,0
2128,40356,0
2100,40336,0
2129,40330,0
2114,40364,0
2120,40336,0
2112,40339,0
2112,40352,0
2096,40354,0
2120,40324,0
2121,40356,0
2115,40327,0
2124,40332,0
2116,40357,0
2129,40348,0
2132,40333,0
2112,40351,0
2123,40340,0
2162,40335,0
2164,40360,0
2146,40324,0
2156,40343,0
2168,40331,0
2176,40325,0
2168,40360,0
2170,40312,0
2168,40320,0
2177,40344,0
2136,40311,0
2128,40323,0
2110,40353,0
2112,40314,0
2088,40330,0
2100,40337,0
2064,40312,0
2072,40322,0
2080,40362,0
2092,40322,0
2096,40316,0
2100,40339,0
2120,40324,0
2208,40330,0
2176,40344,0
2194,40314,0
2200,40327,0
2210,40345,0
2192,40306,0
2178,40319,0
2166,40344,0
2153,40316,0
2160,40314,0
2144,40352,0
2096,40321,0
2084,40320,0
2088,40329,0
2084,40345,0
2080,40334,0
2096,40316,0
2132,40321,0
2132,40350,0
2116,40325,0
2137,40324,0
2136,40332,0
2166,40326,0
2160,40325,0
2176,40347,0
2148,40338,0
2152,40325,0
2124,40346,0
2136,40339,0
2106,40329,0
2096,40350,0
2080,40341,0
2112,40335,0
2098,40344,0
2114,40348,0
2136,40326,0
2120,40356,0
2112,40335,0
2126,40326,0
2145,40342,0
2152,40351,0
2180,40326,0
2187,40343,0
2154,40335,0
2146,40329,0
2144,40322,0
2128,40331,0
2104,40336,0
2104,40326,0
2064,40332,0
2046,40361,0
2032,40348,0
2042,40342,0
2046,40356,0
2077,40320,0
2080,40339,0
2120,40368,0
2112,40338,0
2160,40340,0
2156,40366,0
2176,40346,0
2168,40339,0
2176,40369,0
2177,40326,0
2216,40336,0
2202,40365,0
2188,40327,0
2186,40336,0
2162,40371,0
2128,40346,0
2112,40339,0
2100,40375,0
2093,40353,0
2112,40348,0
2104,40365,0
2074,40356,0
2076,40370,0
2096,40361,0
2116,40334,0
2124,40352,0
2136,40336,0
2136,40334,0
2132,40365,0
2144,40339,0
2176,40349,0
2138,40371,0
2116,40345,0
2084,40341,0
2084,40369,0
2040,40349,0
2036,40352,0
2002,40367,0
2002,40360,0
1976,40347,0
1984,40352,0
1982,40355,0
2026,40347,0
2036,40334,0
2048,40363,0
2069,40336,0
2081,40334,0
2068,40362,0
2096,40338,0
2144,40335,0
2140,40356,0
2196,40333,0
2216,40344,0
2212,40361,0
2248,40335,0
2284,40368,0
2344,40364,0
2424,40343,0
2480,40357,0
2584,40337,0
2688,40335,0
2804,40369,0
2936,40335,0
3060,40336,0
3235,40357,0
3336,40355,0
3528,40336,0
3600,40362,0
3768,40352,0
3832,40335,0
4000,40356,0
4016,40361,0
4064,40345,0
4080,40355,0
4095,40361,0
4095,40330,0
4095,40353,0
4095,40366,0
4033,40342,0
3936,40360,0
3845,40357,0
3765,40329,0
3682,40354,0
3672,40361,0
3448,40346,0
3368,40342,0
3280,40358,0
3204,40336,0
3136,40358,0
3068,40354,0
3016,40326,0
2968,40336,0
2936,40370,0
2884,40325,0
2848,40329,0
2845,40360,0
2794,40327,0
2816,40340,0
2760,40357,0
2770,40330,0
2720,40338,0
2724,40367,0
2672,40331,0
2680,40343,0
2688,40352,0
2652,40327,0
2628,40333,0
2585,40355,0
2564,40340,0
2528,40339,0
2466,40354,0
2425,40329,0
2379,40326,0
2338,40355,0
2336,40314,0
2312,40340,0
2244,40346,0
2258,40332,0
2220,40328,0
2240,40359,0
2202,40352,0
2196,40358,0
2196,40346,0
2208,40324,0
2208,40356,0
2209,40344,0
2196,40339,0
2196,40357,0
2176,40343,0
2168,40323,0
2140,40363,0
2121,40342,0
2072,40342,0
2064,40354,0
2028,40342,0
2002,40332,0
1986,40356,0
2004,40338,0
2008,40324,0
1988,40354,0
2000,40350,0
2002,40330,0
2004,40343,0
2019,40351,0
2020,40335,0
2030,40344,0
2056,40341,0
2049,40319,0
2016,40325,0
2005,40332,0
1985,40320,0
1964,40329,0
1945,40324,0
1922,40350,0
1900,40334,0
1892,40329,0
1872,40347,0
1868,40340,0
1868,40324,0
1877,40346,0
1866,40316,0
1888,40318,0
1892,40343,0
1920,40329,0
1924,40326,0
1944,40354,0
1952,40325,0
1952,40330,0
1946,40341,0
1973,40309,0
1960,40320,0
1942,40359,0
1920,40304,0
1904,40326,0
1870,40350,0
1858,40320,0
1850,40338,0
1846,40353,0
1888,40323,0
1861,40323,0
1844,40334,0
1866,40356,0
1880,40354,0
1900,40330,0
1928,40336,0
1932,40353,0
1936,40326,0
1944,40343,0
1940,40365,0
1968,40337,0
1928,40348,0
1927,40348,0
1904,40343,0
1904,40344,0
1868,40346,0
1888,40340,0
1858,40345,0
1880,40359,0
1862,40345,0
1864,40351,0
1892,40364,0
1908,40336,0
1926,40357,0
1940,40360,0
1972,40345,0
1954,40345,0
1932,40352,0
1948,40333,0
1952,40345,0
1945,40362,0
1945,40338,0
1928,40358,0
1890,40337,0
1872,40337,0
1856,40342,0
1861,40341,0
1856,40330,0
1858,40354,0
1860,40347,0
1876,40336,0
1890,40372,0
1928,40350,0
1906,40350,0
1950,40371,0
1948,40344,0
1968,40348,0
1968,40369,0
1970,40348,0
1945,40338,0
1984,40376,0
1945,40349,0
1936,40355,0
1930,40373,0
1937,40358,0
1936,40351,0
1932,40377,0
1931,40354,0
1932,40355,0
1916,40378,0
1938,40356,0
1941,40351,0
1981,40375,0
1984,40354,0
2002,40358,0
1973,40391,0
1990,40383,0
2000,40375,0
2018,40364,0
2008,40371,0
2002,40388,0
1994,40334,0
1992,40363,0
1980,40384,0
1976,40347,0
1968,40363,0
1979,40384,0
1976,40353,0
1984,40365,0
1976,40385,0
1989,40342,0
1976,40352,0
2004,40386,0
2012,40340,0
2026,40361,0
2016,40389,0
2056,40347,0
2073,40359,0
2048,40393,0
2056,40344,0
2052,40362,0
2024,40393,0
2034,40348,0
1998,40351,0
1990,40384,0
2016,40352,0
2009,40367,0
1984,40372,0
1982,40374,0
1972,40359,0
1980,40373,0
1996,40378,0
2004,40377,0
2026,40350,0
1984,40361,0
2044,40382,0
2042,40339,0
2047,40369,0
2086,40385,0
2047,40358,0
2072,40361,0
2040,40391,0
2040,40361,0
1996,40370,0
2016,40378,0
1984,40356,0
1970,40368,0
1968,40381,0
1986,40359,0
2011,40358,0
1992,40387,0
2002,40379,0
2016,40365,0
2020,40373,0
2028,40382,0
2065,40350,0
2056,40372,0
2112,40375,0
2089,40354,0
2060,40360,0
2056,40368,0
2044,40349,0
2032,40362,0
2016,40376,0
2025,40358,0
1976,40376,0
1974,40330,0
1992,40346,0
1964,40376,0
1972,40331,0
1953,40351,0
1960,40370,0
2004,40339,0
1980,40354,0
2028,40380,0
2000,40336,0
2016,40342,0
2000,40372,0
2016,40322,0
2012,40357,0
2064,40373,0
2038,40338,0
2009,40356,0
1988,40378,0
1992,40338,0
1964,40360,0
1964,40375,0
1952,40332,0
1936,40347,0
1956,40379,0
1960,40341,0
1940,40356,0
1954,40353,0
1972,40357,0
2008,40352,0
2000,40357,0
2001,40355,0
1996,40372,0
1996,40358,0
1992,40354,0
1986,40369,0
1972,40356,0
1970,40355,0
1952,40374,0
1956,40349,0
1918,40355,0
1928,40370,0
1904,40364,0
1930,40360,0
1909,40376,0
1924,40355,0
1944,40357,0
2002,40367,0
2025,40352,0
2036,40355,0
2066,40369,0
2064,40362,0
2052,40352,0
2044,40370,0
2042,40355,0
2034,40359,0
2020,40383,0
1944,40395,0
1922,40378,0
1904,40376,0
1932,40378,0
1896,40358,0
1896,40374,0
1904,40343,0
1924,40352,0
1936,40385,0
1972,40359,0
2016,40370,0
2020,40393,0
2024,40378,0
2056,40370,0
2036,40389,0
2045,40371,0
2016,40359,0
2016,40393,0
1989,40382,0
1968,40368,0
1976,40404,0
1964,40392,0
1952,40374,0
1954,40402,0
1952,40392,0
1955,40376,0
1958,40400,0
1980,40379,0
2001,40382,0
2020,40398,0
2064,40380,0
2080,40371,0
2064,40407,0
2064,40386,0
2064,40401,0
2058,40405,0
2052,40406,0
2034,40396,0
2026,40417,0
1994,40400,0
1972,40413,0
1954,40412,0
1941,40390,0
1936,40409,0
1936,40418,0
1944,40401,0
1920,40401,0
1952,40410,0
1952,40392,0
1982,40416,0
1996,40420,0
2008,40405,0
2020,40417,0
2064,40424,0
2074,40400,0
2080,40417,0
2076,40422,0
2066,40397,0
2036,40422,0
2033,40425,0
2018,40406,0
2018,40427,0
2020,40408,0
2017,40413,0
1984,40407,0
1980,40413,0
1978,40423,0
2012,40429,0
2004,40420,0
2016,40409,0
2032,40436,0
2044,40421,0
2047,40416,0
2046,40449,0
2047,40425,0
2048,40421,0
2036,40442,0
2048,40431,0
2032,40421,0
2004,40446,0
1988,40432,0
1984,40428,0
1960,40452,0
1956,40423,0
1956,40446,0
1996,40453,0
2008,40427,0
2021,40444,0
2030,40445,0
2066,40440,0
2046,40457,0
2060,40461,0
2073,40439,0
2092,40462,0
2112,40447,0
2112,40441,0
2072,40446,0
2064,40440,0
2052,40439,0
2032,40441,0
2008,40446,0
2004,40440,0
2024,40454,0
1985,40479,0
1976,40457,0
1984,40453,0
1976,40485,0
2005,40450,0
2000,40462,0
2040,40478,0
2040,40452,0
2064,40465,0
2052,40482,0
2072,40456,0
2064,40470,0
2080,40485,0
2058,40464,0
2081,40476,0
2064,40485,0
2053,40470,0
2040,40482,0
2032,40485,0
2002,40471,0
2004,40470,0
2028,40504,0
1992,40480,0
2032,40475,0
2034,40489,0
2028,40497,0
2042,40476,0
2064,40474,0
2084,40475,0
2082,40480,0
2081,40503,0
2088,40483,0
2089,40490,0
2088,40508,0
2076,40490,0
2064,40500,0
2064,40518,0
2026,40484,0
2048,40500,0
2008,40512,0
2012,40494,0
2018,40523,0
2028,40510,0
2080,40503,0
2032,40521,0
2064,40516,0
2088,40497,0
2096,40530,0
2106,40510,0
2112,40498,0
2112,40526,0
2104,40506,0
2105,40499,0
2074,40539,0
2064,40514,0
2072,40519,0
2093,40529,0
2072,40542,0
2024,40529,0
2016,40540,0
2010,40525,0
2044,40525,0
2024,40525,0
2034,40519,0
2040,40543,0
2058,40525,0
2080,40531,0
2112,40549,0
2104,40537,0
2112,40539,0
2136,40555,0
2108,40543,0
2136,40538,0
2100,40565,0
2104,40542,0
2096,40544,0
2064,40567,0
2040,40543,0
2052,40552,0
2052,40570,0
2032,40552,0
2028,40555,0
2022,40579,0
2010,40542,0
2050,40562,0
2044,40586,0
2083,40547,0
2122,40556,0
2138,40592,0
2112,40580,0
2128,40574,0
2136,40568,0
2136,40573,0
2132,40525,0
2114,40575,0
2100,40604,0
2106,40587,0
2060,40596,0
2089,40608,0
2060,40582,0
2055,40586,0
2040,40614,0
2080,40596,0
2044,40586,0
2072,40613,0
2068,40593,0
2096,40607,0
2128,40622,0
2132,40601,0
2104,40607,0
2148,40627,0
2148,40598,0
2153,40618,0
2164,40621,0
2120,40608,0
2092,40613,0
2066,40627,0
2044,40611,0
2065,40622,0
2056,40635,0
2050,40615,0
2032,40622,0
2024,40619,0
2036,40635,0
2056,40631,0
2072,40622,0
2088,40623,0
2098,40638,0
2104,40605,0
2104,40613,0
2106,40640,0
2104,40604,0
2104,40622,0
2084,40638,0
2144,40611,0
2072,40623,0
2080,40647,0
2047,40608,0
2100,40632,0
2052,40657,0
2064,40622,0
2080,40636,0
2116,40666,0
2130,40624,0
2156,40635,0
2176,40658,0
2192,40636,0
2220,40638,0
2204,40662,0
2208,40637,0
2213,40638,0
2240,40677,0
2218,40636,0
2176,40640,0
2146,40671,0
2128,40670,0
2076,40658,0
2096,40686,0
2088,40682,0
2080,40678,0
2084,40675,0
2084,40695,0
2096,40671,0
2116,40684,0
2144,40694,0
2154,40673,0
2200,40687,0
2170,40707,0
2214,40679,0
2192,40685,0
2208,40699,0
2188,40683,0
2176,40696,0
2192,40709,0
2176,40683,0
2148,40712,0
2128,40708,0
2114,40702,0
2101,40708,0
2100,40716,0
2080,40703,0
2085,40708,0
2092,40718,0
2120,40704,0
2154,40709,0
2128,40696,0
2172,40710,0
2176,40709,0
2168,40720,0
2180,40698,0
2188,40713,0
2192,40718,0
2184,40700,0
2194,40705,0
2164,40742,0
2148,40706,0
2143,40722,0
2116,40739,0
2148,40728,0
2114,40721,0
2128,40740,0
2100,40744,0
2128,40728,0
2104,40749,0
2122,40753,0
2136,40736,0
2180,40751,0
2200,40752,0
2208,40731,0
2216,40760,0
2216,40769,0
2197,40738,0
2180,40756,0
2172,40755,0
2172,40739,0
2176,40762,0
2192,40778,0
2104,40764,0
2100,40764,0
2098,40745,0
2104,40766,0
2116,40747,0
2128,40740,0
2148,40766,0
2160,40748,0
2172,40749,0
2180,40763,0
2194,40738,0
2208,40748,0
2208,40787,0
2168,40745,0
2216,40760,0
2148,40776,0
2160,40748,0
2120,40762,0
2108,40783,0
2136,40744,0
2130,40771,0
2128,40784,0
2149,40743,0
2133,40761,0
2144,40786,0
2128,40752,0
2148,40767,0
2173,40792,0
2194,40752,0
2224,40775,0
2224,40802,0
2192,40778,0
2196,40778,0
2200,40770,0
2186,40773,0
2176,40789,0
2176,40769,0
2144,40773,0
2145,40800,0
2104,40788,0
2090,40772,0
2084,40813,0
2076,40761,0
2060,40785,0
2064,40808,0
2058,40786,0
2056,40782,0
2046,40812,0
2072,40782,0
2064,40788,0
2072,40817,0
2072,40782,0
2104,40797,0
2131,40823,0
2106,40779,0
2118,40799,0
2102,40813,0
2090,40789,0
2088,40794,0
2100,40816,0
2120,40800,0
2168,40798,0
2208,40822,0
2216,40801,0
2308,40803,0
2354,40803,0
2441,40829,0
2528,40815,0
2640,40829,0
2752,40805,0
2860,40810,0
2976,40819,0
3096,40790,0
3216,40809,0
3327,40821,0
3416,40789,0
3576,40810,0
3624,40829,0
3808,40804,0
3816,40800,0
3984,40825,0
4008,40792,0
4068,40799,0
4048,40832,0
4095,40795,0
4095,40810,0
4095,40834,0
4095,40801,0
4095,40803,0
3408,40831,0
3929,40806,0
3860,40814,0
3780,40836,0
3744,40813,0
3632,40816,0
3448,40834,0
3352,40816,0
3250,40818,0
3152,40821,0
3120,40808,0
3008,40814,0
2960,40818,0
2920,40838,0
2896,40813,0
2904,40821,0
2880,40844,0
2888,40833,0
2880,40826,0
2912,40844,0
2848,40831,0
2868,40820,0
2836,40841,0
2784,40835,0
2724,40825,0
2684,40850,0
2632,40845,0
2624,40829,0
2560,40849,0
2534,40853,0
2506,40831,0
2474,40834,0
2384,40846,0
2380,40822,0
2342,40845,0
2336,40850,0
2356,40826,0
2360,40840,0
2320,40826,0
2336,40836,0
2320,40855,0
2320,40833,0
2320,40850,0
2320,40828,0
2296,40852,0
2272,40813,0
2236,40828,0
2204,40850,0
2174,40819,0
2169,40835,0
2136,40862,0
2136,40835,0
2108,40833,0
2116,40861,0
2088,40835,0
2100,40833,0
2104,40857,0
2100,40828,0
2104,40837,0
2154,40861,0
2160,40828,0
2145,40836,0
2148,40857,0
2136,40829,0
2114,40837,0
2112,40864,0
2073,40837,0
2092,40858,0
2042,40864,0
2019,40836,0
2000,40847,0
1980,40843,0
1962,40848,0
1944,40856,0
1936,40859,0
1954,40831,0
1960,40847,0
2006,40872,0
2000,40835,0
2024,40853,0
2016,40875,0
2028,40838,0
2040,40848,0
2052,40883,0
2076,40851,0
2024,40851,0
1984,40877,0
1988,40840,0
1954,40859,0
1940,40875,0
1922,40832,0
1941,40862,0
1929,40888,0
1938,40845,0
1942,40877,0
1936,40884,0
1952,40852,0
1957,40866,0
1952,40886,0
1961,40841,0
2000,40861,0
2008,40886,0
1984,40869,0
1984,40863,0
2000,40866,0
1952,40856,0
1956,40862,0
1952,40898,0
1936,40865,0
1896,40869,0
1834,40898,0
1882,40857,0
1872,40876,0
1879,40887,0
1874,40859,0
1912,40877,0
1904,40902,0
1936,40857,0
1936,40879,0
1968,40896,0
1956,40872,0
1964,40885,0
1960,40915,0
1992,40871,0
1986,40874,0
1976,40902,0
1968,40876,0
1954,40889,0
1922,40902,0
1910,40867,0
1909,40881,0
1906,40915,0
1928,40876,0
1929,40888,0
1912,40886,0
1922,40898,0
1941,40892,0
1966,40910,0
1980,40939,0
1994,40893,0
2000,40908,0
2012,40924,0
2008,40896,0
2006,40916,0
1988,40919,0
1984,40909,0
1978,40920,0
1965,40914,0
1930,40910,0
1936,40935,0
1916,40917,0
1930,40909,0
1914,40936,0
1916,40931,0
1920,40903,0
1960,40924,0
2001,40931,0
1992,40911,0
2016,40942,0
2019,40926,0
2032,40905,0
2044,40934,0
2048,40926,0
2024,40905,0
2048,40925,0
2040,40923,0
2008,40912,0
1996,40922,0
1980,40908,0
1978,40923,0
1976,40893,0
2044,40905,0
1946,40924,0
1973,40887,0
1964,40906,0
1977,40936,0
1985,40899,0
2021,40896,0
2012,40928,0
2070,40904,0
2040,40893,0
2065,40919,0
2064,40898,0
2096,40892,0
2072,40918,0
2072,40897,0
2047,40903,0
2064,40913,0
2053,40898,0
2061,40884,0
2028,40925,0
2007,40896,0
1986,40888,0
1969,40908,0
1984,40876,0
1998,40887,0
2028,40908,0
2024,40875,0
2044,40887,0
2044,40886,0
2052,40876,0
2064,40878,0
2064,40880,0
2056,40903,0
2052,40871,0
2032,40872,0
2020,40886,0
2020,40861,0
2027,40866,0
2016,40885,0
2036,40853,0
2016,40868,0
2036,40886,0
2044,40850,0
2064,40864,0
2064,40885,0
2073,40856,0
2112,40866,0
2124,40883,0
2121,40839,0
2128,40860,0
2112,40872,0
2104,40845,0
2072,40851,0
2052,40864,0
2037,40833,0
2024,40841,0
2024,40872,0
2008,40833,0
2000,40875,0
1984,40864,0
1960,40848,0
1978,40829,0
1970,40838,0
1984,40822,0
2000,40844,0
2016,40855,0
2024,40834,0
2032,40826,0
2032,40857,0
2047,40828,0
2047,40824,0
2068,40856,0
2040,40823,0
2048,40834,0
2000,40847,0
2024,40827,0
1968,40821,0
1962,40845,0
1972,40826,0
1976,40825,0
1968,40842,0
1972,40834,0
1984,40827,0
2006,40849,0
1988,40828,0
2010,40821,0
2025,40845,0
2030,40834,0
2048,40833,0
2048,40848,0
2012,40832,0
2006,40829,0
2000,40824,0
1988,40809,0
1960,40814,0
1948,40811,0
1920,40838,0
1910,40817,0
1932,40816,0
1906,40834,0
1896,40822,0
1924,40822,0
1940,40837,0
1960,40812,0
1956,40812,0
2000,40841,0
2017,40816,0
2026,40816,0
2028,40840,0
2032,40823,0
2026,40814,0
2056,40830,0
2064,40814,0
2082,40807,0
2024,40829,0
2000,40803,0
1976,40801,0
1960,40824,0
1970,40785,0
1965,40807,0
1962,40831,0
1997,40789,0
1956,40815,0
1961,40813,0
1976,40803,0
1992,40811,0
2004,40822,0
2016,40828,0
2024,40808,0
2025,40827,0
2028,40832,0
2020,40815,0
2012,40819,0
2007,40831,0
1972,40810,0
1977,40800,0
1944,40823,0
1956,40800,0
1932,40811,0
1984,40821,0
1946,40809,0
1964,40808,0
1976,40814,0
2020,40812,0
2058,40813,0
2040,40833,0
2060,40817,0
2068,40813,0
2064,40830,0
2060,40797,0
2068,40809,0
2058,40837,0
2080,40794,0
2057,40804,0
2016,40811,0
1988,40806,0
1984,40804,0
1973,40817,0
1968,40826,0
1962,40806,0
1993,40828,0
1968,40830,0
1976,40812,0
1992,40826,0
1992,40839,0
2056,40801,0
2028,40820,0
2080,40826,0
2040,40812,0
2072,40829,0
2056,40834,0
2064,40815,0
2032,40838,0
2047,40825,0
2004,40822,0
2028,40840,0
2017,40817,0
2009,40809,0
2008,40829,0
2000,40810,0
1992,40808,0
1997,40842,0
2005,40807,0
2046,40820,0
2060,40843,0
2072,40815,0
2056,40826,0
2060,40832,0
2096,40825,0
2068,40831,0
2066,40844,0
2064,40819,0
2066,40822,0
2032,40843,0
2040,40809,0
2018,40816,0
2000,40851,0
2023,40813,0
2002,40823,0
2016,40850,0
1992,40815,0
2042,40811,0
2020,40838,0
2056,40832,0
2042,40837,0
2064,40840,0
2072,40848,0
2112,40830,0
2116,40836,0
2113,40848,0
2124,40827,0
2120,40838,0
2096,40856,0
2085,40833,0
2072,40825,0
2056,40862,0
2064,40823,0
2064,40846,0
2012,40837,0
2016,40832,0
2008,40854,0
2016,40827,0
2032,40855,0
2029,40841,0
2041,40867,0
2047,40835,0
2080,40839,0
2098,40859,0
2088,40841,0
2125,40842,0
2128,40868,0
2104,40865,0
2084,40846,0
2080,40879,0
2064,40853,0
2052,40863,0
2028,40891,0
2020,40868,0
2004,40861,0
2034,40877,0
2033,40860,0
2160,40879,0
2024,40899,0
2072,40865,0
2068,40898,0
2078,40898,0
2100,40871,0
2108,40897,0
2120,40909,0
2136,40887,0
2088,40886,0
2090,40888,0
2090,40905,0
2084,40897,0
2092,40930,0
2047,40902,0
2052,40899,0
2028,40921,0
2017,40904,0
2020,40917,0
2016,40915,0
2051,40921,0
2056,40915,0
2104,40930,0
2092,40916,0
2120,40918,0
2120,40945,0
2160,40927,0
2136,40930,0
2140,40946,0
2132,40922,0
2168,40946,0
2150,40953,0
2138,40932,0
2114,40944,0
2098,40960,0
2064,40928,0
2070,40970,0
2068,40956,0
2056,40949,0
2082,40966,0
2092,40955,0
2072,40945,0
2073,40950,0
2088,40953,0
2104,40959,0
2120,40963,0
2128,40965,0
2132,40953,0
2136,40983,0
2132,40973,0
2124,40960,0
2108,40976,0
2109,40977,0
2080,40964,0
2088,40992,0
2056,40967,0
2056,40959,0
2044,40987,0
2056,40965,0
2040,40962,0
2046,40984,0
2080,40947,0
2138,40957,0
2136,40984,0
2157,40962,0
