ECG,IR,PCG
2044,39197,0
2040,39195,0
2032,39152,0
2032,39152,0
2032,39151,0
2044,39158,0
2047,39139,0
2064,39123,0
2068,39135,0
2077,39114,0
2096,39092,0
2116,39113,0
2112,39079,0
2140,39072,0
2108,39084,0
2128,39059,0
2088,39052,0
2104,39059,0
2056,39034,0
2076,39037,0
2034,39036,0
2056,39014,0
2058,39028,0
2080,39023,0
2065,39001,0
2112,39001,0
2060,39002,0
2062,38977,0
2104,38992,0
2096,38958,0
2180,38945,0
2180,38967,0
2114,38942,0
2128,38944,0
2106,38955,0
2104,38937,0
2112,38941,0
2096,38914,0
2072,38904,0
2061,38933,0
2046,38902,0
2026,38912,0
2010,38915,0
2018,38892,0
2004,38898,0
2020,38913,0
2008,38884,0
2036,38893,0
2046,38906,0
2064,38881,0
2096,38885,0
2112,38906,0
2096,38871,0
2180,38878,0
2176,38905,0
2180,38877,0
2166,38891,0
2153,38903,0
2112,38885,0
2060,38887,0
2050,38906,0
2028,38884,0
2072,38890,0
2068,38914,0
1984,38912,0
1988,38895,0
1988,38927,0
1992,38905,0
2012,38915,0
2026,38906,0
2042,38911,0
2064,38931,0
2080,38923,0
2082,38925,0
2080,38957,0
2096,38931,0
2072,38942,0
2104,38966,0
2072,38949,0
2088,38951,0
2056,38978,0
2056,38966,0
2044,38963,0
2056,38981,0
2047,38976,0
2154,38982,0
2144,39010,0
2122,38992,0
2130,38997,0
2144,39022,0
2096,39003,0
2114,39010,0
2124,39040,0
2120,39025,0
2192,39021,0
2186,39054,0
2092,39026,0
2090,39026,0
2088,39036,0
2073,39034,0
2068,39049,0
2040,39027,0
2036,39055,0
2040,39070,0
2036,39045,0
2044,39058,0
2064,39081,0
2070,39059,0
2068,39065,0
2102,39088,0
2096,39071,0
2120,39079,0
2096,39096,0
2128,39072,0
2092,39073,0
2100,39106,0
2076,39082,0
2176,39084,0
2169,39100,0
2152,39091,0
2114,39084,0
2104,39100,0
2024,39090,0
2018,39082,0
2059,39108,0
2026,39081,0
2112,39081,0
2114,39097,0
2036,39088,0
2047,39076,0
2068,39080,0
2080,39069,0
2084,39081,0
2088,39094,0
2090,39090,0
2082,39078,0
2072,39093,0
2088,39085,0
2068,39072,0
2060,39078,0
2032,39100,0
2052,39075,0
2016,39097,0
2052,39093,0
2028,39072,0
2068,39098,0
2044,39097,0
2060,39085,0
2066,39108,0
2184,39099,0
2188,39083,0
2216,39106,0
2200,39080,0
2224,39087,0
2104,39111,0
2090,39079,0
2098,39092,0
2076,39113,0
2152,39066,0
2144,39087,0
2012,39078,0
1996,39122,0
2012,39111,0
2000,39097,0
2012,39128,0
2020,39094,0
2032,39103,0
2046,39133,0
2064,39088,0
2074,39103,0
2096,39132,0
2117,39109,0
2112,39111,0
2138,39141,0
2108,39119,0
2136,39129,0
2090,39157,0
2104,39132,0
2072,39127,0
2047,39147,0
2026,39128,0
2120,39135,0
2122,39174,0
2106,39148,0
2120,39151,0
2136,39177,0
2088,39145,0
2112,39163,0
2136,39182,0
2160,39152,0
2228,39179,0
2138,39225,0
2136,39196,0
2144,39183,0
2144,39199,0
2132,39185,0
2109,39166,0
2096,39179,0
2073,39210,0
2036,39171,0
2029,39189,0
2008,39214,0
2019,39183,0
2000,39191,0
2046,39215,0
2020,39182,0
2068,39196,0
2046,39226,0
2108,39191,0
2092,39194,0
2124,39217,0
2244,39192,0
2235,39212,0
2245,39235,0
2361,39191,0
2268,39215,0
2348,39229,0
2204,39198,0
2184,39215,0
2168,39231,0
2152,39204,0
2208,39214,0
2208,39245,0
2104,39225,0
2084,39220,0
2096,39238,0
2098,39234,0
2114,39242,0
2128,39249,0
2144,39237,0
2156,39244,0
2156,39272,0
2164,39246,0
2168,39259,0
2192,39261,0
2145,39254,0
2194,39267,0
2128,39291,0
2168,39260,0
2088,39280,0
2148,39290,0
2072,39276,0
2128,39280,0
2104,39294,0
2210,39277,0
2240,39302,0
2232,39295,0
2236,39285,0
2256,39308,0
2224,39305,0
2200,39302,0
2208,39303,0
2192,39306,0
2296,39296,0
2292,39308,0
2121,39310,0
2124,39330,0
2120,39326,0
2047,39346,0
2076,39334,0
2064,39338,0
2076,39324,0
2060,39346,0
2064,39327,0
2106,39329,0
2096,39342,0
2140,39327,0
2104,39335,0
2208,39359,0
2136,39328,0
2216,39335,0
2168,39361,0
2244,39322,0
2164,39343,0
2192,39368,0
2156,39330,0
2320,39358,0
2278,39373,0
2240,39339,0
2220,39351,0
2216,39371,0
2152,39343,0
2168,39345,0
2160,39374,0
2157,39337,0
2240,39362,0
2228,39374,0
2120,39360,0
2130,39381,0
2170,39374,0
2160,39365,0
2172,39357,0
2176,39385,0
2160,39352,0
2164,39352,0
2146,39386,0
2128,39347,0
2120,39357,0
2107,39390,0
2096,39357,0
2120,39349,0
2066,39393,0
2120,39358,0
2064,39374,0
2138,39396,0
2096,39356,0
2120,39353,0
2128,39386,0
2260,39355,0
2260,39374,0
2288,39389,0
2298,39353,0
2294,39369,0
2256,39389,0
2240,39369,0
2209,39368,0
2208,39391,0
2272,39362,0
2244,39365,0
2090,39380,0
2088,39384,0
2072,39388,0
2092,39359,0
2080,39398,0
2110,39364,0
2096,39365,0
2092,39398,0
2104,39368,0
2128,39362,0
2144,39385,0
2154,39372,0
2160,39380,0
2208,39395,0
2136,39369,0
2204,39372,0
2140,39392,0
2196,39370,0
2116,39379,0
2108,39390,0
2074,39371,0
2196,39389,0
2192,39395,0
2361,39378,0
2344,39395,0
2221,39374,0
2145,39387,0
2161,39408,0
2184,39372,0
2176,39383,0
2288,39404,0
2277,39365,0
2160,39383,0
2156,39393,0
2140,39407,0
2132,39398,0
2124,39398,0
2112,39402,0
2092,39392,0
2074,39412,0
2060,39405,0
2046,39395,0
2058,39424,0
2079,39409,0
2076,39409,0
2136,39436,0
2112,39414,0
2168,39420,0
2156,39434,0
2208,39406,0
2188,39422,0
2204,39440,0
2248,39419,0
2330,39418,0
2316,39446,0
2312,39423,0
2304,39422,0
2290,39446,0
2200,39421,0
2180,39421,0
2260,39446,0
2145,39411,0
2212,39417,0
2208,39440,0
2098,39427,0
2110,39413,0
2104,39415,0
2112,39415,0
2128,39428,0
2148,39437,0
2162,39423,0
2176,39433,0
2184,39439,0
2180,39422,0
2176,39440,0
2181,39430,0
2160,39408,0
2204,39442,0
2144,39431,0
2168,39420,0
2106,39429,0
2144,39436,0
2088,39425,0
2096,39439,0
2085,39435,0
2208,39422,0
2208,39435,0
2224,39424,0
2232,39418,0
2258,39442,0
2201,39415,0
2213,39429,0
2222,39451,0
2225,39439,0
2296,39431,0
2292,39455,0
2168,39438,0
2154,39431,0
2120,39427,0
2106,39426,0
2100,39444,0
2088,39456,0
2080,39454,0
2076,39431,0
2080,39451,0
2080,39454,0
2096,39436,0
2114,39464,0
2112,39440,0
2180,39437,0
2144,39470,0
2202,39446,0
2152,39435,0
2148,39460,0
2144,39442,0
2144,39429,0
2122,39462,0
2224,39444,0
2216,39440,0
2208,39465,0
2192,39468,0
2184,39444,0
2124,39471,0
2140,39455,0
2142,39441,0
2148,39478,0
2224,39443,0
2229,39443,0
2132,39480,0
2142,39461,0
2154,39469,0
2168,39454,0
2180,39453,0
2160,39473,0
2146,39445,0
2132,39442,0
2132,39467,0
2112,39452,0
2110,39445,0
2115,39463,0
2088,39450,0
2128,39444,0
2084,39465,0
2128,39441,0
2104,39453,0
2162,39467,0
2121,39434,0
2144,39446,0
2144,39439,0
2290,39433,0
2290,39434,0
2320,39466,0
2305,39422,0
2304,39449,0
2224,39451,0
2210,39434,0
2192,39444,0
2196,39445,0
2228,39427,0
2076,39415,0
2058,39423,0
2072,39436,0
2072,39414,0
2088,39429,0
2104,39431,0
2112,39423,0
2116,39445,0
2132,39442,0
2148,39424,0
2152,39454,0
2168,39423,0
2138,39424,0
2176,39440,0
2104,39435,0
2128,39422,0
2056,39450,0
2084,39429,0
2024,39410,0
2012,39446,0
2088,39432,0
2083,39418,0
2088,39446,0
2096,39420,0
2106,39416,0
2137,39428,0
2104,39399,0
2136,39412,0
2184,39445,0
2214,39395,0
2320,39412,0
2352,39427,0
2250,39389,0
2280,39432,0
2292,39423,0
2336,39405,0
2368,39419,0
2388,39439,0
2452,39409,0
2480,39406,0
2484,39433,0
2624,39418,0
2696,39404,0
2811,39429,0
2881,39399,0
3052,39414,0
3064,39416,0
3224,39405,0
3224,39392,0
3404,39422,0
3364,39398,0
3424,39398,0
3410,39423,0
3636,39400,0
3596,39415,0
3544,39422,0
3488,39394,0
3378,39406,0
3172,39414,0
3057,39391,0
2960,39410,0
2884,39421,0
2864,39394,0
2774,39430,0
2544,39389,0
2484,39389,0
2416,39396,0
2362,39382,0
2320,39396,0
2272,39384,0
2248,39417,0
2224,39416,0
2200,39384,0
2168,39411,0
2160,39414,0
2152,39383,0
2122,39397,0
2148,39408,0
2074,39396,0
2092,39405,0
2028,39396,0
2044,39392,0
1996,39403,0
1996,39405,0
1970,39403,0
2080,39412,0
2075,39405,0
2060,39391,0
2056,39422,0
2074,39394,0
1448,39397,0
1956,39419,0
1956,39385,0
1958,39392,0
2008,39424,0
1994,39395,0
1888,39399,0
1868,39404,0
1856,39400,0
1832,39430,0
1832,39422,0
1828,39399,0
1820,39404,0
1829,39427,0
1836,39400,0
1845,39405,0
1868,39432,0
1883,39419,0
1880,39412,0
1938,39435,0
1916,39408,0
1968,39408,0
1928,39436,0
1968,39415,0
1928,39399,0
1948,39429,0
1924,39413,0
2021,39411,0
2004,39436,0
1998,39414,0
2000,39406,0
1984,39433,0
1884,39404,0
1880,39414,0
1904,39422,0
1913,39400,0
2004,39414,0
2000,39426,0
1913,39388,0
1928,39409,0
1944,39410,0
1949,39398,0
1956,39385,0
1960,39398,0
1960,39399,0
1960,39410,0
1956,39385,0
1942,39379,0
1936,39412,0
1927,39381,0
1912,39391,0
1952,39396,0
1912,39364,0
1956,39373,0
1912,39404,0
1978,39372,0
1940,39382,0
1968,39406,0
1968,39376,0
2098,39389,0
2112,39407,0
2120,39367,0
2120,39379,0
2112,39409,0
2024,39375,0
2012,39391,0
2009,39399,0
2002,39369,0
2064,39399,0
2048,39406,0
1936,39400,0
1928,39419,0
1924,39419,0
1940,39404,0
1944,39408,0
1952,39410,0
1964,39389,0
1988,39397,0
1992,39414,0
2012,39388,0
2032,39408,0
2052,39402,0
2036,39383,0
2068,39404,0
2026,39410,0
2080,39394,0
2020,39400,0
2044,39406,0
1992,39383,0
1978,39408,0
1962,39400,0
2064,39384,0
2060,39413,0
2080,39392,0
2084,39390,0
2098,39415,0
2022,39368,0
2028,39385,0
2066,39406,0
2090,39369,0
2192,39371,0
2192,39399,0
2082,39371,0
2076,39382,0
2072,39383,0
2064,39399,0
2046,39408,0
2032,39389,0
2022,39417,0
2004,39384,0
2004,39382,0
1996,39405,0
2008,39394,0
2044,39401,0
2042,39402,0
2092,39383,0
2046,39390,0
2124,39396,0
2098,39383,0
2160,39387,0
2136,39399,0
2144,39379,0
2136,39400,0
2256,39393,0
2248,39380,0
2244,39403,0
2234,39383,0
2216,39380,0
2108,39409,0
2090,39380,0
2080,39384,0
2072,39401,0
2168,39367,0
2178,39385,0
2060,39384,0
2069,39368,0
2076,39384,0
2088,39374,0
2104,39398,0
2116,39409,0
2128,39378,0
2132,39380,0
2140,39403,0
2136,39367,0
2132,39384,0
2147,39407,0
2124,39376,0
2160,39388,0
2092,39407,0
2132,39372,0
2104,39381,0
2136,39407,0
2088,39386,0
2104,39382,0
2104,39400,0
2232,39372,0
2234,39383,0
2256,39407,0
2272,39380,0
2278,39385,0
2192,39414,0
2200,39382,0
2200,39382,0
2198,39409,0
2288,39383,0
2288,39382,0
2148,39406,0
2132,39404,0
2128,39394,0
2114,39384,0
2112,39375,0
2104,39369,0
2098,39391,0
2104,39380,0
2104,39369,0
2106,39386,0
2092,39364,0
2137,39376,0
2138,39370,0
2200,39358,0
2160,39367,0
2208,39368,0
2165,39342,0
2216,39367,0
2156,39331,0
2168,39333,0
2160,39357,0
2276,39320,0
2261,39322,0
2250,39343,0
2256,39311,0
2256,39325,0
2168,39336,0
2176,39296,0
2180,39309,0
2188,39327,0
2288,39298,0
2304,39300,0
2188,39303,0
2204,39320,0
2218,39327,0
2210,39324,0
2212,39269,0
2204,39291,0
2188,39316,0
2184,39275,0
2168,39290,0
2152,39306,0
2130,39273,0
2141,39283,0
2104,39308,0
2152,39284,0
2108,39275,0
2152,39298,0
2124,39273,0
2184,39271,0
2136,39307,0
2153,39282,0
2160,39282,0
2296,39312,0
2312,39282,0
2320,39291,0
2314,39303,0
2313,39287,0
2212,39304,0
2200,39298,0
2206,39282,0
2180,39305,0
2256,39289,0
2100,39297,0
2100,39289,0
2098,39279,0
2096,39274,0
2096,39287,0
2106,39277,0
2112,39287,0
2092,39309,0
2144,39270,0
2153,39289,0
2156,39308,0
2177,39286,0
2160,39289,0
2208,39302,0
2156,39284,0
2200,39293,0
2140,39302,0
2184,39284,0
2100,39283,0
2096,39317,0
2208,39284,0
2202,39281,0
2208,39304,0
2208,39283,0
2217,39279,0
2228,39300,0
2136,39292,0
2153,39284,0
2162,39309,0
2168,39289,0
2276,39291,0
2264,39304,0
2136,39297,0
2112,39289,0
2120,39286,0
2128,39280,0
2084,39291,0
2080,39277,0
2072,39275,0
2076,39298,0
2068,39280,0
2080,39274,0
2100,39295,0
2128,39275,0
2120,39277,0
2184,39307,0
2140,39279,0
2210,39275,0
2174,39299,0
2240,39288,0
2192,39283,0
2200,39301,0
2184,39283,0
2304,39297,0
2304,39302,0
2296,39280,0
2278,39303,0
2250,39298,0
2144,39289,0
2117,39298,0
2118,39276,0
2112,39274,0
2208,39296,0
2216,39270,0
2096,39280,0
2106,39278,0
2114,39274,0
2138,39274,0
2168,39272,0
2181,39263,0
2196,39285,0
2192,39265,0
2188,39258,0
2172,39280,0
2174,39260,0
2193,39256,0
2152,39276,0
2196,39256,0
2128,39256,0
2168,39281,0
2114,39254,0
2160,39258,0
2120,39268,0
2168,39251,0
2128,39256,0
2266,39265,0
2272,39241,0
2296,39237,0
2312,39260,0
2322,39243,0
2232,39241,0
2232,39254,0
2226,39244,0
2222,39244,0
2308,39252,0
2310,39239,0
2176,39243,0
2144,39266,0
2136,39248,0
2122,39259,0
2112,39257,0
2136,39259,0
2122,39232,0
2130,39223,0
2122,39245,0
2132,39210,0
2140,39231,0
2167,39248,0
2170,39210,0
2228,39228,0
2184,39241,0
2233,39205,0
2176,39231,0
2224,39241,0
2168,39204,0
2176,39219,0
2152,39238,0
2257,39225,0
2242,39222,0
2242,39250,0
2246,39226,0
2252,39227,0
2172,39244,0
2176,39225,0
2189,39226,0
2206,39258,0
2320,39236,0
2336,39227,0
2220,39231,0
2238,39234,0
2240,39239,0
2246,39226,0
2240,39242,0
2232,39256,0
2224,39248,0
2220,39248,0
2196,39274,0
2180,39249,0
2160,39246,0
2162,39270,0
2138,39253,0
2184,39263,0
2132,39278,0
2176,39250,0
2128,39267,0
2184,39269,0
2144,39255,0
2180,39275,0
2184,39272,0
2322,39252,0
2340,39282,0
2344,39245,0
2362,39253,0
2354,39268,0
2274,39243,0
2282,39241,0
2274,39278,0
2265,39235,0
2320,39260,0
2312,39274,0
2172,39258,0
2160,39276,0
2170,39252,0
2168,39250,0
2168,39243,0
2174,39275,0
2188,39248,0
2196,39260,0
2216,39280,0
2208,39257,0
2218,39279,0
2244,39275,0
2216,39260,0
2272,39283,0
2216,39266,0
2256,39266,0
2192,39288,0
2224,39244,0
2168,39261,0
2164,39272,0
2148,39247,0
2274,39259,0
2276,39282,0
2280,39250,0
2280,39259,0
2282,39282,0
2222,39252,0
2245,39262,0
2250,39283,0
2272,39259,0
2352,39252,0
2348,39270,0
2216,39256,0
2204,39259,0
2192,39247,0
2196,39250,0
2184,39254,0
2174,39267,0
2162,39254,0
2172,39246,0
2148,39261,0
2150,39246,0
2148,39245,0
2195,39263,0
2170,39241,0
2232,39261,0
2192,39253,0
2266,39244,0
2228,39263,0
2304,39246,0
2242,39235,0
2272,39260,0
2248,39236,0
2372,39229,0
2361,39250,0
2353,39221,0
2330,39242,0
2313,39259,0
2220,39224,0
2204,39231,0
2189,39253,0
2198,39230,0
2272,39253,0
2272,39267,0
2144,39266,0
2156,39274,0
2160,39270,0
2178,39262,0
2196,39282,0
2214,39243,0
2212,39243,0
2209,39275,0
2240,39237,0
2210,39252,0
2216,39279,0
2228,39245,0
2200,39252,0
2240,39269,0
2174,39255,0
2216,39244,0
2160,39273,0
2204,39263,0
2154,39260,0
2164,39288,0
2156,39264,0
2296,39255,0
2294,39274,0
2322,39271,0
2348,39271,0
2362,39296,0
2300,39275,0
2312,39272,0
2312,39303,0
2320,39283,0
2404,39276,0
2392,39314,0
2248,39280,0
2218,39286,0
2208,39293,0
2188,39300,0
2172,39311,0
2168,39300,0
2168,39322,0
2164,39308,0
2160,39306,0
2165,39340,0
2168,39299,0
2208,39313,0
2196,39333,0
2264,39305,0
2204,39322,0
2268,39340,0
2216,39308,0
2256,39314,0
2216,39336,0
2208,39307,0
2200,39331,0
2306,39337,0
2288,39316,0
2280,39338,0
2274,39357,0
2288,39322,0
2216,39327,0
2225,39356,0
2280,39350,0
2265,39338,0
2320,39370,0
2216,39358,0
2226,39357,0
2232,39358,0
2228,39353,0
2220,39364,0
2208,39371,0
2200,39333,0
2188,39345,0
2168,39371,0
2148,39335,0
2124,39355,0
2127,39363,0
2104,39345,0
2160,39363,0
2132,39380,0
2192,39343,0
2154,39362,0
2200,39378,0
2178,39354,0
2224,39356,0
2352,39374,0
2372,39353,0
2386,39348,0
2392,39376,0
2386,39352,0
2400,39354,0
2329,39374,0
2322,39360,0
2305,39354,0
2288,39382,0
2352,39362,0
2330,39367,0
2192,39358,0
2188,39361,0
2176,39366,0
2184,39373,0
2184,39354,0
2181,39373,0
2192,39371,0
2204,39357,0
2224,39377,0
2240,39352,0
2257,39359,0
2282,39376,0
2272,39343,0
2316,39359,0
2272,39360,0
2304,39338,0
2268,39349,0
2280,39365,0
2208,39333,0
2208,39348,0
2188,39366,0
2306,39340,0
2305,39349,0
2304,39366,0
2304,39345,0
2320,39348,0
2257,39362,0
2268,39340,0
2276,39350,0
2284,39371,0
2354,39346,0
2356,39341,0
2244,39352,0
2214,39340,0
2208,39337,0
2180,39344,0
2200,39343,0
2188,39341,0
2172,39372,0
2168,39353,0
2164,39355,0
2172,39381,0
2172,39345,0
2190,39352,0
2192,39369,0
2240,39341,0
2208,39358,0
2264,39365,0
2224,39350,0
2312,39369,0
2240,39367,0
2256,39342,0
2236,39355,0
2368,39362,0
2348,39344,0
2338,39363,0
2320,39345,0
2304,39339,0
2216,39372,0
2208,39329,0
2196,39337,0
2198,39358,0
2264,39345,0
2272,39342,0
2148,39359,0
2144,39359,0
2192,39357,0
2184,39379,0
2200,39374,0
2216,39387,0
2224,39334,0
2228,39348,0
2232,39374,0
2222,39334,0
2220,39358,0
2227,39382,0
2200,39352,0
2232,39368,0
2174,39382,0
2216,39367,0
2168,39365,0
2216,39380,0
2172,39370,0
2194,39365,0
2188,39392,0
2336,39382,0
2338,39386,0
2364,39404,0
2372,39385,0
2392,39393,0
2312,39406,0
2299,39394,0
2290,39397,0
2292,39418,0
2356,39409,0
2338,39397,0
2312,39399,0
2186,39413,0
2168,39413,0
2160,39425,0
2168,39426,0
2180,39410,0
2172,39428,0
2170,39414,0
2176,39413,0
2194,39430,0
2200,39412,0
2228,39428,0
2232,39449,0
2296,39431,0
2232,39438,0
2296,39459,0
2232,39435,0
2280,39439,0
2216,39462,0
2216,39442,0
2208,39465,0
2308,39444,0
2290,39446,0
2274,39467,0
2260,39436,0
2252,39451,0
2193,39470,0
2188,39435,0
2182,39452,0
2192,39474,0
2260,39442,0
2282,39464,0
2152,39461,0
2146,39459,0
2176,39458,0
2154,39454,0
2148,39478,0
2148,39500,0
2152,39478,0
2152,39468,0
2148,39490,0
2142,39455,0
2152,39485,0
2189,39505,0
2192,39480,0
2280,39491,0
2268,39512,0
2378,39488,0
2384,39490,0
2520,39509,0
2548,39494,0
2664,39490,0
2740,39510,0
3024,39509,0
3120,39494,0
3204,39527,0
3284,39502,0
3360,39510,0
3322,39528,0
3384,39503,0
3440,39530,0
3492,39521,0
3672,39507,0
3704,39533,0
3496,39508,0
3508,39512,0
3496,39509,0
3450,39515,0
3410,39514,0
3320,39505,0
3280,39523,0
3164,39538,0
3088,39510,0
2996,39523,0
2912,39537,0
2841,39518,0
2738,39527,0
2720,39557,0
2568,39522,0
2548,39527,0
2392,39549,0
2370,39528,0
2244,39531,0
2224,39560,0
2176,39524,0
2266,39532,0
2266,39559,0
2244,39527,0
2232,39534,0
2232,39558,0
2168,39533,0
2170,39527,0
2166,39555,0
1532,39528,0
2208,39529,0
2192,39536,0
2047,39522,0
2036,39506,0
2001,39538,0
1978,39540,0
1952,39540,0
1919,39513,0
1888,39518,0
1896,39539,0
1864,39511,0
1872,39519,0
1876,39534,0
1882,39511,0
1884,39509,0
1952,39531,0
1918,39506,0
1969,39510,0
1948,39536,0
1952,39507,0
1962,39518,0
1972,39538,0
1944,39509,0
2048,39513,0
2069,39538,0
2048,39508,0
1996,39519,0
1993,39529,0
1920,39517,0
1918,39527,0
1916,39534,0
1936,39511,0
2000,39521,0
2002,39513,0
1906,39504,0
1930,39498,0
1962,39503,0
1976,39511,0
2000,39509,0
2008,39483,0
2010,39497,0
2017,39523,0
2024,39492,0
2002,39488,0
1990,39523,0
1988,39490,0
1954,39486,0
1980,39531,0
1924,39486,0
1961,39501,0
1922,39509,0
1968,39495,0
1932,39492,0
1956,39514,0
1948,39492,0
2072,39498,0
2092,39518,0
2117,39495,0
2125,39506,0
2136,39525,0
2080,39501,0
2081,39526,0
2073,39512,0
2072,39510,0
2160,39527,0
2120,39511,0
1984,39510,0
1978,39522,0
1968,39533,0
1964,39502,0
1970,39500,0
1980,39504,0
1984,39531,0
1994,39515,0
2000,39507,0
2018,39533,0
2032,39512,0
2069,39512,0
2074,39539,0
2124,39513,0
2088,39516,0
2129,39554,0
2080,39526,0
2120,39533,0
2060,39546,0
2080,39534,0
2034,39549,0
2132,39562,0
2112,39540,0
2104,39552,0
2101,39566,0
2104,39542,0
2046,39560,0
2008,39559,0
2064,39552,0
2075,39576,0
2160,39556,0
2072,39637,0
2074,39558,0
2080,39550,0
2096,39575,0
2076,39579,0
2076,39592,0
2072,39568,0
2064,39568,0
2004,39591,0
2032,39571,0
2032,39588,0
2065,39605,0
2044,39597,0
2082,39601,0
2044,39609,0
2088,39599,0
2047,39605,0
2112,39625,0
2080,39601,0
2112,39606,0
2224,39628,0
2232,39605,0
2240,39610,0
2232,39640,0
2218,39612,0
2218,39641,0
2146,39621,0
2130,39620,0
2125,39639,0
2108,39608,0
2164,39625,0
2160,39651,0
2042,39637,0
2042,39631,0
2040,39645,0
2056,39634,0
2060,39638,0
2072,39657,0
2080,39628,0
2102,39644,0
2116,39666,0
2116,39640,0
2104,39647,0
2112,39675,0
2104,39636,0
2140,39647,0
2098,39671,0
2124,39654,0
2072,39646,0
2112,39676,0
2058,39662,0
2065,39654,0
2056,39670,0
2180,39650,0
2188,39647,0
2181,39666,0
2196,39651,0
2216,39655,0
2168,39676,0
2220,39644,0
2196,39651,0
1590,39671,0
2298,39654,0
2304,39663,0
2168,39649,0
2196,39661,0
2152,39645,0
2156,39647,0
2128,39636,0
2236,39632,0
2098,39652,0
2104,39628,0
2100,39642,0
2096,39655,0
2090,39617,0
2111,39626,0
2096,39652,0
2152,39623,0
2130,39614,0
2216,39635,0
2164,39618,0
2220,39615,0
2164,39633,0
2192,39608,0
2164,39623,0
2280,39631,0
2276,39605,0
2264,39611,0
2242,39622,0
2250,39604,0
2157,39619,0
2152,39604,0
2152,39601,0
2172,39620,0
2240,39586,0
2245,39584,0
2148,39605,0
2164,39587,0
2184,39585,0
2208,39587,0
2212,39581,0
2212,39605,0
2212,39573,0
2196,39592,0
2196,39593,0
2184,39552,0
2168,39583,0
2171,39605,0
2140,39570,0
2164,39575,0
2112,39592,0
2164,39582,0
2108,39574,0
2168,39599,0
2112,39577,0
2144,39569,0
2136,39595,0
2276,39576,0
2294,39578,0
2314,39590,0
2329,39571,0
2325,39583,0
2256,39598,0
2257,39572,0
2237,39580,0
2242,39596,0
2296,39571,0
2268,39586,0
2132,39585,0
2105,39580,0
2100,39569,0
2088,39583,0
2096,39584,0
2090,39564,0
2088,39557,0
2092,39587,0
2108,39551,0
2120,39561,0
2132,39579,0
2176,39552,0
2160,39565,0
2224,39578,0
2178,39577,0
2224,39565,0
2200,39590,0
2228,39559,0
2164,39566,0
2160,39591,0
2128,39571,0
2240,39558,0
2224,39590,0
2216,39563,0
2201,39565,0
2204,39597,0
2144,39571,0
2145,39574,0
2130,39603,0
2158,39581,0
2232,39580,0
2248,39593,0
2138,39568,0
2128,39567,0
2124,39575,0
2132,39564,0
2124,39566,0
2116,39574,0
2104,39587,0
2096,39559,0
2072,39576,0
2064,39597,0
2044,39564,0
2064,39572,0
2040,39598,0
2096,39565,0
2047,39576,0
2105,39594,0
2076,39567,0
2130,39568,0
2106,39604,0
2144,39562,0
2152,39579,0
2280,39595,0
2288,39566,0
2285,39568,0
2280,39598,0
2278,39555,0
2192,39579,0
2170,39592,0
2144,39587,0
2134,39572,0
2178,39604,0
2169,39582,0
2044,39581,0
2042,39581,0
2047,39605,0
2068,39584,0
2076,39587,0
2082,39586,0
2105,39593,0
2124,39574,0
2138,39577,0
2141,39600,0
2138,39566,0
2147,39571,0
2136,39592,0
2180,39576,0
2130,39579,0
2154,39594,0
2096,39576,0
2132,39580,0
2066,39599,0
2076,39578,0
2047,39581,0
2176,39589,0
2176,39572,0
2178,39595,0
2188,39573,0
2208,39560,0
2122,39583,0
2149,39546,0
1610,39559,0
2156,39576,0
2256,39541,0
2258,39545,0
2132,39549,0
2136,39555,0
2140,39557,0
2128,39530,0
2116,39532,0
2104,39561,0
2088,39528,0
2088,39528,0
2088,39547,0
2092,39524,0
2088,39518,0
2108,39537,0
2096,39517,0
2160,39518,0
2116,39531,0
2178,39512,0
2140,39506,0
2184,39524,0
2136,39488,0
2152,39484,0
2136,39525,0
2248,39494,0
2244,39504,0
2234,39521,0
2218,39488,0
2204,39511,0
2132,39492,0
2124,39488,0
2124,39511,0
2122,39471,0
2192,39482,0
2181,39504,0
2080,39472,0
2089,39484,0
2100,39489,0
2109,39483,0
2116,39510,0
2124,39472,0
2124,39493,0
2125,39502,0
2124,39483,0
2116,39487,0
2114,39510,0
2126,39482,0
2092,39495,0
2124,39515,0
2080,39487,0
2116,39493,0
2068,39523,0
2128,39505,0
2084,39505,0
2096,39530,0
2096,39519,0
2225,39514,0
2256,39537,0
2261,39520,0
2272,39532,0
2268,39541,0
2169,39521,0
2165,39536,0
2174,39551,0
2155,39524,0
2232,39548,0
2068,39628,0
2054,39552,0
2040,39557,0
2040,39544,0
2040,39550,0
2073,39561,0
2068,39561,0
2046,39551,0
2076,39583,0
2104,39575,0
2120,39564,0
2157,39584,0
2144,39574,0
2196,39571,0
2136,39599,0
2184,39581,0
2128,39585,0
2160,39606,0
2096,39566,0
2090,39588,0
2176,39619,0
2168,39580,0
2148,39595,0
2176,39622,0
2148,39590,0
2165,39608,0
2112,39636,0
2122,39603,0
2124,39621,0
2160,39641,0
2240,39634,0
2250,39623,0
2124,39628,0
2128,39639,0
2128,39643,0
2124,39645,0
2106,39644,0
2104,39671,0
2106,39633,0
2078,39654,0
2064,39672,0
2065,39648,0
2024,39661,0
2080,39687,0
2064,39663,0
2120,39668,0
2080,39696,0
2122,39676,0
2088,39683,0
2160,39713,0
2120,39688,0
2144,39684,0
2140,39704,0
2260,39709,0
2252,39713,0
2244,39736,0
2240,39722,0
2240,39731,0
2164,39735,0
2144,39719,0
2120,39754,0
2102,39748,0
2168,39736,0
2160,39765,0
2052,39763,0
2053,39764,0
2064,39759,0
2076,39755,0
2088,39782,0
2104,39783,0
2124,39770,0
2140,39801,0
2144,39771,0
2156,39769,0
2152,39805,0
2162,39777,0
2128,39782,0
2168,39818,0
2104,39790,0
2128,39801,0
2064,39823,0
2090,39791,0
2036,39813,0
2042,39837,0
2036,39806,0
2156,39827,0
2169,39856,0
2180,39830,0
2228,39833,0
2218,39875,0
2200,39844,0
2186,39847,0
2214,39881,0
2194,39859,0
2272,39860,0
2257,39886,0
2138,39875,0
2116,39876,0
2116,39887,0
2080,39890,0
2064,39898,0
2046,39905,0
2036,39892,0
2025,39899,0
2026,39901,0
2010,39887,0
2020,39917,0
2041,39891,0
2044,39889,0
2104,39917,0
2080,39877,0
2144,39887,0
2101,39913,0
2166,39880,0
2122,39896,0
2136,39909,0
2116,39877,0
2242,39887,0
2220,39912,0
2216,39883,0
2194,39884,0
2188,39906,0
2108,39881,0
2098,39892,0
2109,39903,0
2108,39882,0
2176,39875,0
2176,39906,0
2072,39905,0
2047,39885,0
2100,39890,0
2114,39880,0
2112,39889,0
2096,39881,0
2092,39872,0
2090,39907,0
2076,39882,0
2068,39881,0
2066,39909,0
2088,39868,0
2053,39879,0
2084,39897,0
2032,39859,0
2084,39870,0
2047,39897,0
2096,39853,0
2060,39874,0
2068,39888,0
2068,39863,0
2200,39870,0
2208,39898,0
2216,39872,0
2212,39878,0
2224,39908,0
2148,39880,0
2180,39883,0
2160,39899,0
2152,39884,0
2224,39872,0
2200,39890,0
2068,39872,0
2072,39884,0
2068,39860,0
2080,39875,0
2088,39871,0
2088,39854,0
2096,39880,0
2110,39899,0
2112,39857,0
2133,39870,0
2136,39887,0
2168,39860,0
2152,39868,0
2212,39893,0
2160,39873,0
2180,39882,0
2128,39902,0
2152,39887,0
2090,39886,0
2080,39904,0
2047,39883,0
2148,39878,0
2136,39910,0
2133,39886,0
2133,39898,0
2140,39921,0
2088,39879,0
2100,39896,0
2110,39911,0
2131,39894,0
2208,39906,0
2234,39908,0
2124,39897,0
2136,39893,0
2136,39902,0
2124,39891,0
2112,39936,0
2097,39938,0
2088,39923,0
2072,39908,0
2046,39947,0
2040,39916,0
2032,39911,0
2053,39948,0
2040,39915,0
2096,39936,0
2068,39946,0
2112,39920,0
2084,39939,0
2160,39978,0
2120,39931,0
2154,39938,0
2136,39981,0
2260,39953,0
2256,39954,0
2240,39988,0
2232,39955,0
2214,39971,0
2132,39996,0
2116,39968,0
2099,39980,0
2100,40006,0
2176,39985,0
2154,39976,0
2056,39981,0
2060,39996,0
2068,40011,0
2076,40013,0
2096,39989,0
2116,40020,0
2132,40006,0
2136,40007,0
2136,40027,0
2129,40006,0
2120,40013,0
2128,40031,0
2104,40008,0
2136,40019,0
2072,40044,0
2084,40005,0
2028,40020,0
2066,40041,0
2072,40013,0
2024,40034,0
2016,40038,0
2144,40020,0
2156,40047,0
2192,40028,0
2184,40035,0
2198,40052,0
2168,40027,0
2172,40032,0
2187,40055,0
2208,40018,0
2260,40039,0
2256,40056,0
2120,40043,0
2140,40042,0
2108,40037,0
2084,40029,0
2072,40064,0
2072,40013,0
2060,40051,0
2060,40059,0
2058,40033,0
2058,40044,0
2056,40072,0
2088,40040,0
2084,40050,0
2144,40064,0
2108,40047,0
2164,40051,0
2116,40085,0
2164,40057,0
2108,40058,0
2136,40079,0
2104,40065,0
2208,40058,0
2192,40095,0
2208,40069,0
2154,40072,0
2148,40086,0
2101,40062,0
2077,40078,0
2076,40085,0
2072,40066,0
2136,40091,0
2024,40071,0
2028,40091,0
2032,40067,0
2032,40061,0
2025,40080,0
2044,40093,0
2008,40077,0
2018,40062,0
2010,40092,0
2000,40054,0
2024,40072,0
1983,40096,0
1964,40064,0
2024,40064,0
1992,40094,0
2048,40068,0
2028,40069,0
2104,40092,0
2092,40076,0
2140,40070,0
2280,40091,0
2336,40072,0
2384,40068,0
2432,40084,0
2484,40072,0
2536,40078,0
2528,40100,0
2592,40070,0
2657,40087,0
2736,40081,0
2912,40076,0
2972,40102,0
2872,40076,0
2980,40066,0
3032,40067,0
3108,40069,0
3176,40071,0
3236,40092,0
3300,40073,0
3332,40072,0
3360,40086,0
3380,40087,0
3360,40080,0
3348,40089,0
3260,40071,0
3268,40091,0
3088,40077,0
3080,40071,0
2904,40099,0
2880,40066,0
2704,40070,0
2608,40090,0
2508,40052,0
2564,40064,0
2482,40086,0
2418,40043,0
2354,40062,0
2304,40094,0
2200,40056,0
2172,40059,0
2168,40077,0
2173,40069,0
2250,40071,0
2244,40083,0
2116,40076,0
2096,40059,0
2082,40081,0
2040,40063,0
2037,40052,0
2001,40044,0
1968,40065,0
1937,40040,0
1900,40047,0
1876,40073,0
1852,40044,0
1864,40048,0
1832,40072,0
1868,40033,0
1816,40035,0
1864,40069,0
1832,40046,0
1872,40042,0
1844,40073,0
1856,40040,0
1840,40038,0
1928,40063,0
1924,40044,0
1909,40034,0
1904,40065,0
1898,40040,0
1832,40042,0
1816,40053,0
1814,40033,0
1814,40045,0
1876,40049,0
1882,40037,0
1791,40032,0
1808,40040,0
1820,40031,0
1828,40028,0
1845,40034,0
1854,40026,0
1852,40050,0
1880,40029,0
1880,40042,0
1864,40037,0
1856,40023,0
1879,40047,0
1848,40037,0
1872,40020,0
1848,40051,0
1844,40022,0
1826,40010,0
1852,40048,0
1804,39992,0
1832,40013,0
1824,40043,0
1928,40001,0
1954,40016,0
1958,40029,0
1976,40001,0
1996,40009,0
1978,40034,0
1972,40006,0
1961,40010,0
1977,40035,0
2016,40009,0
2009,40010,0
1952,39990,0
1896,39995,0
1868,39992,0
1858,40005,0
1860,40012,0
1856,40030,0
1856,40000,0
1872,40014,0
1866,40021,0
1896,40003,0
1900,40021,0
1912,40005,0
1918,40003,0
1984,40035,0
1956,39982,0
2004,40003,0
1968,40022,0
2008,39995,0
1960,40004,0
1964,40022,0
1944,40008,0
2048,40007,0
2024,40029,0
2016,40007,0
2029,40012,0
2020,40045,0
1945,40018,0
1965,40020,0
1957,40051,0
1972,40020,0
2052,40039,0
2080,40046,0
1964,40040,0
1992,40036,0
2016,40041,0
2021,40042,0
2032,40033,0
2024,40043,0
2024,40048,0
2024,40024,0
2000,40038,0
1994,40062,0
1984,40033,0
1981,40038,0
1952,40055,0
1992,40019,0
1944,40038,0
1988,40068,0
1954,40038,0
2010,40043,0
1978,40064,0
2008,40042,0
2024,40051,0
2152,40066,0
2168,40058,0
2176,40067,0
2180,40075,0
2176,40052,0
2112,40071,0
2107,40077,0
2085,40044,0
2106,40086,0
2128,40049,0
2112,40045,0
1994,40078,0
1992,40081,0
1996,40083,0
1997,40078,0
2000,40080,0
2016,40068,0
2016,40085,0
2028,40050,0
2047,40054,0
2090,40083,0
2084,40068,0
2095,40066,0
2088,40088,0
2132,40071,0
2080,40070,0
2136,40086,0
2072,40065,0
2112,40081,0
2036,40082,0
2047,40064,0
2020,40090,0
2132,40087,0
2130,40077,0
2152,40090,0
2160,40061,0
2168,40057,0
2138,40088,0
2140,40051,0
2168,40071,0
2192,40089,0
2280,40046,0
2276,40062,0
2160,40061,0
2164,40063,0
2154,40074,0
2144,40068,0
2140,40084,0
2120,40090,0
2104,40069,0
2088,40063,0
2068,40093,0
2060,40054,0
2052,40071,0
2077,40086,0
2072,40059,0
2108,40065,0
2072,40081,0
2128,40064,0
2108,40073,0
2164,40096,0
2136,40084,0
2152,40064,0
2156,40100,0
2288,40083,0
2284,40080,0
2265,40098,0
2276,40077,0
2260,40080,0
2176,40104,0
2178,40081,0
2150,40092,0
2148,40104,0
2232,40080,0
2228,40106,0
2120,40073,0
2112,40066,0
2124,40098,0
2137,40094,0
2156,40094,0
2164,40098,0
2180,40082,0
2184,40112,0
2186,40094,0
2188,40085,0
2188,40106,0
2198,40070,0
2168,40079,0
2220,40104,0
2152,40061,0
2176,40067,0
2124,40086,0
2168,40056,0
2116,40065,0
2132,40082,0
2232,40058,0
2256,40059,0
2268,40071,0
2272,40055,0
2290,40044,0
2308,40056,0
2248,40042,0
2248,40043,0
2252,40049,0
2240,40033,0
2320,40052,0
2164,39964,0
2153,40034,0
2132,40032,0
2121,40035,0
2120,40012,0
2109,40006,0
2120,40033,0
2130,40007,0
2136,39993,0
2140,40012,0
2154,39982,0
2169,39991,0
2196,40000,0
2232,39958,0
2228,39964,0
2256,39990,0
2192,39947,0
2248,39950,0
2184,39971,0
2202,39940,0
2292,39955,0
2276,39970,0
2264,39936,0
2248,39930,0
2228,39955,0
2232,39937,0
2162,39931,0
2168,39948,0
2168,39936,0
2172,39940,0
2264,39944,0
2264,39926,0
2152,39917,0
2168,39933,0
2168,39928,0
2168,39941,0
2156,39941,0
2154,39936,0
2144,39909,0
2136,39902,0
2112,39931,0
2140,39891,0
2104,39901,0
2099,39923,0
2084,39900,0
2136,39908,0
2080,39926,0
2144,39903,0
2108,39898,0
2168,39915,0
2128,39910,0
2160,39921,0
2160,39921,0
2304,39904,0
2304,39933,0
2312,39896,0
2314,39889,0
2292,39927,0
2237,39881,0
2218,39902,0
2198,39920,0
2179,39891,0
2232,39901,0
2196,39907,0
2064,39917,0
2062,39897,0
2066,39899,0
2072,39898,0
2080,39910,0
2082,39913,0
2096,39937,0
2104,39907,0
2136,39928,0
2152,39907,0
2169,39922,0
2192,39934,0
2168,39897,0
2212,39904,0
2148,39936,0
2184,39895,0
2114,39911,0
2140,39935,0
2072,39903,0
2066,39918,0
2040,39942,0
2164,39928,0
2166,39912,0
2176,39931,0
2194,39917,0
2194,39920,0
2152,39952,0
2122,39932,0
2192,39942,0
2209,39948,0
2330,39932,0
2312,39956,0
2168,39957,0
2192,39960,0
2172,39957,0
2162,39966,0
2142,39949,0
2173,39964,0
2122,39954,0
2094,39945,0
2096,39964,0
2088,39948,0
2088,39951,0
2092,39956,0
2088,39922,0
2140,39942,0
2108,39962,0
2168,39941,0
2132,39949,0
2212,39972,0
2172,39958,0
2176,39957,0
2156,39973,0
2280,39963,0
2268,39965,0
2268,39986,0
2244,39950,0
2232,39978,0
2146,39967,0
2140,39956,0
2130,39983,0
2123,39967,0
2200,39951,0
2204,39976,0
2096,39953,0
2089,39945,0
2116,39956,0
2152,39949,0
2144,39966,0
2153,39970,0
2172,39947,0
2176,39964,0
2177,39931,0
2168,39942,0
2154,39963,0
2165,39923,0
2132,39941,0
2160,39964,0
2096,39941,0
2116,39936,0
2056,39963,0
2120,39941,0
2092,39942,0
2124,39963,0
2092,39959,0
2240,39946,0
2252,39967,0
2282,39954,0
2304,39963,0
2324,39974,0
2260,39955,0
2262,39977,0
2252,39956,0
2284,39965,0
2304,39985,0
2288,39939,0
2148,39949,0
2132,39985,0
2112,39968,0
2077,39967,0
2088,39940,0
2092,39955,0
2096,39981,0
2108,39953,0
2104,39954,0
2120,39973,0
2129,39960,0
2160,39957,0
2168,39980,0
2244,39961,0
2200,39980,0
2260,39970,0
2202,39969,0
2244,39975,0
2192,39942,0
2196,39960,0
2188,39987,0
2281,39943,0
2252,39948,0
2248,39980,0
2234,39965,0
2240,39958,0
2172,39984,0
2182,39967,0
2180,39979,0
2186,39989,0
2280,39952,0
2297,39983,0
2192,39978,0
2208,39978,0
2208,39963,0
2214,39961,0
2208,39940,0
2212,39969,0
2208,39967,0
2200,39988,0
2188,39974,0
2168,39983,0
2148,39987,0
2140,39964,0
2128,39989,0
2169,39956,0
2122,39964,0
2176,39984,0
2124,39965,0
2192,39969,0
2152,39997,0
2200,39971,0
2200,39964,0
2340,40000,0
2392,39974,0
2360,40000,0
2362,39996,0
2356,39975,0
2276,40015,0
2272,39996,0
2250,39988,0
2224,40003,0
2284,39976,0
2272,39974,0
2136,39993,0
2130,39998,0
2132,39991,0
2141,39995,0
2144,39999,0
2140,40013,0
2148,39987,0
2160,39994,0
2192,40010,0
2196,39965,0
2202,39974,0
2217,40006,0
2196,39976,0
2248,39982,0
2184,40014,0
2232,39991,0
2172,39981,0
2216,40006,0
2144,39980,0
2144,39986,0
2124,40001,0
2252,39987,0
2256,40000,0
2256,39972,0
2264,39978,0
2276,40005,0
2221,39964,0
2240,39979,0
2266,40002,0
2272,39975,0
2352,39980,0
2360,40004,0
2210,39988,0
2200,39975,0
2188,39973,0
2168,39970,0
2148,39992,0
2132,39968,0
2114,39963,0
2090,39982,0
2076,39963,0
2078,39967,0
2080,39982,0
2112,39956,0
2092,39978,0
2160,39946,0
2128,39951,0
2192,39974,0
2180,39934,0
2248,39951,0
2208,39954,0
2232,39938,0
2220,39940,0
2352,39963,0
2337,39935,0
2336,39941,0
2308,39951,0
2306,39935,0
2201,39945,0
2182,39935,0
2176,39931,0
2169,39944,0
2240,39909,0
2248,39922,0
2120,39945,0
2140,39930,0
2152,39934,0
2164,39926,0
2186,39912,0
2198,39930,0
2224,39898,0
2228,39906,0
2224,39927,0
2222,39924,0
2228,39912,0
2252,39930,0
2224,39918,0
2244,39912,0
2176,39924,0
2216,39912,0
2160,39934,0
2208,39919,0
2164,39912,0
2176,39930,0
2152,39894,0
2304,39919,0
2312,39933,0
2345,39908,0
2360,39912,0
2368,39929,0
2296,39919,0
2305,39913,0
2300,39945,0
2292,39906,0
2360,39916,0
2224,39943,0
2174,39930,0
2156,39915,0
2144,39955,0
2128,39954,0
2132,39932,0
2136,39941,0
2140,39952,0
2144,39934,0
2156,39958,0
2160,39923,0
2198,39945,0
2200,39946,0
2296,39935,0
2224,39933,0
2272,39966,0
2212,39947,0
2264,39944,0
2200,39964,0
2204,39945,0
2304,39945,0
2298,39962,0
2262,39939,0
2252,39957,0
2256,39942,0
2260,39934,0
2208,39960,0
2208,39917,0
2322,39946,0
2228,39955,0
2328,39920,0
2344,39938,0
2216,39943,0
2222,39937,0
2232,39963,0
2224,39943,0
2216,39937,0
2200,39962,0
2200,39943,0
2192,39936,0
2176,39959,0
2164,39925,0
2122,39953,0
2175,39933,0
2162,39942,0
2200,39961,0
2156,39932,0
2212,39934,0
2180,39955,0
2240,39913,0
2200,39926,0
2232,39960,0
2236,39918,0
2376,39927,0
2378,39946,0
2368,39925,0
2354,39931,0
2352,39955,0
2256,39936,0
2240,39936,0
2228,39957,0
2203,39929,0
2264,39961,0
2252,39932,0
2128,39931,0
2120,39942,0
2132,39924,0
2138,39939,0
2136,39927,0
2152,39923,0
2160,39928,0
2172,39953,0
2192,39929,0
2204,39949,0
2228,39917,0
2251,39923,0
2204,39948,0
2248,39911,0
2186,39920,0
2217,39941,0
2160,39915,0
2184,39924,0
2116,39951,0
2112,39930,0
2098,39929,0
2232,39950,0
2240,39927,0
2258,39926,0
2268,39948,0
2288,39933,0
2232,39950,0
2264,39940,0
2289,39936,0
2320,39952,0
2372,39920,0
2372,39940,0
2224,39935,0
2212,39948,0
2202,39971,0
2178,39972,0
2140,39963,0
2105,39950,0
2084,39984,0
2028,39956,0
2036,39970,0
2028,39970,0
2028,39957,0
2046,39972,0
2040,39955,0
2104,39951,0
2064,39973,0
2144,39941,0
2116,39950,0
2200,39983,0
2152,39945,0
2172,39948,0
2164,39980,0
2304,39957,0
2314,39962,0
2320,39986,0
2348,39962,0
2336,39959,0
2272,39991,0
2284,39968,0
2321,39972,0
2368,39979,0
2512,39964,0
2568,39981,0
2488,39973,0
2556,39982,0
2676,39971,0
2772,39973,0
2864,39980,0
2960,39951,0
3048,39963,0
3120,39989,0
3200,39972,0
3260,39968,0
3326,39983,0
3392,39967,0
3390,39977,0
3496,39994,0
3384,39985,0
3472,40000,0
3336,39994,0
3392,39983,0
3232,40000,0
3184,39978,0
3088,39974,0
3216,40001,0
3138,39955,0
3072,39972,0
2994,40006,0
2924,39982,0
2746,39975,0
2668,39998,0
2588,39990,0
2504,39989,0
2504,40014,0
2432,39986,0
2256,39994,0
2164,40003,0
2132,40000,0
2096,40019,0
2076,40006,0
2072,40001,0
2064,39979,0
2064,39989,0
2072,40005,0
2076,39987,0
2084,39982,0
2104,40009,0
2090,39996,0
2136,40019,0
2072,39997,0
2096,39996,0
2032,40008,0
2060,39988,0
1992,39987,0
1984,40013,0
1944,39972,0
2016,39995,0
1996,40012,0
1970,39989,0
1948,39993,0
1946,40018,0
1886,40003,0
1892,40007,0
1860,40012,0
1898,40004,0
1960,40027,0
2002,40005,0
1900,40028,0
1908,40026,0
1936,40023,0
1936,40020,0
1936,40023,0
1944,39996,0
1938,40017,0
1952,39993,0
1940,40001,0
1919,40024,0
1916,40003,0
1919,39999,0
1908,40016,0
1976,40006,0
1909,40017,0
1960,40007,0
1912,39988,0
1986,40018,0
1922,39983,0
1976,39994,0
1960,40010,0
2082,39974,0
2080,39984,0
2072,40014,0
2072,39981,0
2065,39991,0
2000,40000,0
1992,39991,0
1972,39987,0
1969,40015,0
2032,40000,0
2020,39991,0
1918,40005,0
1918,40006,0
1928,40009,0
1944,40019,0
1952,40012,0
1968,39994,0
1976,39996,0
1996,40025,0
2016,39983,0
2056,39997,0
2028,40027,0
2044,40008,0
2032,39998,0
2076,40026,0
2020,40016,0
2056,40001,0
2000,40030,0
2029,40011,0
1994,40022,0
1972,40024,0
1962,40010,0
2088,40028,0
2101,40012,0
2112,40006,0
2120,40026,0
2128,39995,0
2076,40008,0
2100,40033,0
2112,39998,0
2112,40013,0
2186,40037,0
2176,40010,0
2046,40033,0
2046,40026,0
2042,40022,0
2022,40026,0
2016,40032,0
2008,40024,0
1996,40047,0
1990,40029,0
2000,40029,0
2009,40046,0
2010,40032,0
2044,40051,0
2028,40049,0
2106,40033,0
2068,40058,0
2136,40038,0
2108,40043,0
2168,40076,0
2128,40021,0
2128,40051,0
2136,40055,0
2226,40042,0
2240,40048,0
2224,40077,0
2200,40056,0
2180,40067,0
2112,40070,0
2098,40052,0
2092,40077,0
2093,40075,0
2164,40065,0
2047,40104,0
2068,40068,0
2082,40070,0
2096,40072,0
2116,40066,0
2136,40059,0
2130,40070,0
2136,40092,0
2128,40045,0
2120,40060,0
2120,40087,0
2123,40061,0
2104,40061,0
2144,40081,0
2096,40053,0
2128,40064,0
2080,40088,0
2145,40060,0
2084,40061,0
2120,40092,0
2224,40063,0
2240,40070,0
2250,40089,0
2292,40073,0
2304,40094,0
2328,40088,0
2244,40073,0
2241,40100,0
2268,40068,0
2236,40083,0
2304,40093,0
2296,40054,0
2144,40104,0
2132,40107,0
2136,40095,0
2132,40092,0
2128,40072,0
2141,40075,0
2144,40083,0
2152,40101,0
2164,40088,0
2180,40091,0
2186,40097,0
2224,40082,0
2212,40088,0
2280,40097,0
2216,40075,0
2273,40082,0
2210,40066,0
2272,40073,0
2200,40085,0
2208,40051,0
2176,40060,0
2304,40083,0
2276,40059,0
2294,40053,0
2280,40076,0
2284,40050,0
2228,40049,0
2226,40077,0
2242,40052,0
2254,40073,0
2352,40061,0
2378,40043,0
2256,40039,0
2256,40047,0
2272,40027,0
2269,40039,0
2264,40031,0
2248,40060,0
2236,40051,0
2229,40043,0
2202,40054,0
2200,40023,0
2178,40035,0
2192,40052,0
2168,40015,0
2224,40029,0
2172,40044,0
2242,40024,0
2200,40019,0
2272,40050,0
2240,40036,0
2276,40033,0
2268,40048,0
2416,40035,0
2410,40054,0
2408,40039,0
2401,40025,0
2384,40038,0
2298,40012,0
2280,40028,0
2260,40050,0
2240,40007,0
2304,40022,0
2292,40036,0
2160,40028,0
2162,40038,0
2168,40021,0
2176,40041,0
2188,40037,0
2216,40045,0
2202,40021,0
2244,40028,0
2264,40042,0
2262,40028,0
2300,40054,0
2285,40036,0
2264,40025,0
2312,40050,0
2234,40032,0
2276,40020,0
2194,40040,0
2236,40005,0
2160,40012,0
2172,40041,0
2136,40006,0
2272,40011,0
2276,40040,0
2275,40017,0
2292,40008,0
2306,40031,0
2240,40012,0
2257,40038,0
2280,40024,0
2279,40013,0
2368,40036,0
2356,39999,0
2228,40018,0
2216,39998,0
2200,40016,0
2192,40020,0
2172,40007,0
2148,40006,0
2154,40024,0
2156,39991,0
2129,40005,0
2132,40030,0
2144,39985,0
2174,40007,0
2172,40014,0
2244,39989,0
2232,39995,0
2282,40014,0
2229,40002,0
2300,39996,0
2232,40023,0
2250,40004,0
2228,40004,0
2354,40028,0
2348,39997,0
2328,40018,0
2305,40022,0
2288,40006,0
2240,40028,0
2210,40000,0
2208,40009,0
2232,40016,0
2304,40001,0
2312,40005,0
2192,40031,0
2200,40013,0
2216,40012,0
2204,40018,0
2252,40023,0
2260,40025,0
2236,40009,0
2240,39997,0
2232,40029,0
2224,39994,0
2212,40016,0
2210,40030,0
2168,40002,0
2196,40013,0
2132,40026,0
2176,40006,0
2128,40002,0
2176,40026,0
2128,40004,0
2144,40013,0
2148,40036,0
2288,40015,0
2348,40023,0
2344,40034,0
2352,39998,0
2368,40021,0
2290,40021,0
2293,40001,0
2290,40014,0
2304,39983,0
2360,39994,0
2340,40015,0
2180,39991,0
2164,40008,0
2156,40000,0
2152,39991,0
2153,40005,0
2154,40001,0
2168,39993,0
2170,40010,0
2186,39972,0
2202,40000,0
2218,40019,0
2247,39987,0
2240,39999,0
2288,40015,0
2228,40004,0
2284,39991,0
2212,40011,0
2264,40003,0
2194,39998,0
2208,40030,0
2164,39998,0
2276,40027,0
2276,40017,0
2266,40013,0
2282,40017,0
2282,39982,0
2232,40011,0
2226,40030,0
2243,39999,0
2280,40005,0
2368,40026,0
2374,40014,0
2248,40022,0
2250,40023,0
2248,40015,0
2242,40016,0
2232,40021,0
2228,40019,0
2212,40048,0
2200,40027,0
2180,40042,0
2168,40038,0
2160,40030,0
2118,40057,0
2152,40022,0
2212,40037,0
2160,40056,0
2216,40013,0
2176,40040,0
2256,40055,0
2208,40035,0
2240,40044,0
2224,40075,0
2372,40056,0
2368,40052,0
2360,40085,0
2360,40061,0
2352,40081,0
2268,40086,0
2260,40072,0
2250,40102,0
2235,40067,0
2304,40080,0
2304,40090,0
2172,40088,0
2164,40096,0
2168,40097,0
2180,40094,0
2184,40098,0
2200,40119,0
2204,40100,0
2224,40102,0
2232,40120,0
2232,40104,0
2239,40113,0
2245,40128,0
2236,40112,0
2296,40129,0
2220,40115,0
2260,40104,0
2196,40133,0
2224,40101,0
2148,40110,0
2156,40138,0
2192,40101,0
2272,40115,0
2268,40131,0
2284,40120,0
2296,40116,0
2314,40128,0
2272,40110,0
2280,40128,0
2305,40130,0
2314,40103,0
2394,40128,0
2240,40030,0
2244,40118,0
2240,40110,0
2216,40125,0
2204,40108,0
2184,40104,0
2172,40110,0
2156,40096,0
2160,40105,0
2154,40110,0
2152,40082,0
2165,40109,0
2168,40094,0
2240,40086,0
2216,40102,0
2288,40063,0
2240,40073,0
2304,40087,0
2248,40073,0
2272,40071,0
2376,40084,0
2360,40058,0
2340,40058,0
2320,40083,0
2297,40049,0
2280,40071,0
2200,40060,0
2196,40047,0
2204,40066,0
2203,40028,0
2288,40035,0
2294,40053,0
2172,40030,0
2196,40027,0
2210,40028,0
2220,40024,0
2240,40029,0
2244,40048,0
2240,40031,0
2240,40050,0
2236,40020,0
2228,40022,0
2224,40038,0
2229,39999,0
2196,40014,0
2260,40033,0
2164,40009,0
2224,40009,0
2176,40040,0
2180,40021,0
2172,40020,0
2212,40035,0
2184,40009,0
2324,40020,0
2344,40003,0
2352,39997,0
2353,40031,0
2345,39986,0
2280,40003,0
2262,40012,0
2264,39999,0
2250,40004,0
2320,40022,0
2304,40001,0
2152,40005,0
2148,40028,0
2152,40012,0
2162,40023,0
2164,40029,0
2174,40014,0
2188,40033,0
2188,40018,0
2208,40005,0
2224,40026,0
2235,39995,0
2257,40012,0
2248,40034,0
2296,40004,0
2232,40011,0
2276,40029,0
2216,40021,0
2268,40022,0
2196,40038,0
2188,40016,0
2192,40038,0
2306,40022,0
2294,40020,0
2296,40044,0
2304,40004,0
2305,40015,0
2240,40044,0
2239,40017,0
2249,40022,0
2260,40043,0
2352,40019,0
2368,40029,0
2236,40043,0
2238,40062,0
2218,40047,0
2216,40027,0
2232,40042,0
2200,40062,0
2184,40041,0
2160,40046,0
2140,40066,0
2124,40049,0
2120,40074,0
2138,40048,0
2140,40040,0
2194,40071,0
2154,40035,0
2220,40041,0
2174,40064,0
2256,40031,0
2212,40035,0
2256,40063,0
2224,40052,0
2392,40048,0
2357,40075,0
2344,40053,0
2344,40063,0
2328,40095,0
2256,40065,0
2225,40071,0
2208,40095,0
2195,40076,0
2264,40087,0
2260,40064,0
2136,40098,0
2130,40071,0
2136,40094,0
2168,40090,0
2160,40092,0
2170,40102,0
2184,40075,0
2200,40097,0
2174,40108,0
2216,40064,0
2224,40087,0
2229,40105,0
2216,40076,0
2276,40097,0
2208,40114,0
2242,40104,0
2180,40096,0
2233,40126,0
2168,40111,0
2180,40105,0
2168,40124,0
2320,40110,0
2320,40126,0
2322,40101,0
2341,40108,0
2352,40134,0
2308,40089,0
2300,40113,0
2308,40127,0
2305,40113,0
2384,40120,0
2380,40137,0
2224,40101,0
2220,40140,0
2204,40117,0
2188,40103,0
2172,40113,0
2160,40120,0
2144,40118,0
2138,40136,0
2144,40097,0
2144,40109,0
2156,40139,0
2180,40120,0
2172,40121,0
2256,40144,0
2224,40124,0
2300,40153,0
2242,40146,0
2304,40119,0
2232,40148,0
2242,40141,0
2210,40133,0
2328,40149,0
2312,40110,0
2306,40132,0
2272,40153,0
2272,40119,0
2192,40132,0
2202,40158,0
2198,40133,0
2206,40146,0
2290,40171,0
2304,40149,0
2184,40159,0
2212,40166,0
2224,40151,0
2240,40148,0
2236,40157,0
2236,40143,0
2232,40167,0
2212,40132,0
2200,40136,0
2186,40161,0
2178,40125,0
2165,40143,0
2146,40173,0
2180,40144,0
2128,40146,0
2188,40173,0
2136,40148,0
2216,40168,0
2170,40170,0
2208,40151,0
2200,40179,0
2352,40155,0
2376,40158,0
2381,40174,0
2400,40140,0
2405,40149,0
2308,40172,0
2304,40147,0
2292,40152,0
2280,40184,0
2344,40154,0
2312,40160,0
2160,40167,0
2148,40162,0
2146,40140,0
2144,40153,0
2144,40169,0
2138,40158,0
2140,40181,0
2148,40159,0
2164,40184,0
2189,40177,0
2196,40163,0
2233,40177,0
2220,40160,0
2280,40162,0
2216,40181,0
2274,40156,0
2208,40168,0
2272,40195,0
2196,40172,0
2202,40163,0
2168,40198,0
2296,40179,0
2288,40174,0
2292,40203,0
2306,40181,0
2316,40196,0
2216,40198,0
2224,40179,0
2241,40207,0
2250,40162,0
2336,40178,0
2341,40198,0
2202,40191,0
2196,40187,0
2192,40172,0
2194,40210,0
2181,40187,0
2172,40208,0
2160,40169,0
2136,40190,0
2120,40201,0
2108,40179,0
2108,40190,0
2120,40207,0
2110,40194,0
2154,40190,0
2096,40215,0
2156,40182,0
2112,40219,0
2184,40207,0
2136,40187,0
2162,40220,0
2148,40179,0
2268,40196,0
2260,40218,0
2256,40187,0
2256,40191,0
2240,40218,0
2180,40192,0
2156,40195,0
2152,40222,0
2162,40194,0
2256,40210,0
2192,40204,0
2228,40232,0
2276,40227,0
2340,40210,0
2418,40193,0
2508,40201,0
2600,40218,0
2704,40204,0
2796,40192,0
2880,40215,0
2968,40185,0
3088,40199,0
3114,40217,0
3288,40194,0
3272,40194,0
3432,40218,0
3384,40206,0
3540,40204,0
3480,40224,0
3540,40199,0
3776,40197,0
3776,40222,0
3744,40208,0
3690,40227,0
3624,40208,0
3552,40196,0
3328,40207,0
3235,40183,0
3144,40202,0
3060,40211,0
3056,40189,0
2976,40187,0
2692,40171,0
2600,40199,0
2500,40209,0
2416,40188,0
2340,40190,0
2268,40205,0
2228,40200,0
2192,40193,0
2168,40207,0
2153,40188,0
2144,40210,0
2157,40177,0
2152,40186,0
2216,40201,0
2160,40162,0
2224,40177,0
2140,40198,0
2192,40168,0
2100,40164,0
2098,40184,0
2047,40176,0
2148,40176,0
2113,40186,0
2081,40171,0
2050,40174,0
2034,40192,0
1961,40174,0
1936,40177,0
1933,40193,0
1936,40176,0
2042,40184,0
2026,40195,0
1924,40171,0
1932,40201,0
1946,40167,0
1954,40176,0
1956,40183,0
1956,40165,0
1960,40162,0
1948,40191,0
1944,40179,0
1933,40178,0
1881,40185,0
1916,40182,0
1892,40192,0
1928,40190,0
1872,40179,0
1944,40208,0
1884,40182,0
1948,40178,0
1892,40195,0
1928,40165,0
1928,40191,0
2072,40211,0
2080,40172,0
2116,40193,0
2136,40212,0
2137,40198,0
2052,40189,0
2058,40217,0
2062,40200,0
2069,40214,0
2144,40226,0
2136,40203,0
1976,40209,0
1981,40214,0
1982,40222,0
1988,40216,0
1988,40211,0
1985,40202,0
1992,40210,0
2004,40229,0
2008,40213,0
2024,40218,0
2036,40241,0
2063,40223,0
2044,40243,0
2106,40215,0
2036,40228,0
2106,40247,0
2016,40213,0
2104,40220,0
2010,40247,0
2036,40219,0
1996,40229,0
2162,40251,0
2246,40228,0
2244,40241,0
2249,40249,0
2256,40230,0
2176,40248,0
2194,40231,0
2232,40219,0
2225,40248,0
2296,40216,0
2304,40231,0
2108,40233,0
2100,40218,0
2116,40231,0
2194,40233,0
2176,40239,0
2200,40241,0
2164,40247,0
2088,40226,0
2144,40260,0
2128,40213,0
2122,40221,0
2151,40255,0
2128,40229,0
2220,40228,0
2144,40255,0
2248,40231,0
2168,40245,0
2308,40256,0
2204,40229,0
2280,40259,0
2240,40228,0
2348,40228,0
2384,40260,0
2245,40214,0
2320,40248,0
2268,40258,0
2148,40243,0
2132,40240,0
2129,40263,0
2112,40240,0
2244,40243,0
2184,40263,0
2034,40264,0
2014,40261,0
2040,40255,0
2064,40260,0
2080,40235,0
2100,40273,0
2102,40255,0
2120,40281,0
2122,40259,0
2124,40254,0
2128,40278,0
2144,40245,0
2113,40258,0
2176,40275,0
2084,40255,0
2148,40262,0
2056,40292,0
2132,40273,0
2040,40276,0
2084,40286,0
2064,40269,0
2252,40292,0
2276,40270,0
2320,40277,0
2324,40297,0
2325,40257,0
2240,40280,0
2252,40308,0
2258,40274,0
2249,40278,0
2336,40299,0
2328,40276,0
2168,40297,0
2132,40296,0
2130,40284,0
2092,40303,0
2088,40314,0
2080,40296,0
2076,40305,0
2088,40276,0
2090,40298,0
2100,40319,0
2110,40290,0
2144,40294,0
2140,40318,0
2240,40293,0
2174,40304,0
2260,40324,0
2188,40309,0
2272,40326,0
2180,40317,0
2208,40299,0
2160,40326,0
2344,40287,0
2308,40305,0
2290,40326,0
2277,40304,0
2278,40304,0
2184,40334,0
2186,40309,0
2196,40301,0
2200,40330,0
2312,40310,0
2320,40313,0
2176,40318,0
2192,40313,0
2208,40324,0
2204,40308,0
2236,40307,0
2228,40330,0
2204,40305,0
2208,40308,0
2204,40322,0
2184,40300,0
2172,40307,0
2172,40326,0
2140,40316,0
2194,40327,0
2132,40334,0
2180,40322,0
2128,40339,0
2210,40293,0
2124,40300,0
2168,40337,0
2148,40299,0
2336,40308,0
2336,40330,0
2288,40315,0
2276,40311,0
2268,40322,0
2204,40312,0
2198,40327,0
2201,40329,0
2194,40318,0
2248,40327,0
2252,40304,0
2098,40316,0
2096,40314,0
2104,40307,0
2106,40301,0
2120,40301,0
2117,40322,0
2136,40298,0
2136,40313,0
2152,40325,0
2160,40285,0
2172,40316,0
2184,40297,0
2166,40287,0
2208,40305,0
2148,40270,0
2184,40283,0
2132,40303,0
2160,40283,0
2112,40287,0
2100,40303,0
2088,40290,0
2256,40286,0
2224,40293,0
2226,40283,0
2244,40299,0
2266,40271,0
2156,40272,0
2178,40289,0
2190,40253,0
2214,40255,0
2352,40282,0
2208,40239,0
2210,40264,0
2224,40250,0
2224,40247,0
2228,40291,0
2204,40258,0
2204,40270,0
2164,40247,0
2152,40249,0
2152,40275,0
2148,40258,0
2180,40256,0
2156,40280,0
2242,40253,0
2174,40273,0
2280,40253,0
2204,40248,0
2316,40272,0
2232,40234,0
2276,40244,0
2322,40263,0
2304,40244,0
2320,40249,0
2312,40263,0
2313,40247,0
2297,40251,0
2192,40274,0
2172,40254,0
2156,40267,0
2138,40261,0
2240,40258,0
2241,40270,0
2108,40292,0
2136,40262,0
2148,40262,0
2180,40271,0
2204,40258,0
2213,40278,0
2264,40233,0
2253,40252,0
2252,40280,0
2280,40255,0
2256,40248,0
2271,40279,0
2240,40254,0
2304,40265,0
2208,40266,0
2278,40257,0
2176,40284,0
2280,40240,0
2176,40259,0
2244,40288,0
2220,40242,0
2336,40270,0
2316,40274,0
2332,40267,0
2354,40273,0
2368,40292,0
2288,40279,0
2292,40273,0
2278,40300,0
2273,40271,0
2360,40289,0
2356,40289,0
2168,40292,0
2156,40268,0
2148,40298,0
2140,40293,0
2128,40308,0
2128,40288,0
2136,40302,0
2136,40300,0
2138,40296,0
2160,40311,0
2160,40276,0
2192,40297,0
2200,40313,0
2290,40293,0
2252,40305,0
2324,40323,0
2232,40312,0
2330,40291,0
2368,40325,0
2272,40306,0
2216,40322,0
2338,40338,0
2308,40311,0
2294,40329,0
2261,40298,0
2258,40314,0
2164,40326,0
2184,40301,0
2168,40313,0
2182,40331,0
2280,40328,0
2304,40323,0
2196,40345,0
2212,40356,0
2224,40345,0
2228,40331,0
2232,40337,0
2232,40331,0
2216,40347,0
2208,40330,0
2192,40355,0
2176,40347,0
2160,40334,0
2170,40361,0
2136,40328,0
2192,40338,0
2140,40345,0
2200,40315,0
2146,40322,0
2192,40357,0
2168,40328,0
2200,40330,0
2188,40358,0
2336,40338,0
2348,40356,0
2356,40346,0
2360,40329,0
2352,40348,0
2268,40310,0
2251,40329,0
2235,40349,0
2224,40332,0
2280,40329,0
2264,40346,0
2120,40324,0
2118,40333,0
2120,40334,0
2128,40335,0
2140,40349,0
2136,40353,0
2144,40339,0
2172,40334,0
2176,40360,0
2193,40344,0
2200,40342,0
2205,40363,0
2180,40337,0
2241,40369,0
2184,40335,0
2212,40347,0
2154,40364,0
2192,40335,0
2108,40357,0
2120,40372,0
2096,40353,0
2224,40358,0
2224,40373,0
2240,40350,0
2248,40374,0
2260,40350,0
2202,40352,0
2218,40380,0
2236,40353,0
2252,40358,0
2344,40382,0
2360,40364,0
2216,40362,0
2213,40345,0
2208,40354,0
2196,40368,0
2184,40382,0
2160,40375,0
2156,40372,0
2136,40389,0
2144,40362,0
2146,40390,0
2160,40358,0
2176,40369,0
2162,40399,0
2240,40375,0
2172,40367,0
2264,40398,0
2200,40375,0
2276,40388,0
2216,40387,0
2232,40363,0
2208,40402,0
2344,40368,0
2326,40375,0
2324,40391,0
2312,40377,0
2297,40386,0
2200,40394,0
2189,40387,0
2185,40387,0
2188,40394,0
2288,40377,0
2296,40403,0
2180,40392,0
2169,40392,0
2192,40380,0
2188,40381,0
2220,40391,0
2244,40398,0
2248,40396,0
2241,40389,0
2232,40415,0
2236,40366,0
2224,40391,0
2246,40409,0
2200,40384,0
2241,40395,0
2168,40412,0
2192,40396,0
2168,40390,0
2200,40423,0
2136,40398,0
2172,40420,0
2160,40415,0
2312,40393,0
2320,40422,0
2344,40393,0
2368,40408,0
2386,40427,0
2300,40398,0
2308,40394,0
2308,40417,0
2292,40407,0
2384,40421,0
2368,40419,0
2176,40416,0
2176,40422,0
2144,40422,0
2136,40398,0
2128,40404,0
2128,40419,0
2128,40400,0
2140,40422,0
2136,40392,0
2140,40398,0
2152,40421,0
2175,40387,0
2184,40407,0
2248,40416,0
2196,40411,0
2264,40415,0
2192,40419,0
2280,40398,0
2192,40415,0
2224,40379,0
2188,40399,0
2320,40416,0
2309,40390,0
2304,40390,0
2292,40405,0
2294,40381,0
2210,40388,0
2219,40414,0
2224,40390,0
2224,40397,0
2320,40379,0
2336,40389,0
2324,40392,0
2210,40399,0
2224,40382,0
2216,40379,0
2208,40399,0
2200,40378,0
2200,40388,0
2188,40387,0
2168,40369,0
2161,40392,0
2144,40342,0
2156,40363,0
2128,40379,0
2184,40361,0
2130,40357,0
2196,40384,0
2136,40358,0
2208,40373,0
2144,40347,0
2180,40348,0
2184,40364,0
2352,40339,0
2369,40341,0
2368,40368,0
2368,40348,0
2368,40341,0
2272,40352,0
2260,40341,0
2248,40359,0
2232,40319,0
2312,40333,0
2304,40348,0
2140,40320,0
2144,40326,0
2144,40305,0
2149,40319,0
2164,40321,0
2168,40329,0
2192,40299,0
2200,40305,0
2224,40331,0
2232,40311,0
2244,40309,0
2265,40326,0
2237,40311,0
2300,40326,0
2224,40309,0
2288,40307,0
2208,40323,0
2268,40283,0
2180,40294,0
2192,40315,0
2180,40284,0
2344,40294,0
2354,40322,0
2368,40301,0
2364,40318,0
2368,40321,0
2288,40306,0
2304,40325,0
2330,40281,0
2344,40297,0
2432,40314,0
2272,40333,0
2268,40313,0
2256,40314,0
2236,40313,0
2216,40335,0
2192,40308,0
2176,40330,0
2154,40289,0
2136,40305,0
2130,40344,0
2132,40314,0
2155,40316,0
2142,40340,0
2212,40324,0
2184,40340,0
2272,40309,0
2224,40318,0
2296,40350,0
2236,40299,0
2264,40316,0
2392,40341,0
2376,40326,0
2370,40331,0
2368,40334,0
2352,40326,0
2336,40340,0
2228,40326,0
2220,40321,0
2220,40332,0
2208,40295,0
2304,40319,0
2321,40339,0
2168,40333,0
2180,40325,0
2196,40326,0
2216,40333,0
2232,40324,0
2248,40339,0
2244,40317,0
2246,40333,0
2248,40325,0
2236,40321,0
2228,40335,0
2232,40303,0
2196,40309,0
2240,40341,0
2160,40323,0
2208,40311,0
2140,40336,0
2168,40320,0
2138,40339,0
2160,40301,0
2148,40322,0
2304,40333,0
2324,40316,0
2360,40321,0
2402,40332,0
2352,40324,0
2268,40322,0
2264,40337,0
2258,40314,0
2260,40334,0
2324,40308,0
2354,40315,0
2160,40340,0
2148,40341,0
2138,40334,0
2124,40327,0
2120,40329,0
2122,40318,0
2128,40333,0
2129,40317,0
2132,40315,0
2148,40349,0
2168,40333,0
2208,40343,0
2216,40330,0
2288,40324,0
2234,40347,0
2296,40318,0
2224,40318,0
2288,40333,0
2220,40323,0
2228,40321,0
2196,40349,0
2328,40326,0
2304,40354,0
2288,40329,0
2282,40325,0
2280,40348,0
2201,40315,0
2198,40331,0
2200,40350,0
2210,40334,0
2320,40336,0
2336,40358,0
2200,40342,0
2214,40347,0
2218,40352,0
2224,40356,0
2212,40345,0
2208,40341,0
2208,40336,0
2192,40361,0
2172,40353,0
2148,40357,0
2141,40374,0
2141,40350,0
2112,40379,0
2144,40351,0
2216,40353,0
2156,40374,0
2096,40352,0
2160,40355,0
2096,40380,0
2140,40366,0
2128,40371,0
2232,40381,0
2233,40355,0
2228,40399,0
2234,40354,0
2218,40366,0
2156,40389,0
2149,40374,0
2132,40366,0
2136,40398,0
2200,40383,0
2208,40395,0
2112,40418,0
3008,40433,0
2906,40440,0
2826,40422,0
2728,40446,0
2628,40415,0
2533,40432,0
2444,40437,0
2376,40409,0
2336,40428,0
2288,40444,0
2272,40426,0
2256,40444,0
2257,40450,0
2257,40429,0
2256,40457,0
2265,40427,0
2272,40420,0
2274,40443,0
2258,40415,0
2228,40417,0
2202,40446,0
2170,40427,0
2138,40442,0
2112,40437,0
2060,40416,0
2028,40438,0
1914,40402,0
1890,40406,0
1883,40417,0
1868,40395,0
1952,40404,0
1954,40421,0
1848,40421,0
1856,40421,0
1880,40421,0
1898,40421,0
1904,40421,0
2016,40379,0
1928,40412,0
1920,40412,0
1912,40412,0
1908,40412,0
1897,40412,0
1887,40412,0
1893,40384,0
1897,40406,0
1852,40406,0
1888,40406,0
1860,40406,0
1906,40406,0
1881,40406,0
1904,40362,0
1900,40397,0
2012,40397,0
2033,40397,0
2056,40397,0
2056,40397,0
2080,40397,0
2032,40397,0
2016,40399,0
2044,40399,0
1998,40399,0
2064,40399,0
2048,40399,0
1920,40384,0
1900,40371,0
1880,40382,0
1872,40386,0
1872,40376,0
1864,40385,0
1872,40353,0
1880,40362,0
1886,40380,0
1904,40353,0
1922,40362,0
1959,40378,0
1964,40366,0
2030,40375,0
1994,40373,0
2044,40364,0
1992,40381,0
2044,40348,0
1990,40350,0
1992,40378,0
1968,40357,0
2028,40364,0
2013,40394,0
1994,40363,0
1988,40379,0
1984,40366,0
1932,40370,0
1928,40375,0
2008,40354,0
2016,40367,0
2034,40371,0
2036,40361,0
2047,40375,0
2044,40386,0
2040,40353,0
2017,40358,0
2004,40394,0
1986,40373,0
1972,40379,0
1976,40385,0
1964,40369,0
2005,40391,0
1980,40359,0
2024,40378,0
1984,40390,0
2040,40358,0
2124,40374,0
2133,40389,0
2154,40376,0
2162,40390,0
2176,40410,0
2152,40377,0
2148,40412,0
2136,40381,0
2068,40383,0
2070,40406,0
2044,40372,0
2032,40383,0
2128,40412,0
1976,40395,0
1996,40412,0
2008,40412,0
2024,40393,0
2036,40375,0
2046,40402,0
2072,40404,0
2090,40426,0
2096,40400,0
2102,40427,0
2112,40396,0
2126,40404,0
2096,40436,0
2138,40402,0
2114,40411,0
2104,40437,0
2040,40415,0
2064,40420,0
2012,40417,0
2012,40409,0
2112,40425,0
2120,40385,0
2113,40403,0
2120,40417,0
2130,40387,0
2148,40395,0
2088,40420,0
2112,40392,0
2132,40420,0
2144,40413,0
2248,40397,0
2240,40406,0
2108,40395,0
2120,40385,0
2108,40390,0
2092,40394,0
2080,40385,0
2062,40379,0
2046,40401,0
2041,40368,0
2044,40383,0
2044,40401,0
2060,40383,0
2077,40393,0
2080,40383,0
2138,40362,0
2108,40390,0
2176,40351,0
2164,40365,0
2224,40382,0
2136,40370,0
2148,40343,0
2138,40375,0
2196,40350,0
2220,40366,0
2176,40361,0
2160,40353,0
2132,40367,0
1448,40317,0
2058,40328,0
2078,40352,0
2096,40320,0
2192,40320,0
2212,40348,0
2114,40319,0
2136,40329,0
2176,40318,0
2176,40336,0
2196,40334,0
2221,40327,0
2204,40309,0
2200,40304,0
2184,40322,0
2182,40292,0
2176,40319,0
2188,40291,0
2132,40303,0
2144,40313,0
2128,40268,0
2120,40293,0
2068,40315,0
2128,40282,0
2090,40271,0
2106,40302,0
2116,40286,0
2272,40298,0
2272,40286,0
2296,40276,0
2317,40290,0
2336,40259,0
2249,40265,0
2244,40295,0
2240,40267,0
2264,40263,0
2336,40287,0
2322,40257,0
2160,40283,0
2140,40285,0
2120,40270,0
2120,40288,0
2105,40263,0
2088,40261,0
2100,40266,0
2112,40235,0
2116,40249,0
2136,40265,0
2160,40241,0
2198,40243,0
2196,40259,0
2264,40237,0
2216,40261,0
2260,40231,0
2204,40225,0
2248,40260,0
2192,40225,0
2178,40230,0
2140,40233,0
2240,40227,0
2217,40226,0
2210,40248,0
2208,40221,0
2210,40250,0
2138,40206,0
2146,40218,0
2164,40240,0
2164,40218,0
2292,40219,0
2312,40245,0
2188,40248,0
2198,40224,0
2208,40215,0
2202,40227,0
2194,40210,0
2178,40205,0
2184,40238,0
2148,40194,0
2128,40212,0
2113,40231,0
2096,40219,0
2103,40217,0
2096,40231,0
2144,40214,0
2104,40240,0
2168,40196,0
2116,40197,0
2188,40237,0
2152,40196,0
2180,40195,0
2180,40217,0
2336,40206,0
2328,40216,0
2329,40207,0
2320,40200,0
2316,40224,0
2208,40199,0
2180,40198,0
2158,40233,0
2136,40205,0
2232,40217,0
2212,40222,0
2084,40189,0
2080,40212,0
2076,40206,0
2088,40204,0
2100,40210,0
2104,40210,0
2116,40215,0
2130,40204,0
2152,40221,0
2156,40185,0
2114,40196,0
2164,40213,0
2144,40187,0
2200,40185,0
2140,40219,0
2184,40195,0
2120,40220,0
2164,40187,0
2112,40191,0
2128,40208,0
2114,40173,0
2244,40190,0
2248,40213,0
2252,40204,0
2252,40193,0
2292,40221,0
2200,40192,0
2212,40228,0
2216,40177,0
2226,40202,0
2336,40228,0
2336,40194,0
2180,40213,0
2174,40213,0
2162,40209,0
2154,40202,0
2128,40215,0
2120,40219,0
2112,40205,0
2108,40219,0
2128,40229,0
2120,40206,0
2122,40228,0
2149,40224,0
2132,40210,0
2200,40227,0
2164,40208,0
2216,40209,0
2180,40232,0
2232,40215,0
2192,40227,0
2196,40244,0
2180,40222,0
2328,40242,0
2310,40204,0
2304,40227,0
2296,40248,0
2273,40231,0
2173,40237,0
2168,40267,0
2172,40233,0
2168,40249,0
2288,40237,0
2298,40236,0
2160,40252,0
2170,40255,0
2184,40269,0
2198,40270,0
2204,40244,0
2200,40261,0
2204,40251,0
2196,40240,0
2188,40274,0
2180,40265,0
2168,40272,0
2173,40277,0
2144,40261,0
2172,40283,0
2120,40256,0
2172,40268,0
2128,40301,0
2192,40273,0
2136,40277,0
2170,40308,0
2144,40276,0
2292,40303,0
2304,40281,0
2328,40278,0
2329,40300,0
2356,40265,0
2252,40282,0
2228,40308,0
2232,40278,0
2212,40301,0
2308,40308,0
2304,40298,0
2136,40304,0
2084,40301,0
2112,40323,0
2120,40294,0
2112,40295,0
2118,40307,0
2130,40313,0
2136,40301,0
2144,40329,0
2164,40289,0
2184,40299,0
2216,40322,0
2210,40306,0
2280,40302,0
2216,40317,0
2264,40312,0
2208,40318,0
2257,40318,0
2178,40307,0
2178,40336,0
2140,40292,0
2232,40295,0
2218,40317,0
2204,40299,0
2184,40301,0
2180,40336,0
2144,40307,0
2146,40321,0
1547,40310,0
2189,40307,0
2280,40325,0
2212,40280,0
2216,40319,0
2224,40297,0
2212,40305,0
2216,40310,0
2200,40307,0
2186,40311,0
2160,40317,0
2140,40296,0
2116,40313,0
2104,40290,0
2106,40296,0
2080,40304,0
2138,40284,0
2088,40278,0
2144,40309,0
2100,40287,0
2144,40302,0
2128,40304,0
2144,40287,0
2260,40303,0
2264,40269,0
2268,40287,0
2264,40304,0
2266,40286,0
2256,40277,0
2222,40309,0
2212,40287,0
2180,40293,0
2174,40282,0
2208,40281,0
2216,40299,0
2116,40280,0
2114,40277,0
2112,40271,0
2112,40279,0
2120,40270,0
2132,40291,0
2152,40269,0
2164,40275,0
2174,40289,0
2182,40282,0
2188,40296,0
2199,40272,0
2180,40265,0
2232,40287,0
2160,40256,0
2204,40266,0
2104,40286,0
2130,40268,0
2076,40265,0
2088,40276,0
2072,40275,0
2178,40290,0
2168,40282,0
2184,40267,0
2184,40288,0
2202,40258,0
2184,40258,0
2195,40285,0
2202,40257,0
2146,40262,0
2242,40296,0
2242,40279,0
2124,40263,0
2120,40277,0
2112,40267,0
2112,40276,0
2088,40265,0
2072,40274,0
2072,40297,0
2066,40263,0
2080,40286,0
2088,40305,0
2098,40285,0
2116,40279,0
2122,40297,0
2178,40290,0
2152,40303,0
2208,40293,0
2169,40286,0
2200,40308,0
2160,40288,0
2156,40293,0
2138,40320,0
2240,40294,0
2218,40306,0
2196,40326,0
2178,40297,0
2160,40330,0
2084,40305,0
2080,40302,0
2088,40330,0
2088,40292,0
2176,40310,0
2184,40334,0
2088,40306,0
2100,40299,0
2120,40321,0
2124,40320,0
2140,40322,0
2140,40338,0
2136,40319,0
2132,40336,0
2128,40336,0
2120,40327,0
2104,40340,0
2112,40321,0
2080,40317,0
2096,40335,0
2060,40312,0
2072,40332,0
2042,40351,0
2080,40341,0
2080,40343,0
2064,40340,0
2072,40337,0
2192,40365,0
2204,40334,0
2220,40336,0
2224,40350,0
2228,40322,0
2144,40334,0
2144,40360,0
2137,40359,0
2122,40342,0
2196,40374,0
2164,40351,0
2047,40354,0
2040,40358,0
2032,40360,0
2028,40370,0
2032,40359,0
2044,40352,0
2032,40388,0
2047,40361,0
2064,40386,0
2084,40376,0
2108,40357,0
2135,40390,0
2144,40354,0
2192,40360,0
2154,40386,0
2184,40380,0
2148,40374,0
2208,40398,0
2136,40374,0
2132,40400,0
2104,40378,0
2194,40379,0
2180,40396,0
2192,40386,0
2192,40387,0
2200,40407,0
2124,40390,0
2134,40411,0
2138,40382,0
2153,40389,0
2260,40413,0
2276,40382,0
2172,40390,0
2176,40400,0
2168,40396,0
2176,40405,0
2172,40428,0
2160,40393,0
2148,40405,0
2128,40443,0
2114,40407,0
2092,40413,0
2082,40439,0
2096,40423,0
2080,40443,0
2114,40442,0
2082,40435,0
2116,40453,0
2124,40427,0
2137,40432,0
2128,40455,0
2148,40423,0
2148,40447,0
2250,40469,0
2244,40455,0
2248,40462,0
2236,40482,0
2236,40449,0
2140,40482,0
2132,40461,0
2113,40451,0
2100,40483,0
2184,40449,0
2184,40468,0
2081,40473,0
2084,40499,0
2088,40480,0
2080,40492,0
2116,40488,0
2128,40484,0
2138,40503,0
2149,40496,0
2152,40493,0
2146,40504,0
2132,40498,0
2144,40519,0
2140,40512,0
2152,40488,0
2096,40514,0
2108,40485,0
2066,40495,0
2096,40528,0
2056,40504,0
2066,40511,0
2074,40536,0
2188,40512,0
2192,40523,0
2212,40498,0
2224,40510,0
2244,40534,0
2180,40501,0
2193,40511,0
2189,40531,0
2184,40506,0
2280,40524,0
2272,40533,0
2144,40525,0
2140,40513,0
2120,40531,0
2096,40511,0
2080,40558,0
2080,40517,0
2032,40504,0
2070,40536,0
2072,40507,0
2072,40528,0
2076,40495,0
2103,40494,0
2104,40518,0
2152,40482,0
2140,40497,0
2184,40512,0
2160,40492,0
2192,40494,0
2146,40515,0
2148,40502,0
2124,40512,0
2224,40474,0
2200,40493,0
2186,40505,0
2164,40487,0
2168,40484,0
2092,40514,0
2092,40481,0
2100,40510,0
2101,40475,0
2192,40483,0
2197,40511,0
2152,40471,0
2128,40477,0
2132,40476,0
2140,40478,0
2144,40503,0
2134,40469,0
2140,40468,0
2124,40492,0
2112,40457,0
2104,40459,0
2084,40471,0
2078,40451,0
2047,40467,0
2068,40471,0
2026,40447,0
2056,40465,0
2012,40417,0
2040,40441,0
2004,40457,0
2020,40437,0
2018,40440,0
2116,40449,0
2132,40435,0
2148,40453,0
2152,40428,0
2149,40427,0
2068,40449,0
2073,40407,0
2074,40430,0
2064,40432,0
2152,40413,0
2044,40342,0
2040,40406,0
2056,40415,0
2089,40414,0
2128,40397,0
2156,40422,0
2200,40394,0
2252,40393,0
2336,40415,0
2418,40391,0
2512,40411,0
2625,40421,0
2696,40388,0
2848,40405,0
2864,40370,0
3008,40379,0
3028,40397,0
3152,40387,0
3160,40373,0
3232,40403,0
3472,40387,0
3508,40398,0
3560,40384,0
3588,40369,0
3601,40397,0
3592,40358,0
3420,40368,0
3368,40385,0
3306,40368,0
3249,40356,0
3328,40374,0
3224,40348,0
2968,40342,0
2884,40361,0
2792,40362,0
2708,40354,0
2620,40353,0
2528,40330,0
2428,40344,0
2344,40306,0
2252,40317,0
2176,40334,0
2132,40316,0
2103,40314,0
2072,40326,0
2088,40311,0
2056,40316,0
2088,40327,0
2068,40293,0
2116,40316,0
2100,40280,0
2120,40301,0
2100,40315,0
2192,40285,0
2155,40287,0
2120,40316,0
2094,40295,0
2056,40308,0
1964,40288,0
1933,40293,0
1906,40301,0
1869,40273,0
1936,40272,0
1930,40300,0
1842,40282,0
1848,40288,0
1848,40276,0
1864,40290,0
1880,40279,0
1900,40256,0
1920,40262,0
1922,40285,0
1922,40272,0
1924,40269,0
1916,40291,0
1928,40272,0
1908,40277,0
1920,40282,0
1868,40272,0
1872,40289,0
1836,40252,0
1824,40271,0
1832,40283,0
1828,40264,0
1829,40264,0
1924,40297,0
1924,40277,0
1940,40298,0
1952,40277,0
1984,40266,0
1944,40290,0
1946,40254,0
1973,40258,0
1969,40287,0
2056,40275,0
2064,40272,0
1960,40287,0
1954,40291,0
1936,40272,0
1928,40264,0
1906,40290,0
1900,40300,0
1888,40260,0
1886,40288,0
1876,40292,0
1890,40279,0
1898,40291,0
1902,40311,0
1944,40294,0
1972,40308,0
1956,40282,0
1992,40296,0
1968,40316,0
1996,40290,0
1968,40294,0
1968,40326,0
2056,40312,0
2036,40328,0
2022,40335,0
2008,40317,0
1992,40348,0
1989,40296,0
1956,40320,0
1930,40335,0
1930,40332,0
1959,40331,0
2040,40359,0
2048,40346,0
1980,40334,0
1994,40345,0
2002,40349,0
2010,40364,0
2008,40334,0
2016,40349,0
2004,40373,0
2004,40349,0
1992,40375,0
1976,40375,0
1964,40353,0
1959,40375,0
1940,40346,0
1968,40351,0
1984,40380,0
1980,40359,0
1948,40364,0
1992,40388,0
1972,40369,0
1996,40391,0
2008,40365,0
2124,40363,0
2145,40405,0
2160,40362,0
2160,40371,0
2162,40396,0
2098,40365,0
2080,40371,0
2066,40407,0
2064,40379,0
2128,40405,0
2096,40367,0
1984,40391,0
1980,40381,0
1968,40385,0
1980,40394,0
1976,40401,0
1978,40421,0
1978,40395,0
1996,40417,0
1996,40393,0
2033,40403,0
2044,40425,0
2069,40385,0
2068,40397,0
2120,40427,0
2088,40405,0
2098,40407,0
2064,40426,0
2088,40416,0
2036,40429,0
2028,40401,0
2012,40405,0
2096,40428,0
2096,40398,0
2106,40405,0
2112,40435,0
2130,40404,0
2066,40414,0
2080,40409,0
2098,40405,0
2120,40434,0
2240,40390,0
2228,40395,0
2128,40410,0
2120,40398,0
2116,40400,0
2105,40430,0
2092,40436,0
2072,40395,0
2060,40425,0
2032,40377,0
2020,40386,0
2014,40418,0
2012,40395,0
2032,40403,0
2036,40402,0
2076,40385,0
2058,40399,0
2104,40374,0
2096,40381,0
2152,40409,0
2136,40376,0
2148,40369,0
2152,40392,0
2240,40372,0
2236,40390,0
2220,40367,0
2213,40368,0
2200,40384,0
2112,40363,0
2097,40365,0
2090,40384,0
2084,40371,0
2176,40388,0
2176,40363,0
2100,40376,0
2112,40355,0
2120,40357,0
2140,40363,0
2160,40390,0
2216,40350,0
2192,40351,0
2204,40374,0
2208,40347,0
2204,40373,0
2204,40348,0
2206,40340,0
2180,40359,0
2208,40330,0
2160,40329,0
2168,40363,0
2116,40336,0
2136,40346,0
2108,40335,0
2116,40325,0
2108,40336,0
2220,40312,0
2232,40312,0
2245,40331,0
2276,40313,0
2284,40308,0
2232,40330,0
2230,40303,0
2244,40320,0
2240,40309,0
2328,40299,0
2322,40322,0
2216,40302,0
2184,40317,0
2168,40319,0
2146,40296,0
2140,40293,0
2128,40304,0
2128,40267,0
2124,40262,0
2124,40291,0
2128,40269,0
2136,40265,0
2157,40290,0
2164,40266,0
2229,40283,0
2200,40237,0
2248,40247,0
2200,40264,0
2240,40236,0
2200,40240,0
2200,40249,0
2176,40229,0
2272,40251,0
2240,40212,0
2220,40213,0
2212,40231,0
2208,40193,0
2132,40197,0
2136,40226,0
2141,40194,0
2152,40188,0
2240,40210,0
2162,40110,0
2160,40193,0
2168,40192,0
2174,40185,0
2172,40184,0
2164,40175,0
2164,40177,0
2172,40156,0
2164,40172,0
2156,40141,0
2140,40146,0
2144,40164,0
2129,40150,0
2160,40157,0
2124,40144,0
2154,40137,0
2132,40153,0
2162,40114,0
2128,40128,0
2168,40142,0
2272,40125,0
2284,40134,0
2288,40124,0
2296,40113,0
2282,40123,0
2281,40093,0
2193,40106,0
2189,40125,0
2180,40103,0
2166,40105,0
2240,40118,0
2224,40101,0
2120,40110,0
2104,40102,0
2116,40101,0
2100,40091,0
2112,40110,0
2120,40108,0
2122,40074,0
2132,40087,0
2160,40101,0
2168,40089,0
2174,40092,0
2192,40102,0
2186,40079,0
2217,40096,0
2184,40056,0
2210,40067,0
2168,40098,0
2192,40071,0
2144,40061,0
2132,40107,0
2100,40071,0
2200,40092,0
2200,40071,0
2200,40066,0
2201,40084,0
2208,40063,0
2136,40067,0
2152,40086,0
2172,40055,0
2182,40081,0
2272,40067,0
2280,40065,0
2164,40052,0
2172,40058,0
2172,40067,0
2162,40073,0
2164,40059,0
2144,40078,0
2132,40051,0
2120,40057,0
2116,40079,0
2108,40060,0
2112,40079,0
2121,40076,0
2112,40056,0
2152,40088,0
2120,40046,0
2170,40063,0
2152,40082,0
2196,40067,0
2168,40076,0
2176,40092,0
2164,40062,0
2272,40088,0
2264,40050,0
2260,40073,0
2252,40097,0
2234,40071,0
2144,40089,0
2133,40081,0
2122,40072,0
2112,40098,0
2192,40073,0
2218,40080,0
2104,40100,0
2114,40083,0
2128,40098,0
2144,40113,0
2160,40081,0
2176,40110,0
2208,40092,0
2181,40102,0
2184,40128,0
2180,40103,0
2160,40130,0
2178,40107,0
2160,40113,0
2168,40124,0
2120,40114,0
2140,40121,0
2104,40154,0
2132,40130,0
2097,40153,0
2112,40142,0
2108,40144,0
2224,40160,0
2229,40125,0
2252,40147,0
2260,40172,0
2266,40161,0
2216,40176,0
2210,40174,0
2202,40162,0
2208,40181,0
2288,40153,0
2280,40166,0
2160,40176,0
2144,40175,0
2130,40179,0
2112,40183,0
2108,40181,0
2108,40205,0
2100,40191,0
2106,40188,0
2116,40216,0
2108,40200,0
2116,40215,0
2149,40207,0
2146,40197,0
2192,40205,0
2170,40177,0
2194,40180,0
2168,40229,0
2200,40197,0
2162,40208,0
2172,40198,0
2156,40191,0
2256,40217,0
2228,40175,0
2213,40189,0
2208,40205,0
2196,40187,0
2138,40188,0
2140,40210,0
2151,40195,0
2150,40205,0
2240,40186,0
2248,40194,0
2156,40185,0
2172,40188,0
2188,40176,0
2184,40194,0
2184,40193,0
2180,40197,0
2172,40194,0
2164,40173,0
2144,40197,0
2132,40162,0
2144,40165,0
2105,40200,0
2088,40185,0
2128,40173,0
2084,40195,0
2114,40174,0
2092,40192,0
2144,40153,0
2114,40165,0
2136,40201,0
2160,40168,0
2288,40200,0
2298,40186,0
2304,40167,0
2304,40199,0
2304,40156,0
2218,40176,0
2222,40182,0
2210,40174,0
2193,40171,0
2256,40186,0
2244,40176,0
2120,40187,0
2114,40174,0
2104,40193,0
2104,40183,0
2106,40161,0
2108,40186,0
2112,40149,0
2132,40162,0
2146,40188,0
2154,40165,0
2148,40171,0
2180,40186,0
2160,40166,0
2192,40197,0
2152,40143,0
2176,40156,0
2138,40190,0
2152,40157,0
2112,40163,0
2104,40198,0
2100,40177,0
2192,40196,0
2208,40161,0
2216,40161,0
2226,40181,0
2240,40162,0
2168,40172,0
2181,40207,0
2192,40176,0
2196,40205,0
2296,40186,0
2296,40191,0
2184,40193,0
2174,40179,0
2168,40180,0
2152,40187,0
2152,40192,0
2132,40200,0
2108,40174,0
2096,40195,0
2084,40217,0
2084,40193,0
2096,40206,0
2113,40205,0
2096,40186,0
2168,40214,0
2108,40186,0
2176,40188,0
2144,40222,0
2192,40201,0
2174,40206,0
2184,40224,0
2164,40204,0
2272,40222,0
2272,40190,0
2258,40212,0
2245,40225,0
2228,40209,0
2136,40209,0
2116,40227,0
2106,40219,0
2093,40232,0
2184,40196,0
2192,40213,0
2104,40247,0
2090,40214,0
2116,40214,0
2129,40224,0
2144,40205,0
2162,40235,0
2176,40213,0
2148,40221,0
2178,40244,0
2178,40215,0
2164,40229,0
2182,40192,0
2150,40208,0
2170,40231,0
2116,40214,0
2148,40208,0
2120,40236,0
2156,40209,0
2128,40234,0
2144,40198,0
2144,40200,0
2252,40221,0
2268,40205,0
2281,40216,0
2296,40227,0
2312,40198,0
2232,40220,0
2230,40175,0
2224,40184,0
2200,40219,0
2288,40195,0
2160,40197,0
2112,40198,0
2128,40201,0
2106,40198,0
2112,40189,0
2098,40217,0
2104,40191,0
2106,40210,0
2112,40196,0
2120,40187,0
2132,40204,0
2160,40172,0
2170,40184,0
2220,40210,0
2188,40193,0
2256,40197,0
2202,40208,0
2236,40189,0
2192,40214,0
2192,40189,0
2274,40197,0
2260,40199,0
2240,40181,0
2220,40191,0
2216,40211,0
2210,40199,0
2138,40204,0
2137,40208,0
2144,40200,0
2145,40214,0
2241,40180,0
2241,40190,0
2172,40197,0
2180,40203,0
2192,40203,0
2192,40201,0
2188,40209,0
2181,40228,0
2188,40215,0
2180,40222,0
2156,40190,0
2140,40209,0
2116,40228,0
2118,40206,0
2092,40235,0
2120,40218,0
2088,40215,0
2120,40226,0
2100,40203,0
2148,40221,0
2132,40250,0
2156,40226,0
2174,40231,0
2304,40231,0
2312,40228,0
2322,40245,0
2320,40203,0
2304,40223,0
2240,40241,0
2209,40230,0
2194,40216,0
2176,40247,0
2233,40231,0
2228,40253,0
2116,40241,0
2120,40275,0
2130,40228,0
2148,40245,0
2152,40237,0
2164,40229,0
2176,40253,0
2202,40228,0
2208,40239,0
2224,40266,0
2228,40241,0
2238,40262,0
2218,40244,0
2256,40238,0
2204,40266,0
2236,40246,0
2172,40241,0
2200,40281,0
2144,40247,0
2144,40262,0
2128,40243,0
2224,40247,0
2234,40271,0
2233,40242,0
2240,40257,0
2252,40275,0
2188,40256,0
2194,40278,0
2218,40256,0
2228,40257,0
2320,40273,0
2314,40255,0
2202,40249,0
2192,40283,0
2196,40285,0
2184,40270,0
2168,40278,0
2152,40296,0
2136,40254,0
2116,40271,0
2108,40286,0
2104,40269,0
2108,40282,0
2124,40305,0
2100,40289,0
2160,40297,0
2132,40278,0
2184,40278,0
2164,40298,0
2208,40277,0
2180,40277,0
2186,40308,0
2176,40282,0
2276,40308,0
2278,40301,0
2264,40293,0
2248,40309,0
2232,40279,0
2144,40293,0
2120,40316,0
2128,40302,0
2134,40299,0
2192,40322,0
2200,40295,0
2108,40302,0
2112,40300,0
2120,40310,0
2124,40322,0
2152,40295,0
2170,40295,0
2172,40310,0
2176,40291,0
2168,40295,0
2160,40317,0
2160,40292,0
2164,40321,0
2138,40282,0
2164,40282,0
2116,40307,0
2136,40289,0
2112,40293,0
2128,40306,0
2112,40284,0
2116,40320,0
2136,40272,0
2240,40274,0
2250,40310,0
2264,40286,0
2289,40294,0
2296,40295,0
2228,40281,0
2216,40291,0
2216,40257,0
2204,40265,0
2280,40291,0
2260,40271,0
2140,40271,0
2108,40264,0
2096,40275,0
2073,40275,0
2060,40291,0
2064,40274,0
2064,40257,0
2074,40258,0
2088,40276,0
2096,40263,0
2116,40271,0
2151,40270,0
2162,40247,0
2216,40269,0
2186,40238,0
2218,40245,0
2184,40266,0
2224,40249,0
2168,40257,0
2176,40257,0
2164,40248,0
2228,40266,0
2224,40226,0
2220,40244,0
2214,40266,0
2208,40259,0
2132,40252,0
2140,40254,0
2153,40256,0
2144,40276,0
2232,40234,0
2242,40253,0
2144,40270,0
2140,40252,0
2130,40261,0
2120,40268,0
2104,40268,0
2110,40272,0
2076,40244,0
2064,40257,0
2040,40281,0
2028,40259,0
2020,40265,0
2018,40281,0
2004,40261,0
2056,40285,0
2032,40251,0
2084,40255,0
2064,40283,0
2120,40272,0
2116,40290,0
2168,40274,0
2192,40262,0
2324,40293,0
2360,40266,0
2392,40278,0
2432,40301,0
2476,40269,0
2448,40291,0
2504,40296,0
2561,40286,0
2626,40311,0
2800,40271,0
2881,40290,0
2818,40306,0
2904,40309,0
3004,40296,0
3082,40309,0
3176,40300,0
3256,40285,0
3344,40299,0
3420,40332,0
3488,40316,0
3524,40340,0
3540,40320,0
3552,40316,0
3472,40341,0
3480,40312,0
3344,40327,0
3276,40349,0
3100,40337,0
3040,40355,0
2880,40347,0
2786,40332,0
2684,40358,0
2736,40337,0
2656,40337,0
2580,40376,0
2496,40348,0
2440,40363,0
2312,40381,0
2272,40356,0
2246,40386,0
2218,40341,0
2280,40373,0
2250,40389,0
2136,40364,0
2106,40368,0
2088,40392,0
2056,40393,0
2028,40376,0
2000,40397,0
1908,40394,0
1940,40400,0
1936,40390,0
1912,40386,0
1908,40409,0
1895,40365,0
1888,40400,0
1913,40411,0
1888,40405,0
1920,40404,0
1896,40416,0
1936,40397,0
1900,40418,0
1912,40387,0
1892,40405,0
1972,40430,0
1968,40414,0
1960,40420,0
1968,40434,0
1944,40419,0
1840,40444,0
1832,40397,0
1828,40404,0
1828,40441,0
1904,40417,0
1860,40477,0
1855,40425,0
1874,40419,0
1896,40429,0
1904,40429,0
1922,40453,0
1928,40445,0
1917,40461,0
1924,40424,0
1912,40441,0
1896,40462,0
1904,40447,0
1888,40456,0
1896,40480,0
1860,40457,0
1888,40478,0
1860,40442,0
1892,40455,0
1878,40478,0
1896,40449,0
1976,40447,0
1997,40483,0
2018,40463,0
2040,40477,0
2050,40467,0
2069,40456,0
2034,40485,0
1992,40454,0
1994,40465,0
1974,40496,0
2040,40474,0
2022,40477,0
1924,40477,0
1904,40488,0
1892,40494,0
1873,40499,0
1896,40487,0
1904,40502,0
1938,40467,0
1919,40496,0
1944,40506,0
1956,40481,0
1964,40500,0
2020,40513,0
2012,40492,0
2040,40525,0
2008,40489,0
2029,40503,0
1998,40513,0
2016,40501,0
1972,40503,0
1968,40534,0
1952,40506,0
2020,40524,0
2004,40508,0
2008,40514,0
2019,40535,0
2016,40509,0
1964,40511,0
1992,40539,0
1986,40527,0
2020,40542,0
2090,40518,0
2104,40516,0
2036,40526,0
2047,40529,0
2032,40518,0
2024,40524,0
2032,40523,0
2026,40541,0
2008,40516,0
2018,40529,0
1988,40558,0
1973,40531,0
1960,40551,0
1981,40516,0
1950,40531,0
2000,40552,0
1972,40531,0
2008,40528,0
1988,40545,0
2028,40532,0
2012,40548,0
2064,40505,0
2036,40533,0
2144,40549,0
2136,40527,0
2132,40523,0
2132,40548,0
2128,40526,0
2052,40558,0
2040,40519,0
2017,40520,0
2010,40540,0
2080,40526,0
2080,40527,0
1980,40509,0
1992,40550,0
2000,40533,0
2008,40520,0
2008,40533,0
2014,40512,0
2032,40522,0
2056,40534,0
2064,40512,0
2080,40519,0
2076,40542,0
2089,40515,0
2080,40532,0
2112,40513,0
2064,40519,0
2096,40526,0
2034,40510,0
2047,40513,0
2012,40534,0
2012,40508,0
2012,40522,0
2104,40515,0
2105,40494,0
2112,40521,0
2116,40492,0
2132,40498,0
2096,40514,0
2106,40491,0
1508,40514,0
2120,40518,0
2200,40493,0
2204,40505,0
2100,40492,0
2092,40478,0
2088,40484,0
2082,40485,0
2072,40472,0
2047,40497,0
2044,40478,0
2036,40487,0
2046,40479,0
2047,40482,0
2058,40498,0
2082,40453,0
2076,40478,0
2124,40494,0
2096,40466,0
2136,40481,0
2124,40480,0
2168,40459,0
2136,40472,0
2140,40445,0
2176,40448,0
2220,40476,0
2217,40457,0
2210,40478,0
2194,40450,0
2184,40454,0
2105,40474,0
2090,40430,0
2089,40450,0
2104,40464,0
2188,40448,0
2192,40455,0
2096,40441,0
2116,40414,0
2136,40447,0
2154,40449,0
2160,40441,0
2168,40434,0
2160,40448,0
2164,40431,0
2152,40432,0
2138,40450,0
2124,40420,0
2121,40423,0
2096,40450,0
2122,40423,0
2088,40436,0
2096,40410,0
2064,40413,0
2112,40428,0
2088,40407,0
2106,40417,0
2104,40433,0
2234,40412,0
2234,40433,0
2244,40398,0
2256,40402,0
2260,40417,0
2200,40390,0
2178,40393,0
2200,40423,0
2173,40400,0
2228,40433,0
2240,40401,0
2100,40395,0
2100,40388,0
2080,40367,0
2080,40386,0
2080,40377,0
2076,40372,0
2084,40384,0
2076,40397,0
2081,40376,0
2106,40381,0
2120,40395,0
2152,40369,0
2152,40397,0
2204,40349,0
2172,40373,0
2208,40386,0
2170,40373,0
2148,40373,0
2164,40387,0
2152,40363,0
2124,40385,0
2200,40347,0
2188,40364,0
2180,40371,0
2176,40363,0
2169,40366,0
2096,40373,0
2112,40361,0
2120,40384,0
2126,40337,0
2224,40345,0
2242,40374,0
2146,40358,0
2156,40367,0
2144,40373,0
2148,40371,0
2140,40359,0
2136,40336,0
2120,40344,0
2108,40369,0
2092,40343,0
2074,40363,0
2068,40330,0
2075,40343,0
2064,40359,0
2097,40346,0
2080,40328,0
2120,40354,0
2096,40338,0
2136,40370,0
2132,40327,0
2148,40331,0
2156,40359,0
2304,40350,0
2272,40373,0
2266,40341,0
2260,40330,0
2248,40361,0
2173,40337,0
2144,40337,0
2120,40364,0
2107,40345,0
2168,40362,0
2168,40350,0
2072,40344,0
2078,40348,0
2084,40337,0
2088,40346,0
2104,40367,0
2132,40339,0
2152,40348,0
2169,40366,0
2180,40336,0
2188,40372,0
2192,40327,0
2196,40337,0
2180,40358,0
2208,40338,0
2160,40340,0
2180,40354,0
2120,40328,0
2136,40356,0
2076,40326,0
2088,40336,0
2064,40356,0
2164,40325,0
2168,40326,0
2176,40338,0
2188,40326,0
2200,40348,0
2144,40314,0
2166,40316,0
2196,40338,0
2189,40311,0
2288,40314,0
2176,40299,0
2168,40331,0
2164,40335,0
2152,40327,0
2136,40325,0
2126,40308,0
2108,40333,0
2113,40308,0
2072,40324,0
2109,40293,0
2120,40303,0
2127,40320,0
2120,40291,0
2172,40305,0
2144,40322,0
2200,40295,0
2164,40317,0
2216,40288,0
2172,40291,0
2172,40311,0
2264,40291,0
2280,40300,0
2256,40312,0
2241,40289,0
2208,40318,0
2198,40276,0
2128,40292,0
2120,40307,0
2128,40290,0
2134,40301,0
2232,40310,0
2240,40294,0
2136,40314,0
2153,40313,0
2172,40311,0
2188,40324,0
2192,40276,0
2198,40315,0
2220,40280,0
2188,40292,0
2180,40317,0
2172,40288,0
2160,40291,0
2152,40315,0
2132,40297,0
2152,40323,0
2104,40281,0
2148,40288,0
2096,40319,0
2144,40296,0
2104,40300,0
2116,40319,0
2120,40305,0
2240,40321,0
2249,40297,0
2268,40308,0
2282,40324,0
2288,40309,0
2198,40317,0
2192,40338,0
2185,40318,0
2184,40344,0
2256,40298,0
2241,40306,0
2100,40314,0
2086,40328,0
2084,40320,0
2081,40336,0
2076,40327,0
2090,40326,0
2096,40342,0
2084,40336,0
2100,40345,0
2116,40348,0
2132,40330,0
2151,40363,0
2168,40319,0
2216,40344,0
2180,40361,0
2224,40341,0
2184,40355,0
2240,40368,0
2172,40354,0
2184,40374,0
2140,40335,0
2256,40346,0
2228,40376,0
2232,40351,0
2213,40374,0
2224,40373,0
2144,40361,0
2138,40382,0
2182,40342,0
2157,40355,0
2272,40388,0
2280,40375,0
2172,40375,0
2178,40376,0
2176,40384,0
2168,40388,0
2168,40379,0
2157,40374,0
2144,40402,0
2128,40381,0
2112,40390,0
2120,40415,0
2100,40392,0
2109,40406,0
2096,40386,0
2148,40402,0
2108,40414,0
2160,40392,0
2120,40405,0
2216,40422,0
2152,40397,0
2176,40428,0
2160,40406,0
2280,40406,0
2280,40433,0
2260,40398,0
2244,40410,0
2224,40436,0
2136,40427,0
2108,40447,0
2104,40418,0
2102,40413,0
2184,40444,0
2192,40418,0
2088,40451,0
2102,40462,0
2122,40446,0
2132,40461,0
2152,40448,0
2170,40430,0
2192,40431,0
2200,40465,0
2204,40438,0
2220,40468,0
2220,40455,0
2208,40462,0
2180,40478,0
2218,40455,0
2156,40458,0
2180,40486,0
2116,40470,0
2148,40480,0
2096,40459,0
2104,40467,0
2092,40498,0
2224,40476,0
2232,40476,0
2242,40496,0
2258,40481,0
2276,40497,0
2216,40479,0
2217,40486,0
2228,40505,0
2230,40487,0
2320,40488,0
2304,40517,0
2170,40505,0
2152,40498,0
2132,40518,0
2104,40527,0
2088,40504,0
2074,40507,0
2064,40496,0
2056,40511,0
2053,40477,0
2056,40489,0
2064,40520,0
2096,40507,0
2082,40521,0
2140,40507,0
2116,40497,0
2180,40514,0
2144,40480,0
2180,40502,0
2140,40523,0
2144,40492,0
2140,40509,0
2256,40493,0
2249,40488,0
2224,40515,0
2216,40487,0
2202,40492,0
2112,40518,0
2104,40487,0
2128,40514,0
2116,40502,0
2209,40492,0
2212,40513,0
2104,40496,0
2116,40495,0
2136,40491,0
2156,40482,0
2160,40489,0
2164,40466,0
2160,40489,0
2149,40497,0
2136,40485,0
2132,40490,0
2114,40505,0
2098,40477,0
2092,40508,0
2104,40457,0
2060,40483,0
2108,40498,0
2068,40476,0
2128,40497,0
2084,40501,0
2108,40480,0
2112,40504,0
2260,40477,0
2272,40476,0
2298,40500,0
2296,40472,0
2298,40501,0
2208,40455,0
2176,40478,0
2184,40505,0
2166,40480,0
2244,40479,0
2216,40499,0
2068,40465,0
2045,40472,0
2036,40464,0
2028,40488,0
2032,40471,0
2032,40475,0
2036,40497,0
2044,40492,0
2056,40474,0
2068,40490,0
2080,40469,0
2117,40493,0
2114,40468,0
2152,40476,0
2116,40495,0
2160,40476,0
2108,40506,0
2152,40462,0
2096,40477,0
2088,40501,0
2064,40502,0
2168,40480,0
2160,40499,0
2160,40487,0
2153,40504,0
2168,40472,0
2080,40489,0
2092,40508,0
2076,40487,0
2094,40492,0
2184,40522,0
2202,40486,0
2092,40508,0
2080,40506,0
2068,40512,0
2064,40511,0
2064,40497,0
2052,40523,0
2036,40482,0
2020,40496,0
2004,40522,0
1996,40505,0
1992,40502,0
2007,40516,0
2000,40516,0
2044,40521,0
2016,40489,0
2058,40501,0
2040,40525,0
2096,40506,0
2080,40511,0
2104,40527,0
2104,40507,0
2240,40532,0
2228,40486,0
2232,40503,0
2224,40526,0
2220,40506,0
2122,40522,0
2112,40530,0
2096,40513,0
2076,40525,0
2136,40497,0
2040,40559,0
2008,40508,0
2018,40518,0
2012,40518,0
2032,40530,0
2047,40537,0
2060,40495,0
2026,40511,0
2072,40536,0
2068,40530,0
2064,40534,0
2074,40551,0
2047,40525,0
2088,40548,0
2032,40508,0
2064,40534,0
2032,40555,0
2058,40525,0
1994,40556,0
2016,40523,0
2100,40528,0
2114,40557,0
2124,40540,0
2112,40540,0
2128,40562,0
2144,40543,0
2096,40564,0
2096,40533,0
2108,40551,0
2097,40566,0
2168,40547,0
2156,40544,0
2028,40628,0
1988,40560,0
1992,40576,0
1980,40575,0
1992,40576,0
1956,40579,0
1940,40578,0
1952,40566,0
1946,40602,0
1960,40578,0
1952,40605,0
1982,40589,0
1980,40576,0
2040,40605,0
2016,40581,0
2064,40591,0
2032,40625,0
2080,40596,0
2034,40606,0
2032,40616,0
2016,40605,0
2112,40634,0
2100,40591,0
2068,40605,0
2057,40628,0
2036,40621,0
1960,40624,0
1964,40638,0
1960,40624,0
1965,40639,0
2048,40605,0
2064,40635,0
1992,40628,0
2020,40637,0
2008,40621,0
2040,40633,0
2036,40649,0
2042,40636,0
2042,40656,0
2030,40622,0
2016,40634,0
2009,40657,0
1996,40643,0
1988,40661,0
1952,40648,0
1978,40648,0
1932,40667,0
1961,40629,0
1932,40649,0
1964,40676,0
1948,40654,0
1952,40666,0
1972,40649,0
2088,40647,0
2102,40674,0
2116,40636,0
2124,40638,0
2124,40664,0
2046,40635,0
2040,40662,0
2034,40628,0
2016,40650,0
2080,40676,0
2061,40637,0
1952,40637,0
1946,40640,0
1944,40628,0
1936,40636,0
1932,40636,0
1948,40606,0
1952,40629,0
1948,40646,0
1954,40630,0
1982,40647,0
1992,40627,0
1998,40618,0
1992,40632,0
2016,40605,0
1972,40609,0
1988,40635,0
1938,40613,0
1952,40628,0
1896,40597,0
1884,40605,0
1844,40622,0
1906,40587,0
1896,40592,0
1888,40617,0
1892,40595,0
1892,40612,0
1845,40581,0
1858,40588,0
1884,40595,0
1904,40597,0
2016,40596,0
2034,40603,0
1972,40608,0
1989,40599,0
2016,40586,0
2044,40579,0
2060,40571,0
2096,40593,0
2092,40579,0
2134,40604,0
2160,40566,0
2200,40562,0
2256,40588,0
2340,40563,0
2404,40564,0
2528,40587,0
2576,40561,0
2704,40592,0
2760,40554,0
2906,40549,0
2944,40575,0
3042,40551,0
3104,40563,0
3336,40574,0
3376,40555,0
3424,40575,0
3444,40559,0
3432,40546,0
3280,40577,0
3220,40548,0
3162,40553,0
3088,40575,0
3136,40556,0
3048,40576,0
2820,40562,0
2744,40571,0
2672,40570,0
2600,40543,0
2536,40557,0
2506,40550,0
2400,40572,0
2336,40551,0
2268,40571,0
2200,40556,0
2138,40549,0
2096,40570,0
2040,40548,0
2034,40545,0
1972,40564,0
1972,40549,0
1924,40574,0
1938,40551,0
1912,40542,0
1912,40574,0
1908,40545,0
1992,40548,0
1978,40571,0
1977,40549,0
2016,40582,0
1976,40538,0
1926,40550,0
1915,40584,0
1868,40553,0
1900,40557,0
1920,40579,0
1892,40565,0
1786,40549,0
1760,40578,0
1736,40599,0
1724,40572,0
1680,40561,0
1662,40577,0
1657,40563,0
1666,40591,0
1684,40571,0
1682,40609,0
1696,40553,0
1727,40565,0
1744,40582,0
1780,40579,0
1776,40582,0
1810,40599,0
1784,40582,0
1812,40615,0
1777,40576,0
1772,40589,0
1754,40599,0
1800,40599,0
1778,40603,0
1760,40619,0
1754,40604,0
1737,40621,0
1680,40589,0
1702,40591,0
1705,40626,0
1722,40606,0
1788,40616,0
1804,40628,0
1753,40611,0
1781,40630,0
1802,40618,0
1812,40615,0
1808,40610,0
1812,40624,0
1812,40623,0
1802,40635,0
1804,40608,0
1776,40608,0
1760,40623,0
1760,40605,0
1728,40614,0
1740,40624,0
1720,40618,0
1738,40631,0
1720,40602,0
1752,40599,0
1740,40622,0
1756,40594,0
1764,40597,0
1858,40625,0
1866,40608,0
1888,40623,0
1888,40589,0
1896,40602,0
1818,40600,0
1817,40592,0
1814,40591,0
1804,40612,0
1864,40593,0
1852,40609,0
1776,40593,0
1762,40586,0
1776,40583,0
1764,40584,0
1776,40585,0
1781,40610,0
1790,40585,0
1802,40604,0
1816,40577,0
1825,40594,0
1848,40601,0
1850,40570,0
1872,40580,0
1873,40615,0
1844,40581,0
1872,40588,0
1840,40592,0
1850,40582,0
1816,40603,0
1808,40573,0
1800,40572,0
1880,40602,0
1877,40582,0
1881,40596,0
1888,40601,0
1898,40586,0
1848,40594,0
1853,40567,0
1882,40572,0
1886,40611,0
1968,40584,0
1904,40616,0
1896,40587,0
1888,40577,0
1884,40584,0
1880,40592,0
1873,40603,0
1826,40587,0
1840,40588,0
1832,40607,0
1832,40594,0
1824,40622,0
1851,40578,0
1844,40591,0
1880,40616,0
1864,40604,0
1905,40598,0
1892,40619,0
1944,40601,0
1928,40616,0
1936,40579,0
2020,40605,0
2020,40625,0
2008,40602,0
1998,40629,0
1996,40601,0
1985,40591,0
1918,40621,0
1940,40608,0
1909,40613,0
1912,40640,0
1972,40606,0
1984,40636,0
1912,40616,0
1916,40605,0
1928,40630,0
1932,40639,0
1952,40628,0
1960,40644,0
1984,40622,0
1980,40622,0
1988,40639,0
1992,40618,0
1980,40641,0
1990,40599,0
1974,40616,0
2020,40635,0
1940,40618,0
1960,40614,0
1919,40640,0
1944,40619,0
1920,40638,0
1928,40603,0
1930,40618,0
2020,40632,0
2026,40619,0
2032,40618,0
2052,40631,0
2072,40609,0
2020,40623,0
2032,40597,0
2033,40598,0
2052,40622,0
2096,40595,0
2096,40603,0
1996,40603,0
1986,40590,0
1968,40593,0
1888,40595,0
1928,40584,0
1919,40615,0
1918,40583,0
1928,40589,0
1928,40608,0
1936,40575,0
1944,40584,0
1986,40606,0
1992,40579,0
2056,40589,0
2032,40563,0
2073,40565,0
2047,40593,0
2084,40565,0
2046,40561,0
2052,40584,0
2040,40565,0
2120,40578,0
2102,40544,0
2092,40544,0
2080,40563,0
2074,40540,0
2000,40545,0
2008,40562,0
2010,40536,0
2016,40561,0
2096,40548,0
2120,40526,0
2034,40561,0
2047,40540,0
2058,40540,0
2068,40549,0
2060,40560,0
2062,40551,0
2047,40512,0
2042,40524,0
2040,40547,0
2016,40525,0
2004,40512,0
1991,40522,0
1976,40503,0
2012,40535,0
1976,40494,0
2032,40495,0
1996,40520,0
2036,40492,0
2024,40504,0
2047,40517,0
2056,40510,0
2168,40508,0
2176,40490,0
2180,40497,0
2176,40507,0
2176,40487,0
2084,40480,0
2084,40507,0
2068,40478,0
2056,40508,0
2112,40493,0
2084,40481,0
2096,40496,0
1970,40481,0
1980,40473,0
1984,40487,0
1992,40477,0
2000,40464,0
2000,40482,0
2012,40465,0
2040,40484,0
2058,40435,0
2068,40451,0
2086,40469,0
2066,40436,0
2112,40436,0
2072,40458,0
2096,40445,0
2040,40454,0
2046,40419,0
2004,40428,0
2000,40435,0
1984,40421,0
2057,40429,0
2066,40445,0
2072,40416,0
2084,40438,0
2096,40407,0
2042,40399,0
2056,40430,0
2080,40401,0
2101,40400,0
2200,40426,0
2208,40396,0
2112,40405,0
2104,40399,0
2088,40395,0
2092,40377,0
2084,40383,0
2052,40380,0
2036,40411,0
2018,40365,0
1996,40374,0
1988,40396,0
1976,40378,0
1983,40391,0
1980,40376,0
2024,40374,0
1992,40395,0
2044,40363,0
2026,40371,0
2076,40396,0
2052,40370,0
2080,40397,0
2096,40355,0
2176,40361,0
2176,40389,0
2176,40363,0
2162,40352,0
2154,40379,0
2097,40374,0
2045,40380,0
2036,40349,0
2022,40356,0
2088,40375,0
2092,40351,0
2006,40371,0
1994,40360,0
1996,40358,0
2009,40363,0
2032,40345,0
2080,40348,0
2096,40353,0
2076,40370,0
2084,40362,0
2077,40368,0
2080,40380,0
2085,40359,0
2076,40390,0
2088,40340,0
2045,40356,0
2052,40380,0
2008,40364,0
2040,40357,0
2020,40380,0
2036,40356,0
2016,40379,0
2112,40349,0
2152,40363,0
2124,40387,0
2153,40358,0
2162,40372,0
2128,40391,0
2112,40373,0
2112,40399,0
2122,40365,0
2216,40370,0
2176,40392,0
2088,40408,0
2056,40402,0
2032,40402,0
2012,40404,0
2008,40388,0
1994,40367,0
1981,40387,0
2004,40412,0
2002,40384,0
2024,40386,0
2047,40406,0
2080,40402,0
2100,40413,0
2152,40375,0
2128,40392,0
2180,40422,0
2152,40407,0
2148,40426,0
2128,40398,0
2122,40406,0
2108,40424,0
2188,40396,0
2176,40417,0
2152,40442,0
2178,40419,0
2160,40435,0
2092,40426,0
2076,40424,0
2048,40439,0
2088,40423,0
2168,40436,0
2180,40456,0
2104,40441,0
2122,40444,0
2124,40454,0
2150,40460,0
2116,40462,0
2120,40467,0
2092,40456,0
2102,40474,0
2074,40439,0
2056,40451,0
2034,40482,0
2037,40474,0
2006,40482,0
2040,40479,0
2024,40472,0
2064,40489,0
2046,40470,0
2081,40485,0
2072,40507,0
2096,40485,0
2120,40517,0
2232,40485,0
2244,40489,0
2244,40508,0
2258,40485,0
2250,40492,0
2156,40526,0
2154,40500,0
2138,40530,0
2118,40483,0
2168,40495,0
2036,40546,0
2042,40532,0
2036,40526,0
2042,40517,0
2042,40521,0
2060,40510,0
2060,40533,0
2089,40521,0
2106,40517,0
2120,40518,0
2136,40513,0
2150,40546,0
2140,40501,0
2168,40527,0
2232,40545,0
2152,40525,0
2100,40558,0
2116,40538,0
2068,40521,0
2064,40548,0
2136,40531,0
2133,40528,0
2133,40557,0
2140,40531,0
2149,40550,0
2164,40527,0
2098,40535,0
2114,40552,0
2140,40532,0
2152,40540,0
2224,40565,0
2216,40549,0
2116,40595,0
2108,40570,0
2096,40527,0
2100,40556,0
2080,40554,0
2068,40569,0
2056,40558,0
2052,40578,0
2002,40559,0
2084,40563,0
2080,40579,0
2101,40566,0
2104,40555,0
2156,40589,0
2128,40567,0
2180,40584,0
2160,40548,0
2220,40564,0
2180,40591,0
2188,40563,0
2172,40553,0
2272,40596,0
2245,40572,0
2228,40587,0
2209,40554,0
2188,40569,0
2080,40597,0
2056,40577,0
2040,40584,0
2038,40582,0
2096,40578,0
2098,40597,0
2016,40595,0
2032,40587,0
2057,40609,0
2088,40581,0
2116,40552,0
2144,40585,0
2160,40606,0
2192,40581,0
2178,40588,0
2186,40599,0
2185,40576,0
2192,40589,0
2164,40600,0
2184,40579,0
2120,40602,0
2144,40573,0
2084,40573,0
2108,40596,0
2088,40587,0
2084,40590,0
2084,40593,0
2180,40581,0
2192,40601,0
2204,40559,0
2228,40574,0
2234,40606,0
2178,40585,0
2194,40597,0
2170,40578,0
2168,40573,0
2240,40589,0
2240,40576,0
2124,40573,0
2104,40577,0
2088,40566,0
2080,40569,0
2072,40575,0
2188,40571,0
2068,40586,0
2080,40556,0
2080,40567,0
2082,40576,0
2100,40561,0
2111,40576,0
2128,40553,0
2170,40554,0
2138,40580,0
2180,40560,0
2136,40578,0
2172,40550,0
2128,40547,0
2132,40563,0
2116,40550,0
2200,40539,0
2218,40566,0
2180,40545,0
2176,40573,0
2176,40531,0
2116,40543,0
2104,40555,0
2136,40541,0
2108,40530,0
2212,40561,0
2229,40555,0
2148,40557,0
2154,40552,0
2162,40527,0
2168,40579,0
2160,40535,0
2152,40545,0
2148,40561,0
2144,40544,0
2124,40558,0
2112,40528,0
2088,40535,0
2100,40564,0
2076,40554,0
2120,40557,0
2088,40545,0
2128,40537,0
2130,40563,0
2148,40526,0
2120,40532,0
2144,40557,0
2144,40542,0
2260,40560,0
2258,40526,0
2264,40548,0
2256,40564,0
2248,40536,0
2174,40549,0
2166,40554,0
2148,40544,0
2144,40571,0
2192,40540,0
2176,40553,0
2080,40567,0
2080,40577,0
2076,40576,0
2088,40551,0
2072,40565,0
2092,40568,0
2105,40552,0
2116,40549,0
2140,40569,0
2164,40526,0
2168,40548,0
2186,40574,0
2172,40557,0
2208,40561,0
2164,40549,0
2196,40541,0
2152,40565,0
2168,40535,0
2128,40542,0
2117,40555,0
2104,40538,0
2208,40557,0
2208,40559,0
2216,40541,0
2228,40563,0
2240,40530,0
2188,40542,0
2209,40553,0
2224,40548,0
2236,40560,0
2336,40543,0
2332,40552,0
2224,40559,0
2216,40563,0
2216,40575,0
2200,40549,0
2192,40548,0
2164,40549,0
2138,40566,0
2130,40530,0
2120,40543,0
2116,40567,0
2120,40539,0
2138,40568,0
2132,40560,0
2180,40550,0
2152,40577,0
2232,40546,0
2192,40558,0
2240,40563,0
2210,40558,0
2220,40570,0
2208,40566,0
2314,40561,0
2304,40571,0
2296,40552,0
2280,40560,0
2260,40582,0
2170,40562,0
2157,40572,0
2144,40572,0
2134,40571,0
2224,40576,0
2224,40553,0
2148,40571,0
2136,40573,0
2160,40570,0
2176,40578,0
2192,40585,0
2212,40575,0
2212,40561,0
2218,40602,0
2212,40577,0
2220,40610,0
2208,40565,0
2215,40585,0
2188,40602,0
2212,40586,0
2146,40598,0
2176,40610,0
2148,40601,0
2188,40617,0
2144,40581,0
2156,40602,0
2148,40626,0
2268,40597,0
2277,40631,0
2294,40595,0
2312,40606,0
2314,40635,0
2252,40618,0
2252,40614,0
2236,40636,0
2232,40625,0
2304,40637,0
2296,40601,0
2184,40614,0
2154,40612,0
2152,40624,0
2148,40628,0
2144,40645,0
2156,40633,0
2156,40640,0
2156,40656,0
2152,40639,0
2152,40660,0
2160,40634,0
2185,40645,0
2186,40669,0
2240,40645,0
2196,40672,0
2232,40640,0
2192,40648,0
2220,40670,0
2184,40656,0
2180,40661,0
2162,40680,0
2256,40662,0
2243,40684,0
2234,40646,0
2242,40663,0
2248,40685,0
2186,40660,0
2192,40665,0
2208,40698,0
2211,40670,0
2304,40692,0
2220,40720,0
2222,40701,0
2216,40693,0
2216,40695,0
2208,40687,0
2198,40685,0
2180,40710,0
2168,40691,0
2152,40718,0
2124,40675,0
2112,40691,0
2111,40722,0
2080,40688,0
2120,40702,0
2068,40721,0
2096,40698,0
2056,40721,0
2088,40688,0
2072,40703,0
2104,40717,0
2200,40709,0
2218,40715,0
2230,40708,0
2244,40706,0
2260,40723,0
2264,40704,0
2192,40698,0
2202,40734,0
2210,40704,0
2208,40728,0
2292,40679,0
2304,40704,0
2224,40706,0
2240,40726,0
2280,40725,0
2324,40736,0
2388,40727,0
2464,40708,0
2544,40725,0
2628,40688,0
2736,40702,0
2832,40720,0
2920,40705,0
3035,40727,0
3088,40699,0
3232,40695,0
3240,40721,0
3380,40678,0
3340,40703,0
3488,40720,0
3416,40694,0
3464,40723,0
3444,40698,0
3632,40694,0
3608,40719,0
3564,40693,0
3488,40703,0
3416,40729,0
3224,40700,0
3132,40719,0
3061,40690,0
2984,40694,0
3016,40721,0
2932,40700,0
2696,40706,0
2608,40709,0
2520,40726,0
2432,40733,0
2352,40723,0
2268,40695,0
2216,40703,0
2169,40722,0
2128,40691,0
2112,40710,0
2072,40735,0
2115,40703,0
2082,40735,0
2144,40704,0
2096,40713,0
2144,40733,0
2098,40708,0
2140,40726,0
2084,40742,0
2076,40717,0
2044,40741,0
2144,40704,0
2093,40711,0
2072,40740,0
2048,40716,0
2012,40732,0
1922,40723,0
1908,40709,0
1898,40738,0
1896,40713,0
1960,40713,0
1952,40753,0
1892,40719,0
1900,40713,0
1914,40743,0
1932,40731,0
1961,40712,0
1976,40745,0
1984,40721,0
1982,40746,0
1984,40712,0
2000,40734,0
1972,40756,0
1970,40723,0
1940,40747,0
1964,40713,0
1900,40732,0
1928,40752,0
1896,40740,0
1940,40729,0
1908,40768,0
1928,40740,0
1924,40767,0
2036,40721,0
2064,40735,0
2080,40758,0
2122,40737,0
2112,40740,0
2058,40759,0
2058,40746,0
2049,40772,0
2050,40739,0
2096,40747,0
2081,40769,0
1976,40772,0
1952,40761,0
1930,40788,0
1926,40741,0
1928,40777,0
1928,40780,0
1928,40748,0
1938,40760,0
1945,40785,0
1961,40770,0
2008,40776,0
2011,40783,0
2016,40769,0
2072,40786,0
2036,40759,0
2080,40765,0
2032,40778,0
2072,40770,0
2024,40774,0
2028,40788,0
2002,40785,0
2072,40798,0
2066,40769,0
2080,40780,0
2052,40803,0
2052,40793,0
2024,40787,0
2016,40809,0
2028,40783,0
2054,40800,0
2144,40774,0
2166,40788,0
2088,40787,0
2068,40794,0
2104,40790,0
2098,40794,0
2092,40797,0
2088,40822,0
2076,40790,0
2065,40800,0
2036,40823,0
2044,40807,0
2004,40824,0
2026,40815,0
2004,40814,0
2047,40826,0
2012,40803,0
2042,40807,0
2018,40838,0
2064,40815,0
2047,40847,0
2082,40799,0
2100,40813,0
2208,40840,0
2220,40811,0
2224,40815,0
2224,40843,0
2234,40834,0
2152,40848,0
2142,40824,0
2129,40822,0
2120,40842,0
2176,40832,0
2162,40836,0
2064,40846,0
2061,40834,0
2068,40853,0
2068,40832,0
2060,40833,0
2076,40829,0
2096,40835,0
2108,40847,0
2124,40834,0
2133,40861,0
2128,40825,0
2144,40838,0
2136,40862,0
2176,40845,0
2128,40848,0
2160,40874,0
2108,40839,0
2128,40878,0
2084,40831,0
2092,40845,0
2088,40871,0
2184,40854,0
2196,40865,0
2196,40873,0
2204,40842,0
2208,40872,0
2153,40846,0
2165,40853,0
2184,40883,0
2192,40871,0
2272,40858,0
2273,40885,0
2172,40878,0
2169,40859,0
2168,40850,0
2148,40884,0
2132,40883,0
2124,40869,0
2100,40875,0
2097,40858,0
2088,40854,0
2096,40893,0
2100,40861,0
2125,40884,0
2112,40862,0
2170,40857,0
2152,40874,0
2220,40862,0
2192,40854,0
2250,40892,0
2224,40869,0
2224,40887,0
2200,40842,0
2292,40857,0
2284,40875,0
2268,40848,0
2241,40863,0
2226,40860,0
2144,40841,0
2136,40868,0
2128,40819,0
2136,40830,0
2224,40857,0
2228,40836,0
2144,40843,0
2156,40823,0
2180,40832,0
2192,40838,0
2202,40797,0
2216,40811,0
2224,40834,0
2220,40814,0
2216,40829,0
2204,40818,0
2208,40801,0
2204,40819,0
2180,40790,0
2196,40788,0
2152,40802,0
2180,40784,0
2144,40807,0
2196,40759,0
2170,40764,0
2180,40791,0
2186,40762,0
2304,40771,0
2314,40771,0
2346,40756,0
2356,40777,0
2362,40730,0
2274,40743,0
2277,40757,0
2266,40742,0
2258,40745,0
2312,40740,0
2180,40645,0
2160,40722,0
2140,40719,0
2130,40716,0
2124,40716,0
2122,40726,0
2132,40706,0
2132,40704,0
2136,40728,0
2149,40697,0
2164,40736,0
2200,40690,0
2192,40684,0
2258,40707,0
2216,40690,0
2248,40699,0
2212,40710,0
2252,40677,0
2208,40706,0
2194,40648,0
2280,40673,0
2258,40697,0
2252,40664,0
2244,40661,0
2249,40680,0
2252,40665,0
2182,40681,0
2192,40632,0
2190,40648,0
2214,40671,0
2312,40658,0
2316,40667,0
2236,40616,0
2226,40646,0
2228,40642,0
2224,40665,0
2208,40626,0
2198,40650,0
2184,40637,0
2173,40633,0
2152,40651,0
2136,40633,0
2120,40641,0
2127,40658,0
2120,40629,0
2164,40655,0
2132,40615,0
2178,40630,0
2144,40649,0
2208,40620,0
2176,40637,0
2216,40636,0
2202,40624,0
2304,40646,0
2304,40613,0
2288,40619,0
2282,40647,0
2280,40614,0
2204,40635,0
2176,40648,0
2176,40622,0
2130,40648,0
2184,40608,0
2184,40620,0
2082,40616,0
2082,40614,0
2092,40631,0
2144,40625,0
2120,40638,0
2144,40619,0
2168,40659,0
2186,40619,0
2208,40645,0
2220,40615,0
2228,40621,0
2240,40636,0
2216,40622,0
2256,40634,0
2196,40645,0
2248,40632,0
2162,40650,0
2176,40627,0
2128,40629,0
2120,40644,0
2112,40632,0
2224,40637,0
2216,40658,0
2224,40634,0
2233,40650,0
2246,40611,0
2192,40625,0
2236,40652,0
2213,40638,0
2230,40652,0
2312,40641,0
2304,40628,0
2220,40628,0
2186,40618,0
2180,40634,0
2148,40635,0
2136,40637,0
2118,40611,0
2108,40631,0
2100,40643,0
2088,40629,0
2096,40638,0
2104,40614,0
2128,40623,0
2120,40638,0
2184,40630,0
2168,40626,0
2232,40644,0
2194,40636,0
2244,40644,0
2204,40607,0
2216,40617,0
2200,40645,0
2296,40625,0
2288,40641,0
2260,40632,0
2240,40625,0
2218,40639,0
2146,40626,0
2128,40624,0
2122,40647,0
2128,40639,0
2208,40653,0
2208,40639,0
2120,40656,0
2136,40650,0
2152,40637,0
2176,40635,0
2176,40629,0
2192,40636,0
2148,40643,0
2194,40670,0
2192,40629,0
2180,40652,0
2180,40620,0
2171,40631,0
2140,40658,0
2168,40643,0
2120,40644,0
2148,40649,0
2110,40632,0
2152,40671,0
2120,40637,0
2138,40640,0
2136,40669,0
2264,40648,0
2277,40671,0
2296,40631,0
2316,40637,0
2324,40668,0
2248,40654,0
2256,40657,0
2228,40663,0
2225,40652,0
2292,40677,0
2272,40640,0
2192,40668,0
2132,40664,0
2120,40660,0
2106,40681,0
2096,40678,0
2104,40692,0
2113,40666,0
2120,40684,0
2128,40665,0
2140,40668,0
2160,40688,0
2186,40667,0
2192,40680,0
2248,40684,0
2212,40663,0
2248,40684,0
2208,40656,0
2248,40657,0
2200,40689,0
2192,40670,0
2164,40677,0
2272,40685,0
2256,40678,0
2244,40680,0
2240,40672,0
2249,40673,0
2184,40696,0
2181,40679,0
2214,40700,0
2192,40665,0
2282,40671,0
2296,40693,0
2201,40668,0
2206,40666,0
2218,40681,0
2210,40688,0
2210,40678,0
2225,40680,0
2180,40675,0
2168,40673,0
2152,40692,0
2133,40670,0
2124,40703,0
2148,40647,0
2128,40663,0
2180,40688,0
2140,40674,0
2186,40675,0
2168,40674,0
2228,40659,0
2208,40694,0
2232,40662,0
2237,40670,0
2344,40691,0
2344,40667,0
2338,40703,0
2326,40646,0
2313,40663,0
2214,40683,0
2196,40657,0
2176,40688,0
2152,40653,0
2224,40664,0
2226,40684,0
2128,40692,0
2144,40668,0
2152,40658,0
2168,40660,0
2186,40659,0
2200,40684,0
2228,40638,0
2242,40661,0
2244,40683,0
2240,40658,0
2240,40667,0
2245,40668,0
2224,40653,0
2256,40672,0
2200,40657,0
2228,40651,0
2166,40676,0
2192,40652,0
2144,40674,0
2160,40667,0
2148,40652,0
2261,40678,0
2266,40638,0
2280,40643,0
2284,40668,0
2304,40655,0
2252,40663,0
2262,40649,0
2264,40648,0
2272,40669,0
2348,40650,0
2344,40653,0
2232,40674,0
2220,40674,0
2208,40657,0
2185,40674,0
2170,40663,0
2148,40659,0
2136,40668,0
2141,40652,0
2140,40669,0
2142,40638,0
2152,40641,0
2171,40667,0
2160,40655,0
2232,40670,0
2204,40671,0
2264,40657,0
2224,40671,0
2272,40643,0
2232,40666,0
2236,40682,0
2224,40662,0
2330,40679,0
2304,40639,0
2292,40656,0
2280,40669,0
2264,40661,0
2200,40651,0
2208,40678,0
2210,40668,0
2208,40690,0
2288,40642,0
2304,40654,0
2196,40679,0
2210,40671,0
2232,40684,0
2242,40681,0
2240,40656,0
2252,40669,0
2248,40690,0
2233,40667,0
2236,40683,0
2226,40666,0
2208,40662,0
2218,40683,0
2184,40670,0
2210,40680,0
2156,40684,0
2192,40671,0
2152,40697,0
2200,40680,0
2160,40667,0
2176,40693,0
2296,40675,0
2304,40702,0
2316,40675,0
2344,40677,0
2340,40699,0
2348,40685,0
2274,40703,0
2284,40674,0
2272,40673,0
2258,40714,0
2324,40698,0
2184,40745,0
2174,40704,0
2168,40697,0
2164,40683,0
2164,40700,0
2172,40721,0
2172,40686,0
2178,40690,0
2184,40719,0
2196,40701,0
2216,40722,0
2256,40725,0
2228,40708,0
2284,40723,0
2282,40690,0
2280,40718,0
2232,40737,0
2266,40715,0
2208,40744,0
2202,40708,0
2280,40728,0
2256,40739,0
2258,40721,0
2252,40740,0
2256,40723,0
2256,40724,0
2192,40742,0
2225,40714,0
2208,40724,0
2260,40750,0
2314,40731,0
2320,40753,0
2216,40745,0
2212,40727,0
2208,40749,0
2198,40762,0
2186,40740,0
2182,40756,0
2168,40728,0
2156,40737,0
2132,40766,0
2138,40750,0
2140,40762,0
2159,40747,0
2146,40740,0
2216,40759,0
2156,40756,0
2212,40750,0
2184,40771,0
2244,40740,0
2228,40772,0
2240,40744,0
2228,40743,0
2340,40768,0
2332,40758,0
2318,40783,0
2313,40749,0
2306,40763,0
2220,40777,0
2196,40763,0
2180,40776,0
2186,40781,0
2240,40767,0
2240,40788,0
2144,40775,0
2152,40772,0
2168,40746,0
2182,40791,0
2200,40786,0
2218,40793,0
2240,40775,0
2268,40803,0
2280,40755,0
2280,40767,0
2282,40798,0
2296,40789,0
2272,40797,0
2300,40777,0
2240,40787,0
2272,40801,0
2200,40772,0
2234,40790,0
2180,40820,0
2192,40800,0
2184,40805,0
2304,40784,0
2304,40787,0
2320,40813,0
2336,40793,0
2356,40796,0
2304,40813,0
2316,40799,0
2310,40820,0
2306,40782,0
2392,40799,0
2364,40833,0
2256,40809,0
2237,40811,0
2232,40804,0
2197,40808,0
2180,40813,0
2208,40835,0
2152,40819,0
2156,40834,0
2160,40826,0
2160,40818,0
2192,40835,0
2190,40818,0
2192,40812,0
2256,40852,0
2220,40831,0
2288,40854,0
2244,40813,0
2296,40827,0
2240,40853,0
2260,40835,0
2232,40835,0
2344,40845,0
2326,40843,0
2310,40864,0
2296,40831,0
2284,40832,0
2204,40857,0
2200,40839,0
2194,40864,0
2193,40819,0
2276,40826,0
2278,40857,0
2208,40858,0
2200,40861,0
2220,40847,0
2235,40834,0
2240,40870,0
2232,40838,0
2236,40836,0
2228,40866,0
2232,40839,0
2224,40853,0
2216,40830,0
2209,40830,0
2192,40861,0
2232,40830,0
2192,40855,0
2244,40838,0
2196,40830,0
2264,40853,0
2220,40831,0
2240,40823,0
2242,40858,0
2361,40828,0
2372,40852,0
2376,40808,0
2380,40811,0
2376,40847,0
1760,40814,0
2288,40833,0
2264,40849,0
2262,40831,0
2320,40848,0
2292,40795,0
2172,40822,0
2148,40829,0
2144,40824,0
2136,40803,0
2136,40809,0
2136,40810,0
2144,40831,0
2160,40807,0
2172,40802,0
2198,40830,0
2224,40811,0
2256,40808,0
2244,40818,0
2293,40803,0
2252,40828,0
2296,40794,0
2224,40799,0
2288,40820,0
2210,40802,0
2208,40828,0
2174,40807,0
2280,40795,0
2281,40821,0
2282,40797,0
2288,40796,0
2290,40814,0
2240,40797,0
2234,40814,0
2248,40789,0
2258,40791,0
2360,40822,0
2360,40796,0
2260,40793,0
2257,40813,0
2232,40812,0
2224,40797,0
2218,40816,0
2202,40784,0
2176,40822,0
2152,40786,0
2130,40793,0
2104,40819,0
2092,40806,0
2093,40820,0
2088,40792,0
2132,40794,0
2100,40812,0
2144,40798,0
2120,40802,0
2186,40812,0
2196,40791,0
2208,40818,0
2192,40790,0
2320,40799,0
2329,40812,0
2346,40794,0
2360,40825,0
2376,40809,0
2314,40795,0
2336,40827,0
2348,40801,0
2380,40816,0
2520,40830,0
2597,40801,0
2546,40812,0
2628,40825,0
2720,40812,0
2812,40818,0
2904,40807,0
3016,40826,0
3108,40784,0
3192,40805,0
3280,40814,0
3360,40805,0
3424,40824,0
3499,40815,0
3516,40795,0
3624,40818,0
3536,40801,0
3600,40815,0
3472,40823,0
3508,40808,0
3340,40827,0
3280,40791,0
3168,40797,0
3248,40819,0
3152,40802,0
3072,40796,0
2988,40829,0
2922,40806,0
2760,40824,0
2680,40782,0
2604,40800,0
2522,40824,0
2544,40793,0
2472,40802,0
2302,40815,0
2250,40823,0
2216,40792,0
2170,40795,0
2136,40795,0
2116,40821,0
2100,40786,0
2092,40794,0
2088,40817,0
2080,40797,0
2080,40805,0
2098,40795,0
2064,40801,0
2130,40816,0
2068,40784,0
2104,40791,0
2060,40810,0
2088,40792,0
2036,40816,0
2016,40788,0
1996,40773,0
2064,40803,0
2041,40792,0
2018,40795,0
1984,40803,0
1976,40786,0
1912,40798,0
1905,40771,0
1922,40777,0
1912,40797,0
1992,40781,0
1928,40768,0
1946,40777,0
1960,40796,0
1976,40793,0
1984,40775,0
1989,40756,0
1993,40764,0
1982,40796,0
1992,40772,0
1996,40788,0
1980,40747,0
1995,40758,0
1968,40784,0
2000,40775,0
1960,40784,0
1996,40764,0
1973,40770,0
2012,40791,0
1992,40763,0
2002,40764,0
2106,40788,0
2125,40761,0
2144,40780,0
2152,40752,0
2176,40765,0
2176,40787,0
2100,40767,0
2096,40785,0
2096,40754,0
2080,40753,0
2144,40778,0
2121,40768,0
2008,40768,0
1998,40776,0
1988,40773,0
1992,40763,0
1994,40759,0
1996,40756,0
2008,40780,0
2004,40767,0
2028,40786,0
2056,40742,0
2064,40765,0
2097,40783,0
2080,40759,0
2136,40770,0
2088,40765,0
2112,40760,0
2072,40790,0
2104,40760,0
2046,40772,0
2040,40782,0
2024,40777,0
2112,40788,0
2122,40749,0
2112,40767,0
2120,40803,0
2132,40778,0
2058,40796,0
2074,40760,0
2088,40777,0
2106,40795,0
2192,40780,0
2200,40790,0
2108,40780,0
2096,40778,0
2108,40798,0
2096,40785,0
2096,40788,0
2092,40806,0
2064,40783,0
2047,40807,0
2040,40765,0
2032,40780,0
1980,40797,0
2054,40792,0
2060,40792,0
2124,40781,0
2090,40774,0
2152,40806,0
2128,40780,0
2184,40763,0
2160,40801,0
2180,40779,0
2176,40808,0
2304,40778,0
2274,40778,0
2268,40811,0
2252,40775,0
2250,40804,0
2164,40775,0
2116,40782,0
2128,40804,0
2106,40781,0
2188,40776,0
2185,40811,0
2089,40781,0
2096,40796,0
2124,40785,0
2136,40782,0
2152,40786,0
2160,40802,0
2170,40790,0
2184,40818,0
2184,40785,0
2180,40813,0
2174,40787,0
2177,40788,0
2148,40814,0
2192,40793,0
2128,40807,0
2184,40788,0
2096,40786,0
2124,40810,0
2112,40795,0
2097,40806,0
2088,40821,0
2188,40795,0
2200,40825,0
2212,40782,0
2234,40794,0
2248,40815,0
2216,40795,0
2208,40827,0
2202,40794,0
2224,40784,0
2304,40818,0
2310,40797,0
2208,40816,0
2196,40795,0
2188,40790,0
2176,40792,0
2164,40797,0
2160,40777,0
2140,40806,0
2104,40782,0
2148,40801,0
2180,40769,0
2168,40775,0
2215,40795,0
2204,40780,0
2248,40794,0
2234,40776,0
2280,40774,0
2232,40778,0
2288,40758,0
2224,40752,0
2228,40789,0
2208,40766,0
2304,40774,0
2280,40736,0
2268,40742,0
2248,40760,0
2228,40748,0
2164,40750,0
2165,40737,0
2168,40738,0
2176,40747,0
2268,40721,0
2284,40728,0
2196,40727,0
2192,40743,0
2236,40722,0
2242,40734,0
2240,40715,0
2248,40696,0
2232,40713,0
2232,40699,0
2220,40704,0
2222,40680,0
2204,40673,0
2204,40688,0
2180,40668,0
2224,40692,0
2172,40639,0
2216,40658,0
2172,40686,0
2232,40646,0
2180,40658,0
2208,40631,0
2212,40623,0
2336,40653,0
2344,40627,0
2352,40636,0
2352,40622,0
2357,40607,0
2404,40619,0
2252,40589,0
2258,40595,0
2240,40616,0
2304,40589,0
2284,40605,0
2172,40567,0
2162,40567,0
2156,40569,0
2157,40561,0
2164,40562,0
2168,40584,0
2168,40555,0
2174,40561,0
2200,40546,0
2216,40541,0
2228,40553,0
2260,40527,0
2240,40526,0
2300,40539,0
2232,40513,0
2276,40527,0
2224,40502,0
2264,40495,0
2200,40530,0
2192,40497,0
2176,40515,0
2284,40483,0
2282,40488,0
2288,40508,0
2290,40492,0
2284,40506,0
2212,40465,0
2264,40466,0
2232,40486,0
2237,40466,0
2320,40475,0
2352,40471,0
2216,40486,0
2208,40481,0
2204,40441,0
2210,40462,0
2208,40491,0
2196,40435,0
2192,40470,0
2176,40433,0
2172,40433,0
2164,40465,0
2168,40434,0
2191,40461,0
2180,40437,0
2240,40428,0
2194,40446,0
2257,40436,0
2220,40435,0
2292,40437,0
2248,40420,0
2272,40438,0
2244,40402,0
2352,40419,0
2328,40446,0
2324,40432,0
2312,40440,0
2282,40404,0
2184,40423,0
2176,40443,0
2162,40417,0
2150,40432,0
2244,40427,0
2242,40429,0
2140,40453,0
2148,40443,0
2164,40460,0
2180,40441,0
2200,40414,0
2220,40425,0
2228,40456,0
2244,40441,0
2240,40437,0
2232,40467,0
2224,40442,0
2240,40476,0
2200,40422,0
2240,40443,0
2168,40459,0
2192,40451,0
2128,40457,0
2164,40467,0
2136,40450,0
2128,40466,0
2120,40446,0
2232,40455,0
2240,40484,0
2260,40457,0
2278,40488,0
2308,40444,0
2242,40466,0
2258,40493,0
2274,40469,0
2276,40484,0
2356,40466,0
2225,40514,0
2216,40464,0
2176,40474,0
2158,40475,0
2146,40504,0
2136,40503,0
2130,40460,0
2132,40475,0
2132,40499,0
2142,40477,0
2148,40510,0
2192,40465,0
2184,40487,0
2272,40495,0
2233,40491,0
2292,40499,0
2242,40492,0
2292,40490,0
2244,40508,0
2244,40493,0
2348,40496,0
2330,40512,0
2313,40492,0
2281,40521,0
2268,40489,0
2256,40491,0
2146,40523,0
2176,40501,0
2173,40533,0
2168,40499,0
2264,40503,0
2272,40518,0
2180,40514,0
2189,40517,0
2208,40510,0
2216,40501,0
2216,40517,0
2217,40529,0
2212,40503,0
2208,40518,0
2208,40546,0
2186,40518,0
2168,40543,0
2175,40497,0
2148,40508,0
2184,40539,0
2138,40528,0
2186,40532,0
2136,40534,0
2184,40520,0
2138,40545,0
2176,40509,0
2162,40511,0
2296,40546,0
2309,40514,0
2320,40544,0
2320,40503,0
2320,40519,0
2248,40543,0
2244,40522,0
2254,40542,0
2236,40505,0
2292,40524,0
2282,40547,0
2148,40547,0
2144,40540,0
2152,40531,0
2140,40549,0
2144,40538,0
2148,40538,0
2156,40511,0
2168,40531,0
2184,40514,0
2204,40512,0
2216,40538,0
2240,40512,0
2224,40532,0
2280,40502,0
2216,40501,0
2264,40531,0
2202,40504,0
2240,40514,0
2172,40512,0
2168,40503,0
2174,40519,0
2241,40496,0
2256,40494,0
2288,40531,0
2292,40497,0
2276,40521,0
2096,40477,0
2234,40498,0
2264,40519,0
2268,40493,0
2360,40518,0
2356,40476,0
2224,40491,0
2232,40488,0
2208,40503,0
2200,40485,0
2186,40492,0
2168,40490,0
2148,40510,0
2140,40484,0
2128,40479,0
2112,40502,0
2124,40485,0
2138,40492,0
2136,40494,0
2184,40469,0
2154,40490,0
2220,40469,0
2184,40477,0
2256,40495,0
2224,40473,0
2232,40496,0
2224,40460,0
2336,40481,0
2336,40498,0
2354,40477,0
2312,40499,0
2304,40453,0
2204,40470,0
2192,40497,0
2178,40472,0
2170,40496,0
2256,40468,0
2258,40474,0
2132,40490,0
2142,40503,0
2152,40486,0
2172,40469,0
2172,40481,0
2194,40516,0
2162,40476,0
2194,40506,0
2204,40467,0
2198,40491,0
2196,40504,0
2203,40484,0
2188,40505,0
2224,40484,0
2164,40492,0
2196,40511,0
2138,40502,0
2196,40509,0
2152,40489,0
2184,40489,0
2168,40507,0
2288,40501,0
2304,40510,0
2312,40494,0
2344,40501,0
2328,40520,0
2250,40502,0
2256,40496,0
2242,40523,0
2236,40509,0
2320,40528,0
2304,40498,0
2192,40511,0
2160,40509,0
2148,40505,0
2144,40502,0
2132,40511,0
2134,40516,0
2136,40539,0
2144,40520,0
2152,40533,0
2156,40501,0
2180,40519,0
2204,40536,0
2208,40528,0
2272,40541,0
2226,40511,0
2273,40525,0
2224,40538,0
2276,40524,0
2212,40530,0
2216,40541,0
2196,40519,0
2304,40542,0
2284,40514,0
2280,40511,0
2256,40535,0
2256,40528,0
2176,40549,0
2184,40510,0
2184,40513,0
2186,40531,0
2280,40530,0
2289,40527,0
2188,40523,0
2196,40525,0
2208,40522,0
2200,40524,0
2200,40526,0
2200,40509,0
2192,40520,0
2192,40537,0
2184,40524,0
2176,40539,0
2160,40523,0
2168,40524,0
2144,40537,0
2188,40532,0
2140,40520,0
2194,40526,0
2148,40513,0
2200,40528,0
2160,40507,0
2192,40518,0
2184,40545,0
2320,40513,0
2328,40537,0
2328,40502,0
2325,40519,0
2320,40547,0
2224,40521,0
2243,40550,0
2212,40503,0
2200,40518,0
2272,40545,0
2244,40517,0
2136,40517,0
2138,40536,0
2136,40525,0
2136,40529,0
2146,40538,0
2144,40525,0
2153,40562,0
2168,40532,0
2180,40554,0
2196,40535,0
2196,40538,0
2207,40550,0
2192,40537,0
2240,40559,0
2192,40527,0
2240,40533,0
2180,40561,0
2220,40552,0
2160,40569,0
2176,40534,0
2152,40546,0
2280,40572,0
2290,40553,0
2321,40554,0
2322,40580,0
2332,40550,0
2268,40588,0
2274,40545,0
2304,40550,0
2304,40581,0
2400,40570,0
2384,40605,0
2248,40564,0
2229,40559,0
2216,40595,0
2194,40572,0
2172,40572,0
2156,40595,0
2132,40575,0
2124,40597,0
2120,40566,0
2128,40579,0
2140,40595,0
2172,40588,0
2160,40612,0
2240,40579,0
2200,40592,0
2280,40614,0
2240,40593,0
2308,40610,0
2260,40601,0
2272,40598,0
2248,40608,0
2368,40595,0
2357,40600,0
2344,40610,0
2324,40594,0
2305,40621,0
2192,40599,0
2181,40589,0
2188,40616,0
2176,40596,0
2292,40633,0
2160,40620,0
2170,40600,0
2192,40646,0
2216,40612,0
2232,40612,0
2248,40622,0
2256,40608,0
2256,40602,0
2252,40637,0
2246,40616,0
2232,40630,0
2236,40608,0
2202,40618,0
2224,40630,0
2160,40613,0
2185,40621,0
2128,40629,0
2176,40613,0
2132,40629,0
2144,40604,0
2252,40619,0
2258,40641,0
2274,40614,0
2297,40634,0
2314,40607,0
2338,40611,0
2260,40643,0
2272,40624,0
2270,40647,0
2280,40603,0
2340,40620,0
2352,40644,0
2210,40668,0
2188,40623,0
2168,40626,0
2148,40637,0
2144,40636,0
2130,40646,0
2136,40611,0
2124,40630,0
2128,40654,0
2128,40637,0
2136,40647,0
2175,40618,0
2178,40624,0
2264,40650,0
2224,40627,0
2276,40663,0
2240,40631,0
2304,40632,0
2248,40650,0
2272,40637,0
2240,40638,0
2336,40645,0
2322,40631,0
2296,40658,0
2284,40633,0
2284,40642,0
2200,40663,0
2200,40643,0
2192,40665,0
2201,40618,0
2288,40642,0
2304,40657,0
2196,40668,0
2206,40648,0
2220,40649,0
2217,40654,0
2216,40643,0
2217,40666,0
2200,40641,0
2200,40673,0
2192,40634,0
2170,40638,0
2156,40666,0
2152,40655,0
2128,40668,0
2180,40643,0
2128,40654,0
2176,40662,0
2120,40659,0
2152,40660,0
2138,40678,0
2160,40657,0
2156,40674,0
2272,40642,0
2272,40659,0
2260,40682,0
2272,40655,0
2240,40684,0
2144,40650,0
2144,40654,0
2120,40678,0
2114,40666,0
2176,40666,0
2176,40688,0
2040,40649,0
2080,40658,0
2084,40663,0
2074,40673,0
2100,40670,0
2124,40677,0
2154,40666,0
2188,40689,0
2256,40646,0
2276,40650,0
2310,40686,0
2373,40663,0
2412,40681,0
2528,40645,0
2528,40661,0
2656,40682,0
2672,40662,0
2792,40664,0
2788,40681,0
2896,40671,0
2976,40683,0
3248,40658,0
3312,40643,0
3370,40685,0
3464,40660,0
3520,40692,0
3428,40647,0
3484,40662,0
3496,40683,0
3492,40667,0
3632,40679,0
3573,40658,0
3304,40678,0
3232,40693,0
3168,40679,0
3058,40677,0
2964,40670,0
2872,40682,0
2792,40669,0
2704,40682,0
2620,40656,0
2556,40666,0
2488,40699,0
2431,40676,0
2380,40701,0
2392,40662,0
2256,40673,0
2292,40693,0
2228,40676,0
2264,40676,0
2200,40686,0
2224,40672,0
2172,40694,0
2272,40666,0
2260,40675,0
2256,40703,0
2216,40680,0
2192,40691,0
2074,40670,0
2051,40669,0
2044,40703,0
2011,40679,0
2080,40685,0
2057,40686,0
1952,40705,0
1948,40681,0
1936,40699,0
1944,40705,0
1964,40680,0
1952,40704,0
1948,40684,0
1940,40682,0
1904,40715,0
1934,40689,0
1916,40717,0
1925,40671,0
1892,40682,0
1917,40718,0
1864,40701,0
1910,40707,0
1856,40687,0
1900,40688,0
1872,40723,0
1884,40708,0
1888,40712,0
2028,40720,0
2010,40705,0
2032,40716,0
2050,40709,0
2064,40711,0
1984,40735,0
1986,40717,0
1992,40747,0
1977,40717,0
2048,40716,0
2038,40731,0
1928,40723,0
1908,40733,0
1896,40713,0
1890,40732,0
1882,40737,0
1881,40746,0
1900,40720,0
1912,40752,0
1932,40722,0
1932,40734,0
1957,40761,0
1992,40744,0
1980,40760,0
2042,40753,0
1988,40739,0
2036,40767,0
1984,40748,0
2020,40758,0
1976,40762,0
1972,40752,0
1948,40780,0
2040,40754,0
2020,40759,0
2024,40774,0
2025,40769,0
2036,40788,0
1964,40748,0
1958,40766,0
1986,40796,0
1980,40781,0
2096,40791,0
2124,40796,0
2032,40764,0
2052,40788,0
2056,40796,0
2060,40796,0
2046,40809,0
2046,40790,0
2040,40808,0
2025,40795,0
2010,40813,0
2002,40793,0
1976,40791,0
1967,40819,0
1964,40811,0
2016,40830,0
1968,40801,0
2018,40800,0
1980,40833,0
2040,40815,0
2016,40826,0
2056,40812,0
2047,40801,0
2200,40829,0
2194,40807,0
2180,40818,0
2196,40841,0
2186,40826,0
2104,40850,0
2090,40811,0
2081,40817,0
2060,40845,0
2129,40820,0
2120,40836,0
2008,40836,0
2008,40834,0
2008,40831,0
2020,40853,0
2008,40835,0
2024,40860,0
2056,40837,0
2084,40847,0
2076,40809,0
2084,40829,0
2092,40852,0
2110,40835,0
2104,40850,0
2145,40832,0
2116,40828,0
2146,40849,0
2076,40832,0
2148,40848,0
2056,40847,0
2072,40823,0
2047,40851,0
2176,40827,0
2168,40829,0
2168,40850,0
2213,40834,0
2188,40857,0
2122,40827,0
2140,40836,0
2154,40850,0
2176,40838,0
2260,40836,0
2148,40786,0
2138,40841,0
2136,40857,0
2134,40855,0
2104,40824,0
2084,40849,0
2076,40808,0
2084,40821,0
2064,40852,0
2084,40823,0
2080,40852,0
2096,40808,0
2084,40825,0
2152,40846,0
2120,40815,0
2188,40840,0
2176,40807,0
2216,40818,0
2172,40833,0
2184,40808,0
2292,40811,0
2293,40829,0
2284,40802,0
2273,40820,0
2284,40786,0
2240,40796,0
2154,40824,0
2140,40787,0
2146,40805,0
2154,40776,0
2252,40790,0
2244,40809,0
2152,40680,0
2160,40769,0
2176,40768,0
2192,40774,0
2208,40772,0
2200,40780,0
2208,40764,0
2210,40789,0
2196,40750,0
2192,40763,0
2216,40775,0
2202,40753,0
2164,40770,0
2200,40732,0
2132,40731,0
2172,40759,0
2128,40742,0
2184,40749,0
2144,40718,0
2160,40712,0
2160,40744,0
2292,40711,0
2304,40721,0
2316,40709,0
2340,40689,0
2376,40708,0
2264,40684,0
2270,40692,0
2260,40711,0
2264,40687,0
2336,40698,0
2324,40654,0
2186,40680,0
2164,40677,0
2152,40687,0
2136,40649,0
2136,40666,0
2136,40646,0
2144,40669,0
2152,40631,0
2164,40645,0
2178,40654,0
2196,40631,0
2235,40653,0
2228,40608,0
2304,40608,0
2244,40639,0
2292,40614,0
2232,40623,0
2280,40595,0
2208,40586,0
2204,40619,0
2164,40586,0
2264,40581,0
2244,40601,0
2232,40587,0
2240,40596,0
2228,40553,0
2153,40573,0
2158,40587,0
2188,40577,0
2176,40575,0
2276,40562,0
2296,40544,0
2192,40566,0
2196,40567,0
2208,40545,0
2204,40554,0
2196,40547,0
2194,40562,0
2184,40532,0
2178,40535,0
2162,40551,0
2148,40534,0
2116,40551,0
2144,40535,0
2116,40523,0
2160,40538,0
2116,40514,0
2176,40528,0
2121,40534,0
2184,40517,0
2150,40538,0
2184,40500,0
2192,40518,0
2320,40539,0
2324,40509,0
2314,40529,0
2346,40507,0
2309,40516,0
2208,40527,0
2200,40511,0
2212,40511,0
2160,40532,0
2232,40511,0
2216,40532,0
2108,40508,0
2104,40522,0
2108,40510,0
2106,40520,0
2120,40513,0
2128,40530,0
2148,40510,0
2153,40540,0
2169,40513,0
2172,40525,0
2180,40533,0
2216,40522,0
2164,40531,0
2208,40533,0
2144,40515,0
2192,40536,0
2128,40519,0
2156,40531,0
2100,40534,0
2112,40523,0
2100,40536,0
2226,40533,0
2228,40536,0
2234,40552,0
2280,40520,0
2260,40538,0
2188,40520,0
2203,40513,0
2208,40546,0
2218,40525,0
2296,40532,0
2282,40493,0
2168,40533,0
2160,40516,0
2144,40514,0
2132,40509,0
2120,40505,0
2104,40510,0
2084,40526,0
2036,40503,0
2084,40525,0
2084,40482,0
2088,40492,0
2105,40513,0
2108,40495,0
2176,40511,0
2148,40477,0
2216,40480,0
2196,40503,0
2260,40490,0
2208,40491,0
2224,40491,0
2200,40474,0
2316,40492,0
2306,40461,0
2284,40468,0
2257,40482,0
2234,40464,0
2136,40480,0
2126,40449,0
2120,40465,0
2124,40486,0
2212,40469,0
2212,40481,0
2108,40475,0
2106,40451,0
2140,40473,0
2165,40465,0
2180,40466,0
2189,40458,0
2192,40452,0
2185,40479,0
2184,40459,0
2168,40475,0
2164,40450,0
2172,40450,0
2136,40485,0
2168,40460,0
2116,40481,0
2152,40431,0
2120,40456,0
2152,40478,0
2114,40461,0
2128,40475,0
2132,40433,0
2256,40455,0
2272,40468,0
2288,40446,0
2293,40471,0
2304,40464,0
2232,40459,0
2232,40481,0
2220,40448,0
2220,40453,0
2312,40489,0
2320,40455,0
2168,40468,0
2148,40455,0
2136,40473,0
2140,40460,0
2144,40477,0
2148,40482,0
2154,40464,0
2152,40463,0
2164,40489,0
2172,40474,0
2186,40497,0
2217,40464,0
2208,40470,0
2258,40487,0
2200,40478,0
2240,40501,0
2184,40455,0
2212,40474,0
2184,40492,0
2160,40482,0
2132,40503,0
2244,40472,0
2240,40488,0
2226,40497,0
2225,40486,0
2240,40484,0
2164,40504,0
2170,40489,0
2178,40510,0
2186,40475,0
2290,40484,0
2296,40505,0
2184,40489,0
2198,40499,0
2196,40495,0
2200,40493,0
2185,40473,0
2186,40494,0
2168,40515,0
2157,40494,0
2148,40508,0
2132,40486,0
2132,40481,0
2143,40511,0
2136,40489,0
2192,40508,0
2152,40505,0
2200,40496,0
2156,40513,0
2233,40488,0
2184,40490,0
2208,40514,0
2200,40489,0
2320,40514,0
2312,40494,0
2308,40491,0
2296,40521,0
2288,40502,0
2185,40519,0
2172,40475,0
2152,40506,0
2136,40516,0
2210,40499,0
2214,40519,0
2104,40513,0
2214,40511,0
2120,40508,0
2152,40510,0
2140,40512,0
2160,40510,0
2188,40496,0
2202,40523,0
2216,40505,0
2224,40492,0
2220,40528,0
2224,40504,0
2202,40529,0
2232,40501,0
2174,40513,0
