ECG,IR,PCG
1348,36991,0
1360,37008,0
1384,37003,0
1360,36983,0
1358,36979,0
1336,36996,0
1314,36975,0
1304,36973,0
1282,36989,0
1272,36973,0
1260,36980,0
1288,36964,0
1268,36985,0
1312,36968,0
1284,36987,0
1314,36952,0
1340,36974,0
1361,36994,0
1376,36976,0
1425,36976,0
1405,36988,0
1412,36997,0
1488,36968,0
1416,36980,0
1394,36986,0
1368,36949,0
1352,36955,0
1328,36977,0
1306,36956,0
1288,36941,0
1320,36972,0
1297,36964,0
1300,36946,0
1306,36935,0
1312,36949,0
1320,36917,0
1369,36926,0
1381,36928,0
1396,36909,0
1410,36910,0
1432,36926,0
1445,36886,0
1433,36895,0
1422,36885,0
1420,36890,0
1398,36899,0
1381,36875,0
1365,36880,0
1308,36905,0
1321,36884,0
1328,36871,0
1313,36878,0
1344,36887,0
1316,36863,0
1322,36851,0
1342,36869,0
1362,36838,0
1384,36855,0
1400,36871,0
1414,36864,0
1424,36852,0
1434,36850,0
1418,36871,0
1434,36844,0
1440,36838,0
1400,36858,0
1357,36825,0
1332,36845,0
1320,36856,0
1331,36824,0
1304,36832,0
1304,36820,0
1304,36828,0
1338,36823,0
1332,36830,0
1380,36822,0
1386,36833,0
1398,36837,0
1440,36830,0
1429,36816,0
1416,36828,0
1416,36812,0
1408,36815,0
1396,36833,0
1372,36785,0
1362,36809,0
1330,36836,0
1312,36803,0
1304,36817,0
1296,36820,0
1312,36835,0
1296,36805,0
1330,36801,0
1322,36832,0
1324,36801,0
1354,36806,0
1380,36835,0
1390,36827,0
1416,36818,0
1421,36827,0
1412,36835,0
1408,36818,0
1400,36821,0
1410,36820,0
1370,36822,0
1348,36844,0
1328,36837,0
1298,36844,0
1340,36828,0
1278,36848,0
1278,36840,0
1282,36829,0
1302,36830,0
1308,36850,0
1357,36832,0
1354,36843,0
1380,36862,0
1418,36834,0
1408,36851,0
1442,36867,0
1460,36840,0
1456,36851,0
1428,36880,0
1426,36875,0
1396,36872,0
1368,36877,0
1344,36893,0
1332,36871,0
1323,36871,0
1312,36886,0
1312,36862,0
1358,36876,0
1318,36907,0
1334,36906,0
1351,36897,0
1382,36887,0
1406,36892,0
1440,36916,0
1456,36916,0
1466,36930,0
1464,36916,0
1477,36913,0
1453,36933,0
1440,36942,0
1432,36932,0
1396,36938,0
1397,36951,0
1356,36921,0
1340,36936,0
1356,36964,0
1332,36926,0
1328,36942,0
1336,36977,0
1340,36970,0
1354,36961,0
1396,36961,0
1400,36977,0
1428,36950,0
1432,36968,0
1474,36987,0
1452,36958,0
1460,36969,0
1445,36985,0
1451,36982,0
1454,36962,0
1410,36966,0
1384,36986,0
1372,36955,0
1358,36962,0
1366,36953,0
1356,36952,0
1360,36953,0
1380,36948,0
1360,36951,0
1404,36974,0
1424,36950,0
1424,36949,0
1440,36953,0
1456,36923,0
1450,36937,0
1465,36956,0
1468,36941,0
1457,36932,0
1444,36950,0
1444,36952,0
1412,36935,0
1400,36928,0
1364,36942,0
1373,36918,0
1344,36913,0
1354,36936,0
1345,36902,0
1354,36919,0
1372,36943,0
1414,36937,0
1425,36920,0
1472,36938,0
1460,36936,0
1468,36918,0
1492,36920,0
1476,36932,0
1474,36913,0
1472,36931,0
1460,36930,0
1456,36920,0
1416,36932,0
1404,36934,0
1376,36911,0
1372,36918,0
1364,36929,0
1361,36918,0
1352,36914,0
1376,36936,0
1388,36905,0
1416,36909,0
1440,36936,0
1468,36940,0
1476,36914,0
1488,36935,0
1520,36939,0
1521,36921,0
1505,36926,0
1508,36941,0
1484,36915,0
1468,36933,0
1440,36968,0
1412,36933,0
1416,36936,0
1406,36975,0
1412,36977,0
1414,36958,0
1429,36957,0
1426,36960,0
1442,36958,0
1456,36968,0
1488,36959,0
1498,36966,0
1534,36990,0
1532,36959,0
1554,36972,0
1550,37000,0
1552,36998,0
1549,36986,0
1524,36986,0
1504,37006,0
1478,36999,0
1449,36996,0
1452,37014,0
1424,36990,0
1428,37002,0
1420,37035,0
1432,37008,0
1428,37012,0
1460,37024,0
1480,37044,0
1504,37021,0
1524,37021,0
1546,37046,0
1569,37012,0
1576,37024,0
1568,37051,0
1576,37032,0
1601,37050,0
1556,37026,0
1520,37042,0
1509,37055,0
1484,37043,0
1476,37073,0
1500,37055,0
1458,37075,0
1461,37045,0
1464,37071,0
1468,37098,0
1480,37096,0
1509,37077,0
1540,37091,0
1560,37102,0
1565,37070,0
1588,37077,0
1596,37097,0
1594,37063,0
1600,37080,0
1594,37114,0
1576,37109,0
1560,37089,0
1532,37097,0
1530,37108,0
1504,37092,0
1500,37084,0
1480,37103,0
1486,37083,0
1490,37076,0
1504,37093,0
1516,37064,0
1552,37084,0
1568,37081,0
1592,37079,0
1612,37086,0
1627,37083,0
1664,37105,0
1656,37064,0
1657,37070,0
1636,37090,0
1616,37050,0
1586,37076,0
1572,37083,0
1555,37047,0
1535,37068,0
1524,37079,0
1528,37076,0
1528,37059,0
1520,37065,0
1524,37070,0
1542,37054,0
1562,37054,0
1580,37059,0
1616,37025,0
1629,37039,0
1650,37055,0
1641,37025,0
1658,37038,0
1668,37037,0
1644,37050,0
1649,37030,0
1624,37024,0
1600,37040,0
1589,37019,0
1564,37019,0
1564,37015,0
1588,37015,0
1560,37007,0
1608,37031,0
1586,36990,0
1600,37008,0
1605,37019,0
1652,37007,0
1663,37003,0
1718,37014,0
1706,37007,0
1712,37003,0
1720,37003,0
1708,37009,0
1700,36980,0
1680,36981,0
1668,37000,0
1632,36963,0
1610,36974,0
1596,36995,0
1588,36953,0
1585,36973,0
1586,36988,0
1605,36987,0
1596,36963,0
1610,36968,0
1647,36975,0
1682,36949,0
1702,36959,0
1720,36968,0
1736,36905,0
1744,36943,0
1764,36973,0
1756,36962,0
1736,36976,0
1728,36955,0
1704,36944,0
1684,36962,0
1704,36936,0
1666,36945,0
1640,36959,0
1674,36942,0
1676,36947,0
1696,36966,0
1712,36962,0
1748,36953,0
1768,36955,0
1800,36964,0
1808,36936,0
1812,36942,0
1832,36944,0
1824,36930,0
1828,36927,0
1812,36958,0
1808,36923,0
1772,36926,0
1746,36963,0
1718,36951,0
1739,36935,0
1705,36930,0
1740,36948,0
1708,36927,0
1740,36905,0
1734,36939,0
1736,36925,0
1760,36920,0
1791,36915,0
1809,36905,0
1840,36947,0
1844,36939,0
1856,36925,0
1864,36921,0
1864,36935,0
1892,36907,0
1844,36907,0
1836,36924,0
1804,36891,0
1770,36904,0
1776,36920,0
1760,36881,0
1770,36896,0
1760,36918,0
1762,36908,0
1784,36885,0
1800,36894,0
1817,36897,0
1832,36878,0
1864,36874,0
1860,36905,0
1880,36858,0
1872,36878,0
1860,36891,0
1856,36887,0
1848,36879,0
1812,36826,0
1888,36845,0
1924,36817,0
1908,36833,0
1915,36814,0
1912,36822,0
1910,36834,0
1928,36836,0
1890,36813,0
1875,36806,0
1842,36826,0
1827,36804,0
1810,36802,0
1792,36818,0
1808,36777,0
1792,36791,0
1792,36818,0
1810,36806,0
1820,36790,0
1844,36805,0
1864,36803,0
1888,36779,0
1920,36781,0
1936,36790,0
1944,36761,0
1953,36778,0
1952,36796,0
1940,36779,0
1922,36780,0
1926,36790,0
1892,36798,0
1892,36774,0
1864,36771,0
1824,36778,0
1808,36778,0
1791,36778,0
1788,36792,0
1768,36768,0
1784,36768,0
1796,36768,0
1810,36768,0
1824,36768,0
1844,36768,0
1862,36780,0
1866,36781,0
1868,36781,0
1872,36781,0
1888,36781,0
1856,36781,0
1852,36781,0
1840,36781,0
1828,36768,0
1826,36768,0
1836,36768,0
1864,36768,0
1881,36768,0
1910,36768,0
1942,36768,0
1994,36775,0
2048,36775,0
2122,36775,0
2210,36775,0
2284,36775,0
2392,36775,0
2480,36775,0
2532,36811,0
2622,36794,0
2704,36786,0
2784,36805,0
2852,36783,0
2910,36792,0
3000,36817,0
3026,36792,0
3090,36799,0
3140,36827,0
3192,36819,0
3263,36814,0
3244,36832,0
3308,36828,0
3236,36809,0
3248,36826,0
3180,36833,0
3128,36815,0
3024,36808,0
2936,36842,0
2836,36807,0
2768,36826,0
2648,36848,0
2548,36815,0
2432,36839,0
2308,36866,0
2186,36857,0
1880,36877,0
1872,36849,0
1904,36851,0
1888,36856,0
1900,36875,0
1924,36865,0
1928,36868,0
1926,36882,0
1912,36869,0
1906,36864,0
1888,36887,0
1856,36853,0
1812,36873,0
1786,36891,0
1744,36864,0
1706,36882,0
1698,36904,0
1677,36901,0
1682,36880,0
1664,36897,0
1666,36910,0
1696,36900,0
1709,36881,0
1728,36904,0
1760,36882,0
1785,36887,0
1792,36916,0
1792,36876,0
1806,36898,0
1798,36918,0
1800,36913,0
1782,36911,0
1740,36932,0
1720,36934,0
1688,36929,0
1674,36914,0
1652,36937,0
1644,36939,0
1656,36910,0
1658,36927,0
1668,36945,0
1685,36925,0
1712,36920,0
1752,36938,0
1804,36910,0
1800,36921,0
1844,36937,0
1824,36903,0
1840,36918,0
1826,36934,0
1826,36922,0
1800,36917,0
1791,36938,0
1760,36928,0
1744,36913,0
1731,36906,0
1715,36927,0
1713,36899,0
1720,36891,0
1714,36923,0
1733,36880,0
1738,36892,0
1772,36915,0
1812,36861,0
1830,36904,0
1848,36915,0
1874,36904,0
1854,36901,0
1860,36883,0
1852,36898,0
1838,36860,0
1818,36883,0
1824,36892,0
1772,36869,0
1763,36874,0
1752,36898,0
1754,36887,0
1764,36881,0
1760,36890,0
1770,36889,0
1800,36864,0
1808,36882,0
1832,36889,0
1888,36870,0
1892,36869,0
1900,36877,0
1920,36863,0
1923,36863,0
1922,36877,0
1908,36855,0
1896,36863,0
1877,36884,0
1849,36878,0
1834,36864,0
1816,36855,0
1800,36916,0
1788,36866,0
1786,36851,0
1792,36870,0
1793,36861,0
1808,36884,0
1836,36835,0
1872,36847,0
1908,36879,0
1922,36878,0
1938,36869,0
1956,36875,0
1984,36884,0
1958,36868,0
1944,36869,0
1964,36882,0
1916,36864,0
1904,36873,0
1872,36899,0
1864,36874,0
1856,36889,0
1872,36910,0
1868,36911,0
1874,36896,0
1888,36885,0
1904,36909,0
1928,36893,0
1946,36904,0
1985,36922,0
1997,36908,0
2017,36903,0
2032,36927,0
2012,36916,0
2012,36922,0
2005,36915,0
1980,36932,0
1972,36936,0
1953,36958,0
1924,36934,0
1906,36942,0
1908,36962,0
1904,36957,0
1901,36955,0
1914,36982,0
1938,36968,0
1976,36955,0
1980,36976,0
2016,36987,0
2032,36977,0
2056,36971,0
2064,36999,0
2064,36978,0
2072,36984,0
2088,37009,0
2089,36976,0
2085,36992,0
2040,37025,0
2014,36996,0
1965,37010,0
1952,37036,0
1949,37024,0
1938,37018,0
1940,37019,0
1952,37044,0
1952,37015,0
1968,37051,0
2004,37027,0
2040,37018,0
2068,37022,0
2084,37054,0
2096,37029,0
2106,37016,0
2104,37038,0
2113,37030,0
2108,37028,0
2099,37051,0
2064,37013,0
2052,37023,0
2028,37033,0
2008,37002,0
1996,37025,0
2008,37044,0
2000,37023,0
1992,37025,0
2004,37029,0
2048,37026,0
2064,37010,0
2101,37021,0
2150,37025,0
2162,37007,0
2160,37002,0
2161,37025,0
2164,36992,0
2160,36996,0
2164,37013,0
2146,36982,0
2112,37019,0
2076,37009,0
2047,37004,0
2030,37010,0
2024,36984,0
2014,36997,0
2010,37005,0
2016,36981,0
2028,36990,0
2052,37010,0
2064,36976,0
2108,36980,0
2130,37005,0
2164,36969,0
2200,36986,0
2184,37004,0
2172,36973,0
2184,36979,0
2164,36991,0
2140,36981,0
2114,36985,0
2104,37002,0
2074,36995,0
2084,36975,0
2074,36977,0
2028,36993,0
2018,36973,0
2020,36975,0
2058,36988,0
2056,36958,0
2088,36966,0
2116,36987,0
2116,36994,0
2128,37004,0
2148,36996,0
2128,36994,0
2148,36967,0
2144,36976,0
2144,36993,0
2116,36982,0
2090,36981,0
2060,37005,0
2068,36973,0
2028,36971,0
2016,37007,0
2016,36966,0
2008,36981,0
2016,37004,0
2012,36999,0
2036,36984,0
2045,37006,0
2072,37006,0
2096,36997,0
2128,36988,0
2137,37018,0
2132,36981,0
2128,36995,0
2130,37016,0
2104,36979,0
2080,36993,0
2084,37021,0
2036,36997,0
2028,37008,0
2004,37030,0
1972,37031,0
1980,37017,0
1976,37028,0
1976,37017,0
1992,37049,0
2016,37045,0
2046,37048,0
2065,37044,0
2089,37044,0
2106,37067,0
2140,37056,0
2117,37049,0
2136,37081,0
2104,37051,0
2088,37064,0
2072,37089,0
2040,37063,0
2020,37075,0
1988,37108,0
1972,37097,0
1956,37085,0
1972,37110,0
1984,37118,0
1980,37105,0
1996,37099,0
2018,37130,0
2024,37117,0
2046,37110,0
2088,37132,0
2096,37109,0
2128,37136,0
2130,37157,0
2112,37155,0
2106,37143,0
2092,37152,0
2080,37172,0
2058,37178,0
2034,37157,0
2016,37192,0
2004,37185,0
1992,37182,0
1992,37210,0
1996,37215,0
2008,37199,0
2004,37199,0
2064,37220,0
2060,37201,0
2100,37202,0
2112,37214,0
2136,37213,0
2136,37212,0
2132,37236,0
2128,37235,0
2160,37224,0
2136,37216,0
2101,37244,0
2068,37222,0
2033,37213,0
2002,37240,0
1987,37202,0
1992,37225,0
1992,37246,0
2000,37230,0
1996,37232,0
2032,37259,0
2020,37249,0
2056,37252,0
2085,37266,0
2104,37233,0
2128,37250,0
2138,37246,0
2156,37229,0
2132,37236,0
2128,37251,0
2152,37243,0
2104,37226,0
2072,37248,0
2056,37217,0
2026,37233,0
2016,37257,0
2000,37236,0
2040,37237,0
2008,37264,0
2012,37259,0
2112,37249,0
2080,37263,0
2098,37278,0
2144,37245,0
2146,37250,0
2196,37276,0
2176,37242,0
2160,37260,0
2161,37276,0
2156,37243,0
2162,37266,0
2088,37381,0
2080,37277,0
2064,37281,0
2040,37271,0
2036,37285,0
2036,37291,0
2044,37271,0
2052,37302,0
2072,37280,0
2096,37285,0
2120,37308,0
2160,37290,0
2168,37292,0
2196,37328,0
2196,37319,0
2192,37312,0
2176,37311,0
2176,37329,0
2176,37321,0
2128,37319,0
2120,37337,0
2100,37321,0
2080,37322,0
2064,37341,0
2088,37315,0
2058,37336,0
2050,37351,0
2054,37341,0
2116,37339,0
2122,37358,0
2136,37366,0
2168,37346,0
2164,37381,0
2184,37351,0
2186,37369,0
2192,37359,0
2200,37358,0
2213,37340,0
2192,37356,0
2154,37379,0
2113,37350,0
2101,37362,0
2084,37385,0
2078,37373,0
2072,37367,0
2100,37387,0
2072,37388,0
2080,37359,0
2104,37374,0
2096,37380,0
2128,37354,0
2184,37345,0
2168,37373,0
2220,37344,0
2210,37342,0
2217,37372,0
2216,37350,0
2208,37353,0
2176,37378,0
2148,37372,0
2128,37353,0
2112,37348,0
2100,37361,0
2092,37341,0
2047,37349,0
2044,37362,0
2056,37345,0
2076,37358,0
2092,37344,0
2116,37336,0
2136,37338,0
2170,37356,0
2192,37359,0
2202,37336,0
2200,37336,0
2214,37352,0
2208,37333,0
2208,37346,0
2168,37346,0
2196,37317,0
2128,37335,0
2144,37369,0
2088,37348,0
2072,37342,0
2060,37352,0
2080,37360,0
2072,37341,0
2088,37340,0
2096,37361,0
2112,37333,0
2161,37344,0
2144,37365,0
2166,37349,0
2169,37359,0
2184,37367,0
2192,37374,0
2192,37356,0
2168,37358,0
2144,37369,0
2145,37338,0
2110,37377,0
2093,37373,0
2072,37388,0
2064,37369,0
2056,37367,0
2052,37393,0
2088,37371,0
2079,37372,0
2092,37406,0
2128,37369,0
2144,37396,0
2176,37411,0
2188,37391,0
2208,37407,0
2204,37417,0
2208,37422,0
2200,37404,0
2216,37410,0
2193,37424,0
2184,37413,0
2158,37413,0
2136,37434,0
2120,37408,0
2102,37420,0
2101,37445,0
2108,37434,0
2136,37430,0
2139,37451,0
2136,37433,0
2154,37449,0
2192,37425,0
2240,37453,0
2220,37444,0
2238,37425,0
2260,37442,0
2244,37469,0
2216,37442,0
2236,37444,0
2220,37456,0
2197,37466,0
2192,37452,0
2160,37443,0
2136,37461,0
2124,37437,0
2104,37443,0
2113,37464,0
2092,37444,0
2112,37451,0
2124,37470,0
2176,37447,0
2233,37458,0
2264,37481,0
2253,37474,0
2276,37462,0
2264,37470,0
2266,37483,0
2268,37462,0
2252,37455,0
2252,37477,0
2225,37454,0
2188,37474,0
2160,37487,0
2152,37489,0
2132,37475,0
2132,37487,0
2122,37463,0
2144,37473,0
2132,37496,0
2144,37461,0
2176,37485,0
2200,37499,0
2232,37487,0
2244,37497,0
2276,37518,0
2264,37504,0
2280,37498,0
2264,37506,0
2300,37520,0
2248,37501,0
2224,37500,0
2200,37515,0
2208,37479,0
2182,37499,0
2188,37526,0
2176,37500,0
2176,37504,0
2192,37532,0
2168,37528,0
2192,37513,0
2228,37529,0
2240,37540,0
2267,37529,0
2264,37523,0
2264,37551,0
2272,37528,0
2280,37530,0
2276,37528,0
2264,37506,0
2284,37529,0
2216,37538,0
2192,37508,0
2177,37530,0
2164,37551,0
2155,37536,0
2136,37534,0
2176,37554,0
2148,37553,0
2188,37545,0
2172,37555,0
2212,37564,0
2232,37547,0
2258,37546,0
2272,37561,0
2308,37560,0
2312,37550,0
2304,37578,0
2308,37539,0
2296,37555,0
2266,37576,0
2245,37549,0
2230,37568,0
2208,37584,0
2208,37573,0
2228,37559,0
2180,37562,0
2184,37564,0
2192,37579,0
2200,37570,0
2216,37566,0
2244,37577,0
2268,37601,0
2277,37568,0
2296,37580,0
2300,37612,0
2302,37574,0
2306,37596,0
2296,37617,0
2290,37606,0
2252,37588,0
2240,37623,0
2164,37632,0
2176,37613,0
2144,37606,0
2124,37630,0
2112,37611,0
2132,37609,0
2140,37639,0
2124,37612,0
2160,37626,0
2165,37641,0
2162,37607,0
2188,37628,0
2218,37653,0
2226,37634,0
2250,37635,0
2256,37652,0
2240,37664,0
2268,37656,0
2242,37642,0
2242,37629,0
2240,37657,0
2248,37664,0
2248,37638,0
2276,37649,0
2300,37680,0
2356,37653,0
2378,37642,0
2472,37666,0
2550,37633,0
2672,37645,0
2748,37671,0
2868,37629,0
2952,37655,0
3080,37665,0
3144,37661,0
3260,37641,0
3332,37648,0
3432,37667,0
3488,37641,0
3512,37636,0
3536,37665,0
3524,37627,0
3508,37645,0
3492,37653,0
3476,37619,0
3440,37647,0
3432,37661,0
3240,37647,0
3168,37650,0
3096,37662,0
3020,37663,0
2952,37651,0
2852,37635,0
2768,37653,0
2674,37629,0
2588,37639,0
2512,37661,0
2408,37645,0
2333,37640,0
2248,37644,0
2220,37652,0
2164,37631,0
2152,37631,0
2132,37647,0
2144,37623,0
2136,37628,0
2144,37657,0
2176,37627,0
2200,37629,0
2221,37647,0
2232,37620,0
2224,37635,0
2224,37652,0
2192,37638,0
2172,37633,0
2160,37651,0
2129,37655,0
2104,37636,0
2064,37637,0
2016,37647,0
1980,37653,0
1953,37648,0
1952,37650,0
1940,37646,0
1954,37639,0
1938,37641,0
1946,37663,0
1970,37640,0
1994,37635,0
2032,37667,0
2062,37634,0
2084,37648,0
2096,37676,0
2084,37647,0
2096,37655,0
2096,37684,0
2100,37670,0
2068,37658,0
2036,37667,0
2018,37674,0
2026,37665,0
2016,37656,0
2000,37684,0
2001,37666,0
2000,37670,0
2000,37690,0
2008,37666,0
2042,37673,0
2056,37702,0
2088,37676,0
2120,37687,0
2124,37683,0
2124,37673,0
2164,37690,0
2136,37702,0
2140,37697,0
2136,37689,0
2120,37699,0
2096,37699,0
2080,37687,0
2060,37678,0
2042,37708,0
2056,37686,0
2040,37681,0
2080,37710,0
2056,37662,0
2080,37678,0
2090,37699,0
2116,37680,0
2136,37675,0
2152,37702,0
2170,37689,0
2200,37675,0
2202,37694,0
2226,37691,0
2197,37678,0
2184,37678,0
2160,37697,0
2136,37676,0
2116,37676,0
2096,37694,0
2088,37667,0
2096,37678,0
2080,37701,0
2112,37693,0
2088,37678,0
2096,37684,0
2128,37686,0
2160,37706,0
2176,37684,0
2232,37695,0
2216,37710,0
2218,37690,0
2228,37684,0
2237,37703,0
2220,37681,0
2216,37688,0
2200,37709,0
2164,37676,0
2136,37689,0
2124,37714,0
2104,37701,0
2096,37697,0
2082,37721,0
2112,37724,0
2148,37713,0
2137,37705,0
2161,37733,0
2184,37699,0
2201,37698,0
2232,37732,0
2256,37701,0
2256,37714,0
2288,37728,0
2272,37706,0
2256,37725,0
2228,37741,0
2208,37750,0
2182,37738,0
2160,37738,0
2136,37716,0
2116,37729,0
2084,37753,0
2100,37750,0
2136,37732,0
2148,37724,0
2139,37749,0
2164,37728,0
2200,37733,0
2228,37756,0
2244,37721,0
2248,37727,0
2274,37756,0
2264,37709,0
2272,37726,0
2264,37738,0
2272,37726,0
2256,37705,0
2226,37728,0
2208,37733,0
2184,37712,0
2164,37701,0
2155,37722,0
2165,37691,0
2164,37691,0
2184,37707,0
2202,37661,0
2208,37673,0
2234,37667,0
2250,37669,0
2268,37659,0
2280,37676,0
2284,37670,0
2280,37634,0
2272,37642,0
2276,37663,0
2256,37633,0
2244,37636,0
2219,37657,0
2192,37641,0
2192,37624,0
2172,37641,0
2176,37648,0
2192,37623,0
2180,37624,0
2180,37640,0
2202,37614,0
2224,37617,0
2284,37636,0
2304,37603,0
2328,37611,0
2332,37632,0
2346,37589,0
2344,37596,0
2340,37629,0
2317,37608,0
2296,37599,0
2288,37618,0
2304,37632,0
2244,37602,0
2200,37607,0
2188,37597,0
2176,37592,0
2176,37587,0
2208,37618,0
2186,37599,0
2200,37599,0
2232,37606,0
2260,37570,0
2284,37590,0
2309,37605,0
2320,37576,0
2340,37585,0
2340,37604,0
2336,37585,0
2314,37585,0
2336,37607,0
2308,37608,0
2250,37584,0
2220,37590,0
2228,37600,0
2209,37578,0
2212,37578,0
2209,37590,0
2204,37568,0
2200,37572,0
2208,37595,0
2232,37564,0
2252,37573,0
2280,37602,0
2305,37582,0
2296,37590,0
2300,37586,0
2300,37598,0
2302,37591,0
2304,37569,0
2276,37581,0
2258,37578,0
2224,37556,0
2200,37587,0
2202,37558,0
2164,37571,0
2172,37603,0
2172,37568,0
2192,37567,0
2172,37596,0
2218,37595,0
2208,37562,0
2240,37573,0
2248,37581,0
2272,37572,0
2320,37570,0
2304,37594,0
2312,37574,0
2304,37576,0
2290,37598,0
2272,37570,0
2228,37581,0
2200,37607,0
2189,37603,0
2156,37602,0
2144,37607,0
2144,37614,0
2122,37592,0
2120,37584,0
2122,37599,0
2144,37621,0
2184,37603,0
2194,37631,0
2226,37612,0
2242,37621,0
2244,37628,0
2292,37637,0
2264,37621,0
2256,37616,0
2248,37640,0
2236,37609,0
2196,37618,0
2192,37645,0
2136,37613,0
2120,37628,0
2104,37645,0
2090,37649,0
2088,37639,0
2104,37640,0
2108,37659,0
2128,37636,0
2154,37635,0
2176,37659,0
2186,37647,0
2194,37648,0
2225,37670,0
2226,37642,0
2248,37651,0
2208,37726,0
2188,37675,0
2164,37655,0
2144,37670,0
2112,37661,0
2128,37688,0
2080,37663,0
2080,37672,0
2072,37695,0
2074,37680,0
2100,37679,0
2120,37708,0
2152,37668,0
2164,37681,0
2180,37704,0
2208,37678,0
2212,37695,0
2232,37711,0
2220,37707,0
2216,37699,0
2240,37700,0
2224,37718,0
2194,37695,0
2204,37691,0
2168,37712,0
2136,37693,0
2114,37697,0
2116,37713,0
2140,37687,0
2104,37693,0
2132,37721,0
2144,37714,0
2144,37726,0
2168,37714,0
2200,37706,0
2218,37716,0
2224,37710,0
2232,37730,0
2232,37708,0
2232,37725,0
2256,37749,0
2208,37748,0
2180,37739,0
2175,37740,0
2144,37751,0
2140,37735,0
2116,37730,0
2122,37755,0
2112,37729,0
2128,37739,0
2128,37761,0
2148,37730,0
2164,37749,0
2210,37771,0
2232,37762,0
2240,37746,0
2244,37775,0
2280,37786,0
2241,37754,0
2237,37758,0
2232,37778,0
2210,37758,0
2200,37755,0
2162,37777,0
2132,37745,0
2118,37770,0
2116,37744,0
2116,37735,0
2116,37753,0
2120,37745,0
2138,37763,0
2156,37768,0
2176,37743,0
2228,37741,0
2216,37750,0
2240,37732,0
2232,37735,0
2240,37742,0
2238,37714,0
2232,37714,0
2200,37742,0
2200,37703,0
2276,37706,0
2148,37738,0
2132,37714,0
2144,37709,0
2132,37704,0
2128,37716,0
2132,37706,0
2128,37696,0
2144,37713,0
2145,37690,0
2178,37693,0
2204,37717,0
2224,37682,0
2240,37692,0
2256,37699,0
2224,37709,0
2232,37697,0
2220,37689,0
2224,37681,0
2208,37658,0
2178,37668,0
2153,37702,0
2136,37671,0
2116,37668,0
2116,37687,0
2120,37693,0
2116,37668,0
2152,37662,0
2136,37678,0
2172,37669,0
2176,37668,0
2200,37683,0
2216,37652,0
2232,37678,0
2238,37693,0
2260,37670,0
2258,37668,0
2256,37689,0
2249,37692,0
2225,37671,0
2180,37663,0
2158,37693,0
2148,37668,0
2136,37668,0
2136,37692,0
2132,37652,0
2114,37683,0
2120,37677,0
2132,37711,0
2154,37697,0
2184,37685,0
2196,37706,0
2224,37670,0
2240,37686,0
2240,37714,0
2248,37686,0
2242,37680,0
2237,37718,0
2220,37717,0
2216,37696,0
2184,37702,0
2176,37715,0
2128,37702,0
2128,37696,0
2106,37719,0
2104,37690,0
2112,37715,0
2140,37726,0
2152,37697,0
2168,37700,0
2198,37742,0
2214,37719,0
2224,37721,0
2226,37748,0
2267,37732,0
2242,37727,0
2256,37742,0
2250,37755,0
2202,37729,0
2177,37742,0
2164,37726,0
2122,37758,0
2108,37685,0
2100,37743,0
2080,37766,0
2100,37756,0
2108,37750,0
2096,37762,0
2104,37774,0
2124,37765,0
2144,37749,0
2185,37778,0
2196,37751,0
2228,37758,0
2232,37778,0
2240,37739,0
2224,37746,0
2228,37769,0
2216,37732,0
2212,37752,0
2194,37771,0
2160,37763,0
2144,37749,0
2138,37760,0
2112,37775,0
2108,37742,0
2116,37752,0
2144,37756,0
2144,37731,0
2160,37732,0
2156,37744,0
2180,37735,0
2192,37759,0
2168,37765,0
2194,37747,0
2192,37747,0
2192,37716,0
2188,37733,0
2162,37759,0
2154,37740,0
2124,37726,0
2118,37756,0
2092,37743,0
2084,37730,0
2080,37730,0
2088,37744,0
2088,37725,0
2096,37721,0
2128,37738,0
2122,37720,0
2144,37720,0
2192,37740,0
2224,37706,0
2216,37726,0
2234,37740,0
2232,37701,0
2216,37720,0
2212,37750,0
2193,37724,0
2165,37733,0
2152,37746,0
2122,37746,0
2089,37731,0
2072,37750,0
2064,37745,0
2108,37737,0
2080,37733,0
2080,37728,0
2088,37750,0
2121,37735,0
2148,37731,0
2162,37750,0
2180,37716,0
2213,37739,0
2216,37747,0
2228,37726,0
2204,37747,0
2244,37764,0
2212,37750,0
2176,37751,0
2138,37749,0
2120,37756,0
2104,37748,0
2112,37763,0
2090,37764,0
2082,37741,0
2120,37756,0
2106,37781,0
2100,37742,0
2125,37753,0
2160,37787,0
2176,37780,0
2208,37768,0
2228,37783,0
2322,37773,0
2228,37771,0
2240,37785,0
2238,37790,0
2240,37789,0
2225,37779,0
2200,37810,0
2182,37798,0
2172,37781,0
2154,37780,0
2161,37807,0
2168,37784,0
2152,37778,0
2176,37801,0
2168,37762,0
2196,37784,0
2192,37795,0
2232,37773,0
2232,37787,0
2248,37807,0
2260,37787,0
2280,37788,0
2272,37816,0
2268,37811,0
2262,37793,0
2234,37790,0
2200,37813,0
2186,37789,0
2176,37795,0
2156,37817,0
2168,37783,0
2132,37711,0
2170,37792,0
2162,37805,0
2180,37795,0
2202,37798,0
2260,37780,0
2250,37779,0
2248,37800,0
2260,37764,0
2260,37778,0
2244,37797,0
2287,37789,0
2272,37776,0
2224,37774,0
2184,37781,0
2168,37759,0
2148,37746,0
2148,37763,0
2144,37735,0
2160,37742,0
2160,37764,0
2168,37718,0
2204,37735,0
2213,37756,0
2234,37717,0
2268,37716,0
2272,37754,0
2262,37741,0
2320,37726,0
2292,37738,0
2336,37739,0
2296,37714,0
2248,37711,0
2226,37723,0
2196,37724,0
2170,37712,0
2156,37711,0
2138,37730,0
2136,37708,0
2136,37713,0
2132,37718,0
2132,37694,0
2176,37693,0
2170,37707,0
2192,37697,0
2224,37693,0
2264,37704,0
2248,37694,0
2264,37702,0
2256,37708,0
2244,37681,0
2260,37695,0
2220,37725,0
2210,37693,0
2208,37710,0
2192,37731,0
2140,37723,0
2164,37707,0
2114,37728,0
2112,37731,0
2128,37716,0
2144,37721,0
2184,37738,0
2196,37725,0
2224,37716,0
2208,37718,0
2250,37703,0
2250,37736,0
2256,37735,0
2256,37739,0
2272,37731,0
2244,37729,0
2252,37750,0
2196,37723,0
2216,37734,0
2156,37761,0
2164,37749,0
2172,37747,0
2120,37781,0
2136,37770,0
2128,37754,0
2120,37773,0
2152,37778,0
2176,37768,0
2192,37767,0
2232,37784,0
2249,37780,0
2258,37774,0
2264,37789,0
2264,37762,0
2240,37794,0
2236,37821,0
2212,37788,0
2181,37803,0
2160,37816,0
2130,37818,0
2098,37817,0
2080,37815,0
2068,37799,0
2058,37813,0
2060,37807,0
2058,37837,0
2076,37793,0
2104,37823,0
2116,37840,0
2140,37810,0
2158,37829,0
2180,37851,0
2196,37835,0
2208,37830,0
2208,37859,0
2233,37860,0
2240,37847,0
2268,37849,0
2232,37868,0
2260,37842,0
2280,37858,0
2346,37882,0
2404,37844,0
2480,37858,0
2562,37892,0
2652,37850,0
2736,37871,0
2845,37901,0
2984,37876,0
3074,37883,0
3216,37912,0
3328,37912,0
3360,37915,0
3432,37903,0
3512,37925,0
3568,37927,0
3600,37920,0
3602,37916,0
3604,37907,0
3568,37902,0
3518,37931,0
3448,37900,0
3360,37919,0
3270,37930,0
3156,37894,0
3122,37927,0
3112,37945,0
2912,37934,0
2814,37926,0
2772,37941,0
2672,37945,0
2600,37931,0
2528,37933,0
2480,37958,0
2425,37925,0
2331,37940,0
2266,37952,0
2216,37921,0
2170,37935,0
2118,37948,0
2083,37952,0
2077,37940,0
2048,37970,0
2032,37949,0
2008,37954,0
2024,37936,0
2020,37946,0
2036,37952,0
2056,37920,0
2072,37966,0
2072,37967,0
2080,37973,0
2080,37989,0
2068,37971,0
2064,37961,0
2047,37984,0
2024,37968,0
2002,37967,0
1960,37996,0
1932,37959,0
1904,37984,0
1904,38002,0
1884,37980,0
1884,37990,0
1884,38014,0
1904,38020,0
1920,37988,0
1936,38019,0
1984,38019,0
2001,37999,0
2000,38006,0
2018,38023,0
2032,37998,0
2034,37999,0
2044,38025,0
2040,38000,0
2024,38026,0
2004,38017,0
1960,38056,0
1944,38047,0
1860,38064,0
1921,38044,0
1908,38047,0
1919,38073,0
1916,38065,0
1929,38058,0
1948,38085,0
1988,38062,0
2004,38064,0
2040,38089,0
2047,38053,0
2080,38069,0
2098,38101,0
2080,38076,0
2068,38090,0
2072,38111,0
2046,38105,0
2048,38093,0
2024,38115,0
2010,38120,0
1992,38088,0
1984,38098,0
1998,38113,0
1972,38093,0
1982,38095,0
1989,38112,0
2009,38089,0
2048,38088,0
2047,38100,0
2072,38110,0
2092,38105,0
2104,38080,0
2106,38089,0
2197,38082,0
2100,38099,0
2088,38069,0
2068,38076,0
2040,38094,0
2044,38076,0
2007,38079,0
1992,38098,0
1992,38092,0
1996,38086,0
1992,38078,0
2017,38102,0
2016,38066,0
2024,38072,0
2052,38091,0
2084,38057,0
2130,38060,0
2140,38084,0
2160,38049,0
2160,38051,0
2160,38087,0
2140,38056,0
2132,38064,0
2118,38078,0
2101,38070,0
2096,38061,0
2028,38071,0
2028,38068,0
2026,38074,0
2038,38070,0
2045,38054,0
2060,38072,0
2082,38083,0
2101,38057,0
2128,38051,0
2148,38085,0
2164,38048,0
2177,38061,0
2196,38073,0
2200,38043,0
2172,38052,0
2176,38079,0
2152,38066,0
2132,38064,0
2100,38092,0
2076,38075,0
2084,38076,0
2080,38081,0
2112,38087,0
2120,38065,0
2088,38073,0
2096,38089,0
2114,38068,0
2132,38071,0
2160,38084,0
2176,38065,0
2208,38069,0
2218,38085,0
2200,38100,0
2184,38082,0
2194,38066,0
2185,38090,0
2168,38099,0
2148,38071,0
2128,38094,0
2112,38068,0
2096,38078,0
2082,38093,0
2080,38068,0
2092,38081,0
2082,38090,0
2096,38074,0
2100,38084,0
2138,38107,0
2152,38088,0
2184,38085,0
2192,38098,0
2210,38103,0
2212,38085,0
2232,38087,0
2226,38095,0
2211,38075,0
2194,38088,0
2162,38105,0
2128,38073,0
2116,38088,0
2112,38106,0
2114,38072,0
2104,38085,0
2112,38103,0
2088,38100,0
2106,38105,0
2128,38089,0
2152,38096,0
2180,38098,0
2216,38080,0
2228,38109,0
2244,38082,0
2240,38088,0
2240,38119,0
2236,38086,0
2230,38108,0
2208,38129,0
2208,38120,0
2144,38097,0
2146,38119,0
2116,38126,0
2112,38110,0
2104,38105,0
2106,38129,0
2174,38111,0
2136,38108,0
2160,38133,0
2176,38102,0
2198,38119,0
2252,38142,0
2232,38118,0
2234,38114,0
2240,38141,0
2232,38148,0
2240,38120,0
2242,38121,0
2196,38104,0
2176,38120,0
2152,38133,0
2136,38140,0
2120,38135,0
2121,38124,0
2112,38144,0
2121,38141,0
2120,38127,0
2132,38135,0
2154,38148,0
2185,38130,0
2204,38130,0
2240,38150,0
2228,38128,0
2280,38128,0
2244,38152,0
2256,38124,0
2226,38128,0
2212,38157,0
2192,38128,0
2192,38144,0
2164,38162,0
2144,38136,0
2129,38141,0
2116,38170,0
2108,38165,0
2104,38148,0
2114,38148,0
2124,38171,0
2160,38149,0
2210,38145,0
2196,38171,0
2209,38160,0
2224,38167,0
2232,38177,0
2240,38168,0
2221,38147,0
2202,38144,0
2216,38176,0
2168,38135,0
2136,38153,0
2112,38182,0
2100,38156,0
2072,38169,0
2084,38185,0
2056,38175,0
2072,38161,0
2047,38177,0
2080,38174,0
2104,38161,0
2128,38167,0
2148,38176,0
2184,38165,0
2208,38155,0
2208,38180,0
2204,38156,0
2220,38172,0
2208,38197,0
2170,38149,0
2149,38171,0
2124,38196,0
2116,38171,0
2092,38179,0
2064,38187,0
2044,38178,0
2056,38173,0
2056,38167,0
2064,38184,0
2074,38177,0
2088,38211,0
2118,38177,0
2128,38185,0
2144,38223,0
2152,38202,0
2188,38197,0
2160,38201,0
2168,38213,0
2160,38200,0
2160,38190,0
2152,38215,0
2112,38196,0
2074,38208,0
2064,38229,0
2058,38185,0
2064,38199,0
2072,38229,0
2085,38206,0
2088,38223,0
2100,38241,0
2112,38239,0
2141,38223,0
2160,38236,0
2177,38242,0
2196,38239,0
2204,38225,0
2184,38228,0
2173,38247,0
2164,38231,0
2145,38268,0
2128,38230,0
2102,38245,0
2084,38242,0
2058,38268,0
2056,38249,0
2062,38244,0
2056,38268,0
2085,38240,0
2064,38244,0
2112,38268,0
2104,38246,0
2168,38264,0
2156,38283,0
2192,38268,0
2212,38263,0
2196,38280,0
2200,38290,0
2224,38265,0
2220,38262,0
2208,38292,0
2181,38278,0
2145,38267,0
2120,38303,0
2114,38281,0
2092,38266,0
2082,38301,0
2096,38269,0
2112,38277,0
2096,38285,0
2110,38290,0
2164,38292,0
2152,38302,0
2176,38327,0
2192,38287,0
2200,38292,0
2204,38308,0
2240,38273,0
2204,38289,0
2160,38322,0
2179,38302,0
2156,38296,0
2160,38316,0
2112,38329,0
2108,38311,0
2088,38301,0
2100,38321,0
2088,38301,0
2076,38296,0
2092,38325,0
2140,38290,0
2152,38287,0
2179,38327,0
2194,38285,0
2210,38306,0
2208,38340,0
2213,38321,0
2202,38310,0
2192,38331,0
2192,38328,0
2176,38312,0
2124,38317,0
2100,38323,0
2074,38320,0
2058,38331,0
2047,38325,0
2047,38349,0
2032,38339,0
2040,38332,0
2056,38354,0
2066,38345,0
2088,38329,0
2120,38346,0
2136,38349,0
2160,38330,0
2160,38329,0
2168,38350,0
2160,38319,0
2168,38337,0
2152,38363,0
2132,38326,0
2112,38348,0
2098,38368,0
2080,38349,0
2061,38358,0
2048,38366,0
2042,38372,0
2032,38347,0
2040,38369,0
2042,38383,0
2048,38359,0
2080,38353,0
2120,38396,0
2140,38371,0
2152,38359,0
2156,38364,0
2160,38382,0
2150,38384,0
2140,38388,0
2122,38372,0
2098,38382,0
2080,38396,0
2044,38368,0
2055,38380,0
2018,38396,0
2028,38373,0
2012,38369,0
2032,38386,0
2020,38354,0
2044,38379,0
2056,38390,0
2082,38354,0
2120,38373,0
2122,38398,0
2128,38357,0
2136,38368,0
2136,38407,0
2130,38385,0
2100,38384,0
2076,38405,0
2066,38398,0
2036,38384,0
2024,38415,0
2009,38411,0
1984,38396,0
1964,38388,0
1984,38398,0
1986,38391,0
2008,38422,0
2017,38396,0
2045,38430,0
2064,38380,0
2088,38391,0
2104,38424,0
2112,38393,0
2112,38402,0
2112,38434,0
2136,38419,0
2098,38423,0
2072,38431,0
2034,38432,0
2028,38428,0
1996,38424,0
1976,38448,0
1970,38435,0
1988,38427,0
1987,38455,0
1992,38425,0
1989,38437,0
2020,38453,0
2036,38424,0
2042,38445,0
2089,38477,0
2074,38457,0
2132,38464,0
2086,38475,0
2074,38470,0
2092,38462,0
2056,38465,0
2032,38485,0
2024,38497,0
1984,38447,0
1960,38467,0
1946,38490,0
1936,38451,0
1938,38472,0
1940,38493,0
1948,38472,0
1958,38476,0
1982,38495,0
1986,38489,0
2020,38485,0
2024,38486,0
2060,38506,0
2046,38482,0
2047,38482,0
2072,38499,0
2060,38473,0
2050,38486,0
2034,38499,0
2012,38473,0
2012,38486,0
1958,38499,0
1946,38473,0
1950,38482,0
1952,38501,0
1960,38476,0
1957,38487,0
1956,38497,0
1982,38500,0
2002,38484,0
2016,38479,0
2040,38499,0
2052,38484,0
2058,38483,0
2058,38503,0
2046,38495,0
2034,38491,0
2024,38517,0
2015,38509,0
1978,38493,0
1968,38499,0
1956,38520,0
1924,38502,0
1908,38485,0
1924,38516,0
1912,38489,0
1920,38499,0
1924,38505,0
1952,38488,0
1976,38499,0
1994,38526,0
2016,38485,0
2024,38503,0
2016,38519,0
2016,38513,0
2042,38506,0
2029,38520,0
2028,38522,0
2000,38506,0
1980,38507,0
1952,38526,0
1932,38534,0
1922,38505,0
1928,38502,0
1924,38525,0
1936,38504,0
1945,38505,0
1960,38531,0
1986,38495,0
2016,38505,0
2044,38529,0
2047,38515,0
2080,38507,0
2068,38542,0
2076,38533,0
2064,38522,0
2056,38516,0
2068,38540,0
1996,38519,0
1968,38517,0
1960,38532,0
1940,38517,0
1932,38516,0
1908,38541,0
1910,38500,0
1912,38534,0
1904,38558,0
1932,38529,0
1958,38530,0
1984,38560,0
2004,38544,0
1994,38529,0
2020,38555,0
2020,38556,0
2022,38575,0
2016,38552,0
2016,38559,0
1996,38539,0
1976,38544,0
1944,38562,0
1920,38532,0
1904,38540,0
1892,38562,0
1908,38534,0
1896,38549,0
1912,38570,0
1908,38545,0
1916,38545,0
1944,38577,0
1968,38562,0
1988,38552,0
2036,38571,0
2040,38575,0
2048,38555,0
2060,38575,0
2038,38586,0
2026,38561,0
2000,38558,0
1968,38588,0
1945,38561,0
1936,38553,0
1888,38589,0
1876,38545,0
1856,38585,0
1849,38587,0
1844,38583,0
1860,38571,0
1852,38563,0
1884,38573,0
1908,38567,0
1930,38586,0
1956,38584,0
1976,38575,0
1992,38571,0
1998,38589,0
1986,38571,0
2000,38574,0
1968,38596,0
1956,38576,0
1928,38573,0
1920,38592,0
1904,38556,0
1896,38577,0
1913,38603,0
1904,38568,0
1896,38578,0
1915,38599,0
1925,38597,0
1952,38586,0
1956,38596,0
1984,38610,0
2000,38592,0
2000,38590,0
2016,38620,0
2016,38596,0
1996,38604,0
1984,38580,0
1972,38612,0
1948,38614,0
1920,38612,0
1888,38626,0
1876,38596,0
1861,38586,0
1848,38620,0
1846,38598,0
1852,38610,0
1864,38635,0
1872,38593,0
1920,38610,0
1936,38633,0
1962,38611,0
1976,38619,0
1996,38641,0
1992,38619,0
2004,38622,0
2000,38648,0
2004,38649,0
1980,38635,0
1958,38658,0
1921,38662,0
1904,38639,0
1858,38641,0
1862,38665,0
1850,38647,0
1828,38634,0
1832,38667,0
1832,38650,0
1860,38649,0
1852,38660,0
1872,38659,0
1868,38649,0
1904,38678,0
1912,38682,0
1906,38675,0
1900,38673,0
1904,38696,0
1892,38674,0
1896,38670,0
1884,38698,0
1836,38676,0
1828,38677,0
1816,38692,0
1814,38664,0
1802,38680,0
1816,38686,0
1828,38671,0
1852,38678,0
1881,38708,0
1940,38698,0
1992,38677,0
2052,38694,0
2096,38698,0
2166,38675,0
2202,38680,0
2286,38699,0
2350,38682,0
2424,38667,0
2512,38696,0
2616,38661,0
2684,38683,0
2760,38671,0
2860,38685,0
2920,38697,0
3000,38654,0
3071,38684,0
3144,38654,0
3208,38662,0
3260,38686,0
3312,38665,0
3355,38660,0
3326,38678,0
3328,38666,0
3232,38665,0
3176,38678,0
3048,38685,0
2968,38673,0
2820,38668,0
2696,38675,0
2616,38665,0
2482,38653,0
2370,38681,0
2258,38667,0
2202,38658,0
2098,38675,0
2032,38649,0
1989,38654,0
1969,38681,0
1962,38645,0
1976,38656,0
1984,38671,0
2028,38661,0
1984,38644,0
2016,38657,0
1978,38665,0
1968,38666,0
1952,38655,0
1920,38690,0
1876,38654,0
1824,38661,0
1785,38681,0
1752,38665,0
1724,38660,0
1702,38684,0
1692,38673,0
1700,38676,0
1688,38679,0
1680,38684,0
1696,38672,0
1722,38681,0
1756,38695,0
1752,38670,0
1768,38667,0
1780,38697,0
1780,38666,0
1806,38672,0
1764,38697,0
1744,38682,0
1716,38678,0
1714,38697,0
1678,38685,0
1664,38682,0
1652,38713,0
1634,38717,0
1637,38696,0
1636,38695,0
1648,38692,0
1668,38694,0
1704,38698,0
1716,38707,0
1742,38718,0
1760,38705,0
1772,38707,0
1784,38729,0
1791,38709,0
1784,38704,0
1776,38726,0
1752,38720,0
1736,38704,0
1704,38739,0
1692,38700,0
1682,38714,0
1680,38735,0
1688,38697,0
1716,38731,0
1733,38745,0
1728,38708,0
1736,38731,0
1762,38754,0
1781,38740,0
1797,38730,0
1828,38753,0
1840,38768,0
1849,38738,0
1846,38745,0
1828,38756,0
1820,38759,0
1802,38764,0
1776,38763,0
1746,38746,0
1724,38761,0
1712,38757,0
1744,38782,0
1714,38754,0
1728,38754,0
1736,38786,0
1769,38749,0
1772,38766,0
1832,38785,0
1848,38753,0
1880,38772,0
1900,38790,0
1924,38762,0
1936,38774,0
1938,38801,0
1936,38803,0
1960,38784,0
1916,38805,0
1892,38802,0
1866,38787,0
1856,38783,0
1830,38807,0
1806,38790,0
1818,38784,0
1808,38816,0
1808,38785,0
1834,38793,0
1832,38793,0
1868,38803,0
1892,38805,0
1920,38829,0
1936,38823,0
1952,38807,0
1976,38815,0
1968,38823,0
1944,38828,0
1934,38816,0
1924,38829,0
1908,38844,0
1884,38816,0
1860,38826,0
1848,38838,0
1844,38828,0
1842,38830,0
1832,38854,0
1852,38825,0
1864,38824,0
1890,38851,0
1936,38824,0
1965,38837,0
1984,38865,0
2036,38845,0
2024,38837,0
2032,38875,0
2024,38868,0
2032,38858,0
2036,38859,0
2032,38877,0
2002,38852,0
1936,38861,0
1928,38861,0
1912,38868,0
1900,38866,0
1892,38883,0
1896,38884,0
1898,38894,0
1912,38862,0
1940,38871,0
1970,38883,0
1996,38869,0
2027,38876,0
2040,38893,0
2064,38870,0
2088,38870,0
2098,38892,0
2064,38869,0
2088,38877,0
2056,38884,0
2004,38856,0
1988,38867,0
1984,38881,0
1978,38850,0
1968,38864,0
1954,38884,0
1966,38859,0
1957,38868,0
1978,38893,0
2014,38857,0
2034,38861,0
2088,38884,0
2106,38871,0
2136,38875,0
2122,38864,0
2128,38845,0
2132,38849,0
2122,38872,0
2116,38847,0
2092,38871,0
2064,38854,0
2032,38852,0
2010,38864,0
2002,38876,0
1995,38845,0
1996,38857,0
2010,38857,0
2002,38839,0
2028,38848,0
2056,38860,0
2088,38836,0
2084,38830,0
2128,38846,0
2128,38829,0
2169,38831,0
2170,38847,0
2170,38812,0
2176,38818,0
2148,38830,0
2120,38798,0
2102,38819,0
2088,38840,0
2067,38804,0
2088,38818,0
2072,38839,0
2036,38834,0
2040,38831,0
2052,38802,0
2069,38815,0
2084,38836,0
2110,38811,0
2132,38804,0
2150,38814,0
2153,38796,0
2168,38802,0
2160,38812,0
2170,38786,0
2162,38800,0
2160,38812,0
2116,38786,0
2098,38797,0
2068,38818,0
2080,38806,0
2036,38795,0
2026,38812,0
2032,38813,0
2056,38798,0
2056,38792,0
2106,38806,0
2104,38791,0
2117,38792,0
2132,38804,0
2145,38787,0
2176,38778,0
2170,38807,0
2178,38766,0
2180,38796,0
2156,38825,0
2132,38817,0
2112,38794,0
2080,38801,0
2056,38811,0
2047,38801,0
2020,38792,0
2016,38798,0
2010,38812,0
2016,38789,0
2022,38799,0
2032,38812,0
2040,38798,0
2092,38795,0
2104,38812,0
2128,38794,0
2128,38797,0
2140,38806,0
2128,38788,0
2128,38790,0
2112,38812,0
2120,38781,0
2082,38784,0
2056,38810,0
2028,38775,0
2010,38784,0
1990,38805,0
1980,38774,0
2010,38796,0
1988,38813,0
2032,38778,0
2024,38818,0
2065,38797,0
2072,38811,0
2080,38817,0
2092,38808,0
2140,38793,0
2089,38794,0
2092,38817,0
2082,38783,0
2066,38795,0
2036,38820,0
2020,38777,0
1992,38808,0
1996,38820,0
1960,38790,0
1968,38803,0
1968,38823,0
1986,38804,0
2016,38825,0
2000,38831,0
2034,38808,0
2060,38812,0
2081,38832,0
2100,38807,0
2132,38816,0
2124,38837,0
2116,38843,0
2106,38825,0
2109,38845,0
2084,38847,0
2088,38825,0
2074,38815,0
1996,38818,0
1982,38825,0
1976,38832,0
1960,38848,0
1968,38822,0
1960,38852,0
1968,38836,0
1982,38842,0
2000,38864,0
2028,38853,0
2052,38829,0
2079,38843,0
2088,38859,0
2108,38843,0
2100,38839,0
2108,38860,0
2096,38833,0
2100,38830,0
2068,38860,0
2046,38842,0
2032,38838,0
2016,38865,0
2012,38839,0
2005,38838,0
2000,38868,0
2004,38834,0
1996,38845,0
2010,38872,0
2040,38835,0
2054,38857,0
2080,38876,0
2104,38865,0
2104,38864,0
2116,38849,0
2120,38875,0
2138,38851,0
2100,38860,0
2084,38853,0
2068,38882,0
2038,38876,0
2020,38872,0
2008,38872,0
1996,38880,0
2002,38857,0
1992,38862,0
2016,38875,0
2008,38862,0
2032,38858,0
2032,38869,0
2072,38842,0
2112,38863,0
2137,38877,0
2144,38843,0
2164,38843,0
2155,38873,0
2176,38863,0
2149,38851,0
2129,38861,0
2120,38872,0
2064,38845,0
2038,38853,0
2024,38858,0
2026,38843,0
2020,38850,0
2028,38861,0
2002,38886,0
2020,38867,0
2038,38833,0
2057,38842,0
2092,38854,0
2112,38831,0
2124,38839,0
2168,38864,0
2144,38831,0
2140,38831,0
2149,38867,0
2138,38844,0
2138,38843,0
2096,38869,0
2080,38856,0
2044,38852,0
2034,38858,0
2016,38863,0
2016,38850,0
2016,38870,0
2040,38881,0
2048,38843,0
2076,38856,0
2092,38871,0
2164,38859,0
2152,38853,0
2153,38879,0
2181,38843,0
2177,38849,0
2196,38872,0
2192,38850,0
2156,38883,0
2140,38883,0
2104,38860,0
2084,38866,0
2064,38874,0
2047,38871,0
2038,38894,0
2036,38849,0
2036,38876,0
2032,38891,0
2044,38870,0
2070,38880,0
2104,38901,0
2128,38900,0
2132,38888,0
2160,38908,0
2160,38917,0
2176,38897,0
2160,38896,0
2152,38914,0
2144,38910,0
2152,38894,0
2130,38927,0
2112,38908,0
2076,38900,0
2066,38919,0
2054,38886,0
2057,38911,0
2074,38924,0
2037,38898,0
2096,38908,0
2080,38923,0
2084,38917,0
2120,38924,0
2144,38904,0
2164,38913,0
2184,38930,0
2216,38922,0
2200,38900,0
2196,38910,0
2192,38935,0
2184,38893,0
2144,38909,0
2138,38929,0
2096,38897,0
2096,38916,0
2064,38944,0
2072,38933,0
2058,38922,0
2064,38951,0
2072,38941,0
2100,38914,0
2120,38943,0
2152,38941,0
2184,38933,0
2194,38935,0
2210,38948,0
2221,38935,0
2209,38930,0
2208,38949,0
2214,38938,0
2189,38935,0
2184,38953,0
2152,38939,0
2112,38970,0
2090,38964,0
2076,38969,0
2076,38957,0
2064,38956,0
2060,38933,0
2072,38938,0
2096,38962,0
2120,38939,0
2149,38944,0
2170,38973,0
2194,38962,0
2196,38952,0
2264,38967,0
2220,38967,0
2229,38956,0
2208,38988,0
2196,38964,0
2160,38965,0
2136,38987,0
2116,38981,0
2128,38971,0
2106,38970,0
2104,38979,0
2104,38964,0
2104,38960,0
2101,38983,0
2144,38973,0
2182,38966,0
2172,38985,0
2202,38966,0
2216,38971,0
2208,38993,0
2234,38974,0
2210,38974,0
2210,38972,0
2200,39008,0
2176,38970,0
2152,38999,0
2132,39011,0
2136,38979,0
2104,38983,0
2128,39004,0
2101,38998,0
2084,38989,0
2104,39014,0
2104,39016,0
2128,38987,0
2140,38993,0
2176,39008,0
2184,38995,0
2212,38996,0
2204,39015,0
2228,38997,0
2244,38989,0
2244,39011,0
2212,38987,0
2192,38989,0
2152,39011,0
2124,38981,0
2116,38984,0
2102,39012,0
2112,38998,0
2104,38989,0
2090,38984,0
2106,39011,0
2116,39011,0
2148,39000,0
2178,39011,0
2204,38991,0
2224,38989,0
2268,39010,0
2244,38990,0
2248,38980,0
2236,39005,0
2250,38971,0
2220,38977,0
2216,38991,0
2172,38970,0
2168,38973,0
2140,38993,0
2136,38965,0
2112,38980,0
2112,39000,0
2120,38955,0
2148,38982,0
2161,39013,0
2186,38987,0
2212,38976,0
2241,38990,0
2248,38994,0
2260,38978,0
2281,38990,0
2272,38994,0
2272,38966,0
2228,39032,0
2202,38989,0
2168,38982,0
2152,38978,0
2128,38981,0
2112,39000,0
2096,38989,0
2092,38984,0
2104,39005,0
2100,38998,0
2124,38983,0
2133,38995,0
2140,39008,0
2184,38981,0
2188,38989,0
2216,39011,0
2212,38991,0
2232,38987,0
2224,39009,0
2224,38988,0
2240,38978,0
2214,39009,0
2192,38976,0
2164,38983,0
2144,39004,0
2128,38968,0
2112,38992,0
2108,39003,0
2109,38980,0
2102,38991,0
2128,39015,0
2136,38989,0
2148,39032,0
2174,39018,0
2194,39022,0
2232,38995,0
2220,38996,0
2252,39008,0
2220,39017,0
2196,39005,0
2232,39028,0
2192,39003,0
2160,39003,0
2141,39035,0
2120,38997,0
2112,39013,0
2096,39035,0
2100,38997,0
2084,39013,0
2098,39043,0
2100,39032,0
2112,39025,0
2144,39039,0
2184,39035,0
2204,39031,0
2217,39045,0
2219,39053,0
2224,39034,0
2208,39047,0
2208,39059,0
2201,39043,0
2172,39043,0
2176,39063,0
2149,39048,0
2112,39038,0
2060,39059,0
2090,39072,0
2088,39070,0
2128,39076,0
2098,39081,0
2112,39073,0
2132,39071,0
2156,39096,0
2177,39081,0
2196,39069,0
2249,39094,0
2220,39058,0
2248,39073,0
2224,39102,0
2217,39070,0
2192,39078,0
2176,39095,0
2156,39059,0
2132,39083,0
2096,39106,0
2088,39075,0
2100,39080,0
2088,39110,0
2090,39100,0
2098,39096,0
2088,39118,0
2109,39100,0
2170,39110,0
2154,39133,0
2192,39129,0
2188,39109,0
2176,39132,0
2164,39140,0
2156,39119,0
2136,39112,0
2124,39123,0
2088,39119,0
2056,39126,0
2028,39142,0
2009,39130,0
1996,39129,0
2000,39139,0
2009,39151,0
2016,39131,0
2080,39139,0
2080,39157,0
2136,39139,0
2176,39138,0
2240,39163,0
2282,39122,0
2320,39138,0
2356,39166,0
2432,39132,0
2477,39151,0
2522,39171,0
2572,39141,0
2628,39152,0
2642,39176,0
2704,39170,0
2776,39154,0
2832,39177,0
2944,39186,0
3024,39167,0
3068,39164,0
3146,39165,0
3232,39187,0
3352,39193,0
3404,39171,0
3452,39185,0
3536,39181,0
3540,39178,0
3552,39185,0
3524,39174,0
3484,39170,0
3414,39204,0
3304,39170,0
3216,39181,0
3060,39197,0
2944,39172,0
2804,39189,0
2720,39197,0
2592,39166,0
2496,39184,0
2416,39209,0
2372,39178,0
2320,39191,0
2277,39206,0
2264,39190,0
2240,39178,0
2226,39206,0
2212,39190,0
2221,39177,0
2217,39201,0
2224,39197,0
2208,39174,0
2180,39164,0
2148,39161,0
2112,39158,0
2076,39167,0
2046,39171,0
2020,39182,0
2000,39157,0
1972,39159,0
1968,39170,0
1952,39148,0
1956,39165,0
1972,39176,0
1980,39145,0
2008,39149,0
2000,39166,0
2016,39143,0
2028,39140,0
2010,39147,0
2010,39132,0
1972,39125,0
1968,39162,0
1956,39126,0
1922,39124,0
1902,39141,0
1880,39125,0
1882,39123,0
1872,39147,0
1867,39115,0
1900,39112,0
1894,39142,0
1924,39097,0
1952,39111,0
1976,39102,0
1993,39106,0
2028,39118,0
2038,39109,0
2040,39161,0
2044,39109,0
2047,39103,0
2032,39117,0
2008,39087,0
1992,39094,0
1962,39125,0
1952,39084,0
1944,39087,0
1938,39111,0
1932,39088,0
1940,39093,0
1941,39113,0
1980,39080,0
1958,39090,0
1994,39117,0
2024,39088,0
2056,39096,0
2088,39128,0
2096,39088,0
2104,39095,0
2105,39121,0
2092,39106,0
2080,39098,0
2072,39124,0
2038,39123,0
2028,39110,0
2020,39125,0
1976,39128,0
1980,39115,0
1952,39108,0
1956,39098,0
1962,39121,0
1976,39109,0
1994,39127,0
2016,39128,0
2044,39113,0
2096,39122,0
2088,39137,0
2141,39109,0
2112,39114,0
2168,39132,0
2128,39114,0
2128,39116,0
2108,39130,0
2112,39111,0
2084,39095,0
2040,39113,0
2024,39100,0
2052,39105,0
2038,39122,0
2032,39081,0
2032,39103,0
2049,39125,0
2058,39115,0
2072,39110,0
2114,39123,0
2118,39126,0
2148,39112,0
2148,39098,0
2144,39114,0
2132,39123,0
2128,39120,0
2120,39117,0
2096,39114,0
2068,39120,0
2047,39127,0
2026,39100,0
2018,39106,0
2018,39122,0
2052,39087,0
2024,39097,0
2098,39125,0
2072,39084,0
2124,39097,0
2138,39112,0
2176,39077,0
2200,39095,0
2204,39112,0
2232,39092,0
2230,39103,0
2228,39125,0
2232,39115,0
2204,39099,0
2197,39120,0
2136,39114,0
2098,39104,0
2124,39107,0
2074,39127,0
2088,39092,0
2073,39091,0
2072,39065,0
2076,39120,0
2104,39102,0
2128,39098,0
2180,39083,0
2180,39080,0
2208,39074,0
2226,39113,0
2228,39086,0
2244,39085,0
2232,39105,0
2232,39107,0
2210,39090,0
2208,39086,0
2170,39100,0
2156,39091,0
2136,39092,0
2138,39099,0
2128,39081,0
2130,39086,0
2148,39096,0
2180,39068,0
2180,39073,0
2208,39093,0
2232,39067,0
2266,39056,0
2257,39090,0
2302,39056,0
2297,39064,0
2292,39082,0
2304,39064,0
2304,39064,0
2252,39065,0
2230,39078,0
2200,39055,0
2184,39053,0
2168,39063,0
2188,39054,0
2148,39079,0
2161,39069,0
2168,39050,0
2180,39066,0
2200,39061,0
2229,39045,0
2248,39054,0
2320,39065,0
2290,39043,0
2312,39047,0
2332,39063,0
2324,39043,0
2312,39029,0
2300,39048,0
2272,39029,0
2280,39021,0
2244,39042,0
2218,39031,0
2208,39021,0
2201,39043,0
2184,39006,0
2178,39025,0
2216,39032,0
2194,38994,0
2240,39020,0
2276,39030,0
2280,39046,0
2303,39018,0
2332,39016,0
2340,39009,0
2340,39007,0
2336,39005,0
2336,39008,0
2308,39024,0
2296,38997,0
2304,39006,0
2244,39028,0
2232,38988,0
2208,39001,0
2216,39022,0
2196,39009,0
2212,39010,0
2208,39018,0
2224,39018,0
2236,39001,0
2290,39023,0
2284,39022,0
2340,39001,0
2340,38998,0
2348,39020,0
2369,38998,0
2362,38987,0
2332,39010,0
2322,38981,0
2293,39003,0
2270,39016,0
2256,38987,0
2240,39006,0
2220,39027,0
2180,39010,0
2184,39014,0
2154,39028,0
2172,39006,0
2188,39003,0
2200,39002,0
2226,39019,0
2228,39004,0
2277,39005,0
2260,39025,0
2284,38997,0
2276,39007,0
2288,39022,0
2256,38984,0
2252,39002,0
2212,39026,0
2200,39011,0
2160,39001,0
2128,39020,0
2148,39029,0
2164,39012,0
2136,39018,0
2144,39027,0
2144,39000,0
2157,39010,0
2160,39018,0
2194,39011,0
2230,38995,0
2236,39030,0
2296,39003,0
2272,38993,0
2260,38999,0
2252,39003,0
2240,38998,0
2228,38994,0
2200,38993,0
2168,38993,0
2148,39018,0
2124,38993,0
2112,39006,0
2100,39009,0
2090,39021,0
2106,39009,0
2104,39005,0
2138,39022,0
2136,38999,0
2172,38992,0
2192,39019,0
2216,38992,0
2248,38989,0
2232,39013,0
2234,38995,0
2268,39004,0
2256,39005,0
2256,38983,0
2226,38995,0
2208,39023,0
2168,39000,0
2168,38997,0
2146,39019,0
2128,39011,0
2148,38993,0
2144,39007,0
2136,39000,0
2136,39020,0
2168,39000,0
2174,39031,0
2208,38994,0
2220,38991,0
2236,39011,0
2244,39002,0
2250,38995,0
2260,38993,0
2240,39008,0
2236,38991,0
2220,38986,0
2208,38997,0
2176,38980,0
2170,38972,0
2140,38990,0
2180,38972,0
2128,38977,0
2136,38996,0
2140,38964,0
2176,38960,0
2194,38990,0
2208,38959,0
2228,38968,0
2256,38981,0
2256,38961,0
2284,38968,0
2268,38987,0
2265,38947,0
2276,38960,0
2266,38989,0
2244,38979,0
2194,38957,0
2172,38968,0
2160,38963,0
2137,38967,0
2132,38974,0
2144,38956,0
2138,38978,0
2144,38973,0
2154,38954,0
2174,38947,0
2200,38988,0
2216,38955,0
2248,38947,0
2256,38967,0
2280,38944,0
2266,38953,0
2280,38960,0
2268,38939,0
2256,38944,0
2240,38956,0
2232,38921,0
2216,38930,0
2194,38957,0
2180,38913,0
2172,38928,0
2152,38948,0
2160,38929,0
2168,38925,0
2181,38947,0
2224,38914,0
2253,38905,0
2248,38921,0
2264,38917,0
2280,38912,0
2282,38889,0
2276,38912,0
2288,38887,0
2280,38875,0
2264,38894,0
2240,38868,0
2217,38873,0
2200,38896,0
2180,38857,0
2168,38863,0
2176,38879,0
2148,38850,0
2168,38859,0
2156,38870,0
2178,38829,0
2196,38846,0
2212,38871,0
2232,38841,0
2268,38848,0
2288,38866,0
2308,38859,0
2296,38848,0
2308,38859,0
2280,38854,0
2260,38842,0
2260,38853,0
2236,38859,0
2240,38840,0
2172,38819,0
2172,38830,0
2168,38847,0
2174,38864,0
2208,38831,0
2188,38842,0
2210,38839,0
2240,38839,0
2256,38829,0
2268,38830,0
2288,38847,0
2286,38828,0
2280,38830,0
2292,38854,0
2260,38814,0
2256,38823,0
2228,38848,0
2196,38807,0
2192,38822,0
2172,38840,0
2184,38817,0
2194,38820,0
2188,38848,0
2196,38820,0
2200,38814,0
2209,38837,0
2224,38842,0
2248,38816,0
2274,38818,0
2283,38840,0
2304,38820,0
2320,38820,0
2300,38807,0
2281,38841,0
2280,38833,0
2264,38816,0
2252,38808,0
2212,38799,0
2192,38812,0
2176,38844,0
2170,38813,0
2157,38820,0
2157,38836,0
2176,38829,0
2168,38812,0
2200,38825,0
2208,38826,0
2240,38806,0
2256,38819,0
2284,38830,0
2316,38812,0
2296,38813,0
2308,38821,0
2352,38796,0
2320,38812,0
2304,38828,0
2280,38784,0
2257,38803,0
2212,38823,0
2204,38795,0
2198,38796,0
2178,38827,0
2200,38811,0
2192,38802,0
2192,38807,0
2186,38812,0
2216,38803,0
2236,38826,0
2260,38800,0
2268,38826,0
2296,38794,0
2298,38810,0
2268,38823,0
2280,38789,0
2265,38799,0
2260,38827,0
2224,38793,0
2217,38810,0
2184,38823,0
2178,38799,0
2156,38816,0
2170,38832,0
2144,38808,0
2160,38812,0
2161,38837,0
2208,38822,0
2232,38819,0
2256,38845,0
2309,38832,0
2304,38824,0
2292,38849,0
2332,38839,0
2308,38823,0
2320,38854,0
2320,38847,0
2298,38837,0
2252,38844,0
2224,38842,0
2196,38845,0
2202,38841,0
2170,38840,0
2165,38865,0
2160,38841,0
2148,38866,0
2156,38866,0
2176,38843,0
2208,38852,0
2242,38873,0
2260,38853,0
2302,38870,0
2292,38873,0
2312,38857,0
2308,38867,0
2322,38871,0
2292,38862,0
2280,38864,0
2260,38885,0
2256,38866,0
2234,38857,0
2210,38880,0
2194,38867,0
2224,38866,0
2162,38895,0
2164,38876,0
2176,38875,0
2184,38895,0
2228,38873,0
2256,38870,0
2258,38886,0
2280,38894,0
2292,38889,0
2296,38894,0
2312,38879,0
2302,38898,0
2292,38877,0
2264,38890,0
2244,38908,0
2220,38884,0
2194,38896,0
2188,38911,0
2164,38887,0
2181,38891,0
2160,38907,0
2176,38879,0
2172,38897,0
2192,38916,0
2202,38886,0
2220,38890,0
2256,38923,0
2276,38893,0
2288,38895,0
2304,38915,0
2298,38891,0
2297,38897,0
2274,38919,0
2264,38880,0
2260,38895,0
2240,38919,0
2240,38891,0
2240,38901,0
2208,38912,0
2220,38902,0
2228,38906,0
2234,38927,0
2228,38909,0
2245,38906,0
2302,38929,0
2298,38917,0
2340,38912,0
2322,38921,0
2328,38906,0
2343,38907,0
2364,38914,0
2336,38903,0
2316,38896,0
2313,38924,0
2280,38893,0
2276,38900,0
2244,38922,0
2232,38879,0
2220,38906,0
2236,38913,0
2240,38871,0
2244,38906,0
2258,38926,0
2260,38880,0
2296,38891,0
2284,38922,0
2306,38872,0
2312,38889,0
2368,38909,0
2340,38873,0
2329,38908,0
2303,38905,0
2296,38888,0
2280,38896,0
2272,38892,0
2240,38910,0
2220,38874,0
2200,38897,0
2200,38915,0
2204,38875,0
2196,38894,0
2223,38925,0
2248,38887,0
2256,38901,0
2288,38924,0
2308,38891,0
2308,38903,0
2336,38926,0
2324,38897,0
2328,38906,0
2324,38929,0
2336,38917,0
2346,38906,0
2312,38920,0
2296,38922,0
2256,38909,0
2208,38925,0
2192,38926,0
2188,38904,0
2181,38924,0
2196,38927,0
2201,38909,0
2180,38915,0
2209,38914,0
2228,38923,0
2260,38919,0
2272,38904,0
2300,38927,0
2308,38893,0
2313,38900,0
2344,38921,0
2320,38897,0
2312,38896,0
2300,38919,0
2260,38900,0
2248,38895,0
2216,38923,0
2208,38917,0
2200,38902,0
2208,38904,0
2192,38922,0
2196,38906,0
2208,38909,0
2244,38922,0
2277,38910,0
2288,38899,0
2313,38921,0
2321,38901,0
2324,38891,0
2320,38906,0
2328,38894,0
2312,38889,0
2320,38909,0
2297,38893,0
2252,38901,0
2228,38885,0
2212,38893,0
2188,38894,0
2188,38897,0
2182,38896,0
2184,38914,0
2196,38897,0
2200,38894,0
2216,38915,0
2248,38899,0
2296,38902,0
2298,38918,0
2336,38901,0
2320,38900,0
2332,38926,0
2320,38906,0
2320,38903,0
2308,38923,0
2288,38908,0
2260,38902,0
2264,38923,0
2244,38901,0
2228,38901,0
2209,38921,0
2194,38901,0
2178,38916,0
2176,38927,0
2184,38898,0
2194,38900,0
2216,38925,0
2232,38999,0
2236,38929,0
2240,38925,0
2264,38909,0
2240,38918,0
2234,38943,0
2232,38924,0
2212,38926,0
2196,38948,0
2186,38927,0
2184,38924,0
2183,38949,0
2200,38937,0
2240,38936,0
2248,38950,0
2292,38948,0
2320,38940,0
2420,38939,0
2432,38952,0
2504,38937,0
2624,38940,0
2704,38964,0
2788,38951,0
2873,38942,0
2953,38963,0
3032,38945,0
3080,38945,0
3144,38971,0
3216,38951,0
3277,38958,0
3376,38982,0
3456,38952,0
3460,38999,0
3504,38979,0
3604,38977,0
3600,38962,0
3652,38973,0
3620,38999,0
3600,38971,0
3576,38995,0
3512,38990,0
3424,38972,0
3316,39011,0
3230,39001,0
3112,38988,0
3040,38999,0
2900,39015,0
2832,38987,0
2680,38987,0
2584,39002,0
2472,38991,0
2400,38989,0
2336,39008,0
2308,38993,0
2272,38993,0
2241,39012,0
2234,38992,0
2236,38991,0
2268,39012,0
2240,38988,0
2256,39004,0
2246,39011,0
2264,38978,0
2252,38995,0
2208,39001,0
2180,39005,0
2160,39002,0
2121,39005,0
2088,39027,0
2056,39000,0
2036,38993,0
2008,39011,0
2008,38990,0
1994,39002,0
1992,39026,0
2000,38981,0
2000,39001,0
2032,39019,0
2047,38983,0
2080,39010,0
2120,39027,0
2116,39007,0
2112,39009,0
2112,39026,0
2108,39016,0
2128,39017,0
2117,39028,0
2096,39029,0
2074,39008,0
2060,39021,0
2058,39034,0
2030,39017,0
2032,39020,0
2019,39031,0
2040,39008,0
2042,39012,0
2068,39011,0
2054,39016,0
2084,39049,0
2100,39024,0
2164,39044,0
2152,39034,0
2152,39020,0
2132,39012,0
2192,39039,0
2164,39035,0
2144,39022,0
2139,39045,0
2120,39026,0
2112,39017,0
2124,39038,0
2096,39045,0
2076,39022,0
2092,39035,0
2108,39047,0
2096,39027,0
2112,39030,0
2146,39043,0
2177,39032,0
2197,39034,0
2204,39050,0
2224,39028,0
2212,39022,0
2213,39049,0
2216,39029,0
2200,39026,0
2228,39046,0
2176,39022,0
2132,39031,0
2108,39042,0
2100,39050,0
2096,39037,0
2100,39017,0
2096,39031,0
2112,39067,0
2114,39042,0
2138,39042,0
2162,39066,0
2188,39038,0
2219,39043,0
2232,39061,0
2256,39034,0
2248,39037,0
2288,39079,0
2248,39061,0
2256,39045,0
2216,39069,0
2196,39059,0
2164,39042,0
2168,39068,0
2156,39069,0
2134,39051,0
2137,39061,0
2136,39074,0
2120,39043,0
2136,39054,0
2154,39068,0
2181,39045,0
2216,39042,0
2249,39060,0
2242,39021,0
2268,39060,0
2272,39070,0
2274,39072,0
2288,39057,0
2264,39065,0
2248,39073,0
2256,39045,0
2200,39065,0
2192,39073,0
2164,39049,0
2163,39066,0
2152,39071,0
2168,39054,0
2160,39068,0
2176,39068,0
2192,39057,0
2224,39052,0
2236,39069,0
2258,39050,0
2268,39058,0
2312,39077,0
2306,39047,0
2312,39052,0
2312,39075,0
2304,39048,0
2272,39068,0
2244,39067,0
2227,39049,0
2205,39058,0
2200,39070,0
2200,39050,0
2168,39041,0
2172,39021,0
2184,39054,0
2192,39052,0
2204,39061,0
2241,39042,0
2252,39046,0
2272,39058,0
2312,39045,0
2312,39046,0
2302,39064,0
2316,39038,0
2296,39047,0
2298,39059,0
2264,39030,0
2252,39034,0
2220,39051,0
2208,39025,0
2204,39040,0
2176,39055,0
2180,39027,0
2202,39027,0
2213,39055,0
2248,39038,0
2232,39030,0
2278,39052,0
2268,39025,0
2321,39035,0
2316,39050,0
2325,39035,0
2360,39031,0
2353,39057,0
2328,39021,0
2316,39026,0
2324,39016,0
2284,39066,0
2258,39066,0
2228,39005,0
2212,39025,0
2206,39040,0
2204,39009,0
2204,39029,0
2212,39044,0
2260,39016,0
2248,39023,0
2280,39040,0
2296,39006,0
2321,39025,0
2324,39041,0
2344,39006,0
2340,39029,0
2368,39037,0
2344,39003,0
2348,39020,0
2320,39049,0
2298,39009,0
2262,39032,0
2248,39049,0
2216,39016,0
2204,39025,0
2216,39050,0
2205,39010,0
2224,39021,0
2240,39040,0
2236,39032,0
2264,39040,0
2280,39041,0
2332,39030,0
2316,39024,0
2336,39046,0
2340,39019,0
2344,39029,0
2336,39044,0
2328,39029,0
2324,39025,0
2316,39043,0
2284,39021,0
2280,39018,0
2256,39042,0
2260,39021,0
2242,39019,0
2249,39041,0
2244,39029,0
2272,39029,0
2250,39038,0
2316,39017,0
2316,39022,0
2338,39045,0
2349,39024,0
2353,39022,0
2340,39034,0
2344,39012,0
2341,39013,0
2320,39038,0
2320,39012,0
2248,38987,0
2238,39014,0
2216,39016,0
2210,39017,0
2232,39002,0
2200,39030,0
2208,39010,0
2212,39013,0
2232,39028,0
2248,39003,0
2268,39001,0
2299,39026,0
2300,39003,0
2316,38998,0
2302,39028,0
2312,39009,0
2296,39004,0
2296,39021,0
2272,39006,0
2248,39000,0
2256,39016,0
2225,39000,0
2212,38995,0
2210,39013,0
2208,38999,0
2220,38987,0
2200,39004,0
2216,38986,0
2242,38996,0
2256,39019,0
2292,38975,0
2314,38988,0
2292,38987,0
2302,39001,0
2302,39009,0
2302,39010,0
2296,39008,0
2276,38985,0
2256,38994,0
2253,39004,0
2204,38986,0
2184,38988,0
2172,39011,0
2172,38996,0
2160,38996,0
2176,38989,0
2180,38985,0
2204,38982,0
2210,39003,0
2250,38985,0
2376,38985,0
2268,39006,0
2288,38975,0
2324,38980,0
2320,38998,0
2352,38979,0
2340,38980,0
2304,39004,0
2264,38981,0
2240,38987,0
2225,38999,0
2212,38982,0
2220,38983,0
2210,38999,0
2192,39031,0
2200,39014,0
2200,38989,0
2210,38985,0
2232,38990,0
2256,39004,0
2276,38996,0
2296,38990,0
2289,39010,0
2302,38998,0
2324,38994,0
2312,38993,0
2298,39013,0
2304,38999,0
2272,38983,0
2236,39005,0
2220,38991,0
2208,38991,0
2192,39016,0
2180,38978,0
2176,38989,0
2194,39015,0
2200,38998,0
2201,38992,0
2220,39015,0
2264,38987,0
2256,39004,0
2282,39020,0
2305,38972,0
2308,38999,0
2336,39017,0
2324,38988,0
2288,39009,0
2276,38988,0
2258,39003,0
2236,39006,0
2212,39018,0
2197,39010,0
2172,38986,0
2168,38992,0
2184,39009,0
2164,38977,0
2168,38998,0
2191,39014,0
2200,38977,0
2232,38986,0
2236,39008,0
2264,38973,0
2264,38985,0
2288,39005,0
2274,38972,0
2284,38993,0
2268,39011,0
2284,38971,0
2262,38987,0
2248,39010,0
2224,38970,0
2208,38983,0
2184,39006,0
2188,38977,0
2208,38982,0
2202,39009,0
2216,38983,0
2240,38989,0
2240,38991,0
2290,38998,0
2316,38981,0
2296,39004,0
2332,39011,0
2300,38996,0
2298,39020,0
2300,39007,0
2292,39000,0
2266,39004,0
2272,39013,0
2256,38996,0
2184,39025,0
2192,39019,0
2156,39009,0
2164,39033,0
2144,39014,0
2185,39004,0
2160,39034,0
2192,38997,0
2208,39012,0
2240,39037,0
2264,39019,0
2284,39012,0
2308,39034,0
2313,39025,0
2300,39013,0
2296,39049,0
2293,39026,0
2297,39013,0
2292,39043,0
2250,39027,0
2204,39014,0
2188,39028,0
2176,39026,0
2152,39031,0
2162,39035,0
2170,39042,0
2184,39042,0
2194,39068,0
2216,39061,0
2240,39045,0
2272,39057,0
2300,39065,0
2288,39046,0
2324,39063,0
2324,39074,0
2336,39049,0
2308,39064,0
2296,39085,0
2272,39059,0
2256,39067,0
2232,39081,0
2228,39064,0
2224,39065,0
2210,39080,0
2208,39051,0
2202,39068,0
2192,39091,0
2204,39076,0
2242,39068,0
2261,39095,0
2298,39074,0
2313,39075,0
2302,39075,0
2309,39079,0
2308,39080,0
2308,39092,0
2300,39105,0
2292,39079,0
2264,39103,0
2242,39077,0
2216,39083,0
2204,39115,0
2192,39081,0
2189,39087,0
2192,39111,0
2232,39081,0
2204,39093,0
2224,39121,0
2232,39107,0
2272,39106,0
2282,39125,0
2298,39111,0
2296,39094,0
2320,39115,0
2346,39124,0
2332,39107,0
2292,39126,0
2272,39123,0
2236,39106,0
2212,39125,0
2198,39124,0
2212,39118,0
2184,39124,0
2180,39125,0
2258,39117,0
2190,39152,0
2176,39103,0
2200,39140,0
2208,39122,0
2232,39139,0
2260,39129,0
2272,39131,0
2284,39156,0
2296,39126,0
2296,39125,0
2292,39154,0
2280,39134,0
2288,39146,0
2240,39161,0
2220,39138,0
2196,39149,0
2192,39162,0
2160,39156,0
2162,39144,0
2152,39178,0
2178,39157,0
2178,39158,0
2204,39176,0
2228,39159,0
2258,39167,0
2264,39190,0
2284,39172,0
2298,39173,0
2296,39190,0
2308,39182,0
2298,39176,0
2300,39193,0
2252,39184,0
2224,39173,0
2198,39208,0
2172,39173,0
2152,39188,0
2138,39205,0
2136,39180,0
2128,39193,0
2132,39216,0
2128,39189,0
2157,39208,0
2165,39221,0
2208,39181,0
2220,39208,0
2244,39228,0
2252,39228,0
2276,39205,0
2268,39241,0
2276,39235,0
2272,39222,0
2276,39240,0
2242,39236,0
2224,39228,0
2200,39246,0
2209,39257,0
2186,39228,0
2153,39230,0
2168,39257,0
2164,39244,0
2192,39240,0
2204,39307,0
2260,39270,0
2256,39247,0
2282,39247,0
2296,39255,0
2298,39251,0
2290,39266,0
2292,39232,0
2284,39257,0
2262,39265,0
2232,39239,0
2218,39256,0
2196,39275,0
2200,39249,0
2184,39270,0
2192,39282,0
2172,39272,0
2200,39274,0
2200,39299,0
2226,39279,0
2264,39276,0
2304,39294,0
2306,39292,0
2344,39275,0
2332,39309,0
2344,39297,0
2316,39282,0
2312,39289,0
2302,39308,0
2288,39287,0
2272,39306,0
2244,39316,0
2204,39307,0
2184,39290,0
2164,39285,0
2164,39298,0
2160,39311,0
2172,39303,0
2180,39313,0
2192,39290,0
2224,39296,0
2236,39309,0
2268,39285,0
2288,39304,0
2284,39333,0
2344,39290,0
2292,39302,0
2304,39328,0
2282,39295,0
2264,39317,0
2236,39335,0
2212,39296,0
2188,39308,0
2200,39350,0
2192,39311,0
2186,39319,0
2188,39352,0
2188,39318,0
2188,39327,0
2200,39345,0
2257,39347,0
2241,39328,0
2288,39345,0
2312,39352,0
2280,39334,0
2282,39337,0
2276,39359,0
2276,39354,0
2268,39340,0
2244,39357,0
2220,39356,0
2196,39339,0
2174,39367,0
2160,39366,0
2152,39353,0
2163,39364,0
2148,39369,0
2172,39345,0
2160,39363,0
2192,39380,0
2200,39361,0
2240,39368,0
2248,39374,0
2296,39359,0
2276,39379,0
2312,39389,0
2312,39364,0
2308,39368,0
2293,39390,0
2266,39377,0
2224,39369,0
2196,39388,0
2181,39375,0
2156,39381,0
2160,39406,0
2157,39383,0
2136,39401,0
2138,39395,0
2144,39383,0
2188,39386,0
2180,39385,0
2216,39401,0
2232,39417,0
2248,39398,0
2256,39403,0
2256,39411,0
2264,39402,0
2256,39409,0
2228,39431,0
2228,39406,0
2188,39415,0
2168,39417,0
2136,39402,0
2128,39425,0
2098,39427,0
2092,39419,0
2092,39409,0
2112,39438,0
2122,39417,0
2146,39421,0
2168,39441,0
2200,39420,0
2208,39411,0
2216,39444,0
2228,39418,0
2226,39429,0
2240,39437,0
2220,39420,0
2208,39434,0
2175,39436,0
2152,39425,0
2096,39444,0
2064,39440,0
2036,39451,0
2028,39434,0
2047,39427,0
1968,39453,0
2018,39426,0
2044,39428,0
2078,39453,0
2104,39431,0
2168,39429,0
2188,39457,0
2248,39443,0
2268,39428,0
2320,39452,0
2328,39438,0
2360,39429,0
2392,39450,0
2444,39441,0
2477,39436,0
2528,39461,0
2572,39446,0
2636,39447,0
2704,39459,0
2770,39439,0
2864,39443,0
2940,39459,0
3080,39444,0
3176,39451,0
3232,39455,0
3326,39465,0
3410,39430,0
3476,39440,0
3528,39453,0
3560,39464,0
3552,39445,0
3560,39437,0
3484,39469,0
3402,39448,0
3284,39450,0
3200,39461,0
3052,39450,0
2964,39442,0
2824,39468,0
2736,39451,0
2618,39452,0
2544,39465,0
2452,39453,0
2388,39457,0
2336,39478,0
2312,39457,0
2276,39460,0
2242,39484,0
2228,39457,0
2192,39459,0
2168,39481,0
2152,39471,0
2140,39468,0
2116,39487,0
2088,39461,0
2054,39462,0
2016,39469,0
1996,39457,0
1968,39474,0
1953,39473,0
1932,39494,0
2028,39471,0
1918,39473,0
1945,39490,0
1948,39470,0
1928,39481,0
1936,39498,0
1935,39463,0
1940,39486,0
1948,39497,0
1928,39476,0
1920,39475,0
1898,39508,0
1874,39474,0
1840,39487,0
1824,39511,0
1800,39466,0
1808,39490,0
1792,39507,0
1794,39473,0
1800,39492,0
1813,39522,0
1817,39483,0
1840,39506,0
1874,39518,0
1885,39491,0
1912,39501,0
1930,39527,0
1936,39526,0
1929,39520,0
1968,39534,0
1936,39513,0
1921,39524,0
1904,39508,0
1880,39509,0
1858,39533,0
1844,39513,0
1826,39524,0
1820,39531,0
1834,39512,0
1828,39517,0
1848,39539,0
1852,39526,0
1872,39519,0
1904,39557,0
1936,39525,0
1940,39525,0
1980,39558,0
1960,39529,0
2004,39535,0
1980,39559,0
1974,39549,0
1962,39548,0
1940,39557,0
1904,39547,0
1872,39540,0
1880,39565,0
1872,39551,0
1868,39552,0
1870,39564,0
1868,39555,0
1869,39567,0
1877,39551,0
1897,39563,0
1954,39574,0
1976,39537,0
1988,39551,0
1984,39577,0
2000,39548,0
2008,39567,0
2008,39581,0
2002,39567,0
1988,39572,0
1980,39595,0
1956,39566,0
1940,39572,0
1922,39597,0
1920,39563,0
1908,39585,0
1904,39603,0
1912,39565,0
1936,39584,0
1944,39595,0
1984,39570,0
2001,39581,0
2028,39611,0
2042,39592,0
2042,39593,0
2088,39626,0
2072,39610,0
2064,39597,0
2008,39691,0
1992,39624,0
1964,39607,0
1946,39609,0
1936,39606,0
1926,39610,0
1920,39642,0
1919,39600,0
1928,39613,0
1930,39643,0
1952,39615,0
1996,39629,0
1996,39659,0
2040,39628,0
2047,39622,0
2068,39651,0
2056,39611,0
2084,39630,0
2072,39656,0
2064,39637,0
2072,39634,0
2034,39657,0
2018,39635,0
1993,39652,0
1981,39665,0
1972,39663,0
1960,39653,0
1962,39676,0
1968,39666,0
1984,39662,0
2016,39669,0
2048,39669,0
2064,39691,0
2080,39686,0
2108,39665,0
2112,39661,0
2112,39659,0
2112,39691,0
2108,39682,0
2097,39680,0
2072,39704,0
2052,39665,0
2032,39675,0
2015,39693,0
1989,39674,0
1984,39680,0
1960,39696,0
1976,39688,0
1976,39679,0
1992,39706,0
2000,39683,0
2028,39676,0
2058,39708,0
2104,39693,0
2122,39695,0
2144,39719,0
2146,39678,0
2152,39686,0
2130,39713,0
2124,39699,0
2118,39691,0
2090,39705,0
2072,39682,0
2050,39693,0
2024,39688,0
2004,39688,0
2004,39686,0
2032,39705,0
2032,39692,0
2016,39695,0
2044,39709,0
2068,39705,0
2104,39700,0
2128,39706,0
2152,39715,0
2172,39694,0
2176,39712,0
2192,39718,0
2196,39702,0
2168,39716,0
2144,39720,0
2152,39696,0
2080,39714,0
2058,39724,0
2032,39702,0
2036,39711,0
2026,39724,0
2036,39699,0
2033,39699,0
2032,39729,0
2064,39704,0
2080,39700,0
2108,39730,0
2136,39690,0
2164,39701,0
2176,39720,0
2160,39715,0
2172,39689,0
2176,39717,0
2160,39705,0
2144,39709,0
2112,39713,0
2080,39711,0
2056,39733,0
2052,39720,0
2044,39716,0
2010,39736,0
2030,39723,0
2020,39714,0
2040,39738,0
2047,39715,0
2072,39720,0
2088,39741,0
2152,39725,0
2136,39716,0
2148,39743,0
2154,39737,0
2184,39713,0
2164,39739,0
2160,39727,0
2138,39727,0
2104,39743,0
2072,39727,0
2045,39732,0
2036,39753,0
2014,39725,0
2018,39736,0
2024,39747,0
2002,39758,0
2028,39770,0
2016,39748,0
2047,39730,0
2072,39758,0
2080,39748,0
2096,39734,0
2088,39763,0
2100,39742,0
2106,39758,0
2100,39764,0
2090,39751,0
2066,39751,0
2048,39781,0
2004,39753,0
1984,39745,0
1949,39775,0
1940,39757,0
1916,39756,0
1924,39781,0
1922,39765,0
1940,39769,0
1952,39785,0
1984,39751,0
2005,39771,0
2020,39785,0
2028,39761,0
2044,39780,0
2058,39802,0
2054,39758,0
2060,39775,0
2048,39792,0
2021,39798,0
1994,39789,0
2012,39795,0
1961,39804,0
1952,39758,0
1952,39800,0
1948,39771,0
1960,39795,0
1956,39804,0
1996,39782,0
1952,39793,0
2019,39813,0
2036,39783,0
2084,39791,0
2104,39822,0
2090,39790,0
2080,39808,0
2080,39829,0
2060,39782,0
2046,39802,0
2020,39822,0
2020,39806,0
1988,39807,0
1968,39831,0
1954,39817,0
1940,39814,0
1925,39839,0
1958,39817,0
1947,39819,0
1945,39848,0
1976,39814,0
2000,39823,0
2008,39813,0
2040,39830,0
2047,39842,0
2090,39845,0
2082,39854,0
2084,39819,0
2072,39843,0
2066,39829,0
2046,39828,0
2029,39860,0
2004,39847,0
1992,39837,0
1976,39857,0
1984,39844,0
1968,39834,0
1976,39856,0
1972,39840,0
1988,39835,0
2008,39852,0
2032,39843,0
2076,39839,0
2084,39863,0
2112,39835,0
2116,39846,0
2128,39868,0
2124,39837,0
2108,39847,0
2090,39872,0
2080,39839,0
2053,39850,0
2016,39865,0
2004,39838,0
1976,39855,0
1972,39853,0
1969,39852,0
1970,39867,0
1992,39878,0
1976,39865,0
2004,39847,0
2024,39887,0
2047,39869,0
2076,39851,0
2080,39877,0
2103,39878,0
2096,39866,0
2104,39883,0
2100,39870,0
2088,39861,0
2047,39873,0
2044,39884,0
2008,39867,0
1984,39882,0
1968,39885,0
1972,39859,0
2000,39881,0
1974,39884,0
1984,39861,0
2001,39878,0
2032,39878,0
2041,39869,0
2076,39884,0
2096,39885,0
2120,39869,0
2120,39870,0
2092,39859,0
2120,39874,0
2106,39879,0
2090,39859,0
2072,39871,0
2044,39858,0
2028,39860,0
2032,39874,0
2024,39859,0
2016,39851,0
2028,39879,0
2036,39859,0
2060,39855,0
2080,39876,0
2106,39852,0
2132,39853,0
2160,39879,0
2160,39872,0
2168,39857,0
2188,39868,0
2184,39855,0
2176,39845,0
2152,39881,0
2140,39861,0
2114,39867,0
2076,39879,0
2058,39858,0
2058,39856,0
2036,39876,0
2056,39861,0
2058,39865,0
2040,39878,0
2060,39882,0
2104,39865,0
2116,39874,0
2138,39878,0
2196,39855,0
2176,39867,0
2188,39861,0
2184,39851,0
2180,39870,0
2182,39859,0
2164,39860,0
2136,39876,0
2112,39856,0
2076,39850,0
2056,39883,0
2016,39857,0
2024,39862,0
2016,39882,0
2042,39872,0
2036,39866,0
2068,39880,0
2096,39867,0
2132,39861,0
2154,39882,0
2188,39860,0
2196,39868,0
2208,39894,0
2214,39869,0
2214,39869,0
2216,39887,0
2200,39869,0
2160,39878,0
2120,39885,0
2088,39881,0
2072,39872,0
2056,39869,0
2046,39868,0
2040,39891,0
2068,39879,0
2044,39867,0
2064,39886,0
2092,39870,0
2130,39865,0
2152,39887,0
2192,39860,0
2184,39866,0
2208,39897,0
2212,39849,0
2202,39871,0
2192,39889,0
2160,39853,0
2132,39869,0
2122,39890,0
2096,39869,0
2084,39873,0
2060,39893,0
2068,39877,0
2046,39893,0
2046,39907,0
2073,39878,0
2084,39885,0
2112,39907,0
2152,39878,0
2152,39892,0
2182,39894,0
2192,39896,0
2202,39911,0
2200,39890,0
2208,39910,0
2184,39894,0
2164,39902,0
2144,39919,0
2120,39895,0
2076,39916,0
2072,39921,0
2056,39901,0
2064,39925,0
2052,39914,0
2064,39904,0
2060,39929,0
2081,39912,0
2100,39908,0
2145,39927,0
2176,39908,0
2192,39914,0
2210,39933,0
2220,39910,0
2220,39903,0
2224,39928,0
2216,39922,0
2176,39905,0
2155,39937,0
2137,39909,0
2128,39911,0
2106,39934,0
2080,39915,0
2076,39905,0
2080,39916,0
2076,39920,0
2092,39920,0
2108,39941,0
2128,39898,0
2160,39909,0
2176,39932,0
2192,39904,0
2208,39901,0
2216,39939,0
2208,39902,0
2240,39911,0
2220,39934,0
2218,39915,0
2192,39914,0
2178,39936,0
2152,39904,0
2136,39914,0
2128,39935,0
2145,39913,0
2146,39920,0
2144,39939,0
2154,39906,0
2168,39912,0
2176,39926,0
2194,39915,0
2224,39905,0
2244,39938,0
2264,39915,0
2272,39918,0
2256,39936,0
2248,39923,0
2240,39925,0
2220,39911,0
2192,39923,0
2164,39918,0
2138,39946,0
2114,39927,0
2088,39926,0
2096,39950,0
2090,39915,0
2111,39926,0
2104,39942,0
2136,39923,0
2144,39924,0
2186,39949,0
2196,39925,0
2232,39927,0
2228,39957,0
2232,39920,0
2232,39938,0
2250,39953,0
2242,39924,0
2233,39943,0
2220,39950,0
2180,39925,0
2180,39927,0
2130,39960,0
2109,39920,0
2128,39939,0
2112,39953,0
2112,39926,0
2100,39958,0
2110,39948,0
2128,39942,0
2156,39946,0
2176,39938,0
2196,39933,0
2208,39937,0
2209,39959,0
2208,39945,0
2212,39946,0
2228,39970,0
2202,39945,0
2172,39948,0
2184,39961,0
2124,39947,0
2128,39949,0
2106,39965,0
2116,39954,0
2092,39951,0
2128,39964,0
2104,39948,0
2136,39944,0
2166,39978,0
2188,39946,0
2216,39941,0
2226,39963,0
2228,39948,0
2236,39958,0
2240,39974,0
2236,39950,0
2260,39956,0
2216,39979,0
2176,39967,0
2154,39962,0
2136,39968,0
2114,39964,0
2112,39956,0
2110,39961,0
2098,39971,0
2098,39944,0
2108,39965,0
2124,39974,0
2152,39951,0
2184,39957,0
2208,39983,0
2232,39956,0
2228,39960,0
2242,39978,0
2236,39960,0
2248,39971,0
2232,39989,0
2216,39964,0
2320,39962,0
2192,39988,0
2168,39971,0
2152,39965,0
2144,40002,0
2136,39960,0
2128,39966,0
2160,39987,0
2144,39960,0
2157,39977,0
2200,39996,0
2260,39970,0
2228,39952,0
2240,39977,0
2252,39985,0
2272,39998,0
2268,39982,0
2256,40001,0
2248,39994,0
2228,39987,0
2200,39991,0
2168,40006,0
2136,39975,0
2119,39998,0
2092,40009,0
2088,39984,0
2060,39996,0
2072,40002,0
2058,39987,0
2080,39983,0
2088,40004,0
2136,39987,0
2156,39984,0
2196,40002,0
2240,39983,0
2232,39984,0
2240,40002,0
2252,39988,0
2256,39992,0
2252,40004,0
2259,39998,0
2249,39994,0
2272,40004,0
2312,40030,0
2322,39978,0
2368,39988,0
2433,40014,0
2512,39981,0
2598,40016,0
2704,40007,0
2812,40006,0
2922,40017,0
3028,40010,0
3128,40005,0
3232,40023,0
3296,40017,0
3400,39997,0
3424,40025,0
3488,40016,0
3488,40007,0
3520,40015,0
3488,40016,0
3464,40008,0
3488,40026,0
3456,40015,0
3392,40004,0
3296,40017,0
3220,40023,0
3136,40016,0
3056,40025,0
2965,40033,0
2904,40012,0
2818,40006,0
2762,40022,0
2680,40002,0
2564,40014,0
2492,40031,0
2428,40024,0
2356,40025,0
2260,39979,0
2204,40028,0
2160,40020,0
2132,40006,0
2116,40033,0
2102,40007,0
2092,40001,0
2104,40018,0
2096,39993,0
2120,40008,0
2120,40023,0
2144,39989,0
2132,39999,0
2144,40018,0
2124,40010,0
2120,40008,0
2104,40025,0
2098,39986,0
2073,40006,0
2053,40026,0
2016,39996,0
1990,39996,0
1954,40022,0
1960,39995,0
1932,40010,0
1920,40025,0
1938,40001,0
1936,39997,0
1940,40014,0
1960,40009,0
1972,40001,0
2000,40011,0
2024,40002,0
2028,40012,0
2040,40000,0
2036,40002,0
2040,40020,0
2036,39999,0
2024,40003,0
2007,40026,0
1984,39996,0
1968,39994,0
1944,40020,0
1936,39990,0
1928,39998,0
1946,40021,0
1952,39988,0
1964,40002,0
1982,40027,0
2020,39997,0
2052,40002,0
2085,40016,0
2112,40021,0
2128,40006,0
2117,40018,0
2150,40002,0
2117,40002,0
2130,40030,0
2028,39988,0
2102,40005,0
2056,40026,0
2030,40017,0
2016,40008,0
2040,40048,0
2018,40017,0
2008,40020,0
2044,39997,0
2056,40005,0
2040,40033,0
2064,39986,0
2088,40009,0
2122,40034,0
2136,39998,0
2208,40010,0
2154,40031,0
2172,39992,0
2164,40003,0
2162,40029,0
2144,39995,0
2128,40018,0
2100,40036,0
2096,40010,0
2074,40018,0
2104,40039,0
2060,40001,0
2060,40016,0
2050,40035,0
2050,40016,0
2064,40012,0
2090,40042,0
2128,40019,0
2154,40013,0
2154,40032,0
2162,40023,0
2172,40008,0
2178,40010,0
2180,40020,0
2164,40035,0
2148,39996,0
2120,40019,0
2112,40037,0
2084,39998,0
2072,40013,0
2064,40038,0
2047,40015,0
2064,40024,0
2076,40038,0
2072,40009,0
2082,40020,0
2104,40036,0
2120,40009,0
2140,40017,0
2256,40043,0
2208,40005,0
2208,40016,0
2224,40040,0
2218,39996,0
2204,40019,0
2180,40050,0
2160,40006,0
2144,40029,0
2112,40044,0
2112,40012,0
2098,40030,0
2092,40037,0
2072,40039,0
2072,40043,0
2080,40025,0
2102,40050,0
2116,40062,0
2156,40019,0
2166,40017,0
2188,40050,0
2232,40021,0
2220,40033,0
2227,40051,0
2216,40032,0
2232,40037,0
2236,40062,0
2196,40028,0
2160,40031,0
2156,40050,0
2124,40033,0
2112,40034,0
2104,40053,0
2120,40043,0
2128,40037,0
2137,40056,0
2152,40035,0
2170,40028,0
2196,40053,0
2221,40033,0
2248,40029,0
2276,40044,0
2284,40027,0
2288,40026,0
2257,40035,0
2264,40027,0
2242,40049,0
2220,40062,0
2200,40029,0
2170,40032,0
2164,40048,0
2150,40027,0
2136,40038,0
2142,40043,0
2146,40022,0
2169,40032,0
2186,40043,0
2218,40013,0
2224,40033,0
2268,40053,0
2272,40021,0
2302,40029,0
2296,40030,0
2296,40010,0
2292,40023,0
2320,39994,0
2304,40007,0
2277,40032,0
2256,40003,0
2232,40006,0
2200,40035,0
2192,39994,0
2188,39989,0
2180,40010,0
2200,39990,0
2208,39988,0
2184,39998,0
2194,39986,0
2228,39990,0
2240,40002,0
2256,39992,0
2272,40016,0
2280,39996,0
2284,39990,0
2272,40008,0
2268,39982,0
2236,39985,0
2240,39999,0
2204,39966,0
2208,39978,0
2164,39998,0
2168,39964,0
2148,39980,0
2160,40000,0
2152,39964,0
2152,39980,0
2174,39999,0
2218,39964,0
2244,39972,0
2272,39986,0
2280,39963,0
2304,39971,0
2320,39992,0
2282,39968,0
2293,39966,0
2284,40000,0
2284,39965,0
2248,39963,0
2208,39989,0
2166,39992,0
2160,39962,0
2140,39937,0
2140,39984,0
2184,39969,0
2144,39960,0
2150,39975,0
2160,39960,0
2180,39957,0
2210,39992,0
2237,39976,0
2272,39971,0
2278,39981,0
2260,39976,0
2280,39956,0
2256,39981,0
2256,39968,0
2218,39960,0
2196,39978,0
2168,39940,0
2162,39952,0
2145,39973,0
2130,39945,0
2153,39957,0
2117,39971,0
2112,39938,0
2114,39942,0
2138,39973,0
2165,39934,0
2200,39936,0
2228,39959,0
2238,39949,0
2242,39964,0
2244,39966,0
2244,39951,0
2228,39938,0
2232,39964,0
2208,39939,0
2148,39947,0
2136,39969,0
2106,39932,0
2095,39939,0
2104,39959,0
2101,39931,0
2036,39933,0
2112,39961,0
2120,39942,0
2152,39931,0
2168,39959,0
2188,39936,0
2232,39934,0
2240,39955,0
2244,39946,0
2240,39934,0
2236,39949,0
2220,39931,0
2192,39937,0
2160,39952,0
2151,39936,0
2114,39937,0
2136,39955,0
2136,39926,0
2084,39935,0
2084,39935,0
2088,39946,0
2100,39942,0
2124,39961,0
2136,39948,0
2164,39936,0
2186,39929,0
2202,39948,0
2208,39931,0
2212,39932,0
2220,39954,0
2202,39923,0
2212,39929,0
2172,39954,0
2156,39927,0
2128,39934,0
2112,39944,0
2076,39907,0
2072,39923,0
2068,39948,0
2088,39931,0
2094,39925,0
2108,39948,0
2124,39912,0
2163,39936,0
2170,39952,0
2196,39922,0
2216,39925,0
2222,39954,0
2264,39930,0
2268,39933,0
2212,39940,0
2128,39945,0
2160,39938,0
2186,39944,0
2220,39967,0
2256,39942,0
2249,39951,0
2256,39962,0
2248,39953,0
2252,39948,0
2230,39970,0
2216,39949,0
2178,39950,0
2156,39977,0
2129,39941,0
2104,39951,0
2100,39970,0
2114,39947,0
2088,39943,0
2088,39982,0
2112,39956,0
2144,39950,0
2176,39981,0
2186,39948,0
2214,39965,0
2240,39977,0
2242,39966,0
2234,39960,0
2240,39973,0
2272,39968,0
2226,39966,0
2224,39988,0
2192,39972,0
2140,39967,0
2116,39967,0
2104,39967,0
2096,39977,0
2096,39977,0
2100,39977,0
2100,39977,0
2112,39977,0
2124,39977,0
2152,39977,0
2176,39962,0
2252,39971,0
2216,39971,0
2240,39971,0
2232,39971,0
2248,39971,0
2234,39971,0
2224,39999,0
2192,39960,0
2196,39960,0
2172,39960,0
2144,39960,0
2128,39960,0
2122,39960,0
2112,39992,0
2120,39957,0
2112,39957,0
2120,39957,0
2146,39957,0
2168,39957,0
2208,39957,0
2236,39957,0
2224,39997,0
2224,39981,0
2240,40008,0
2232,40000,0
2228,39989,0
2218,39999,0
2200,39996,0
2194,39989,0
2152,40014,0
2128,39993,0
2114,39987,0
2114,40022,0
2114,40004,0
2120,39978,0
2116,40014,0
2138,40007,0
2144,39989,0
2184,40021,0
2196,40001,0
2210,40000,0
2224,40005,0
2256,39997,0
2257,39990,0
2264,40002,0
2266,40009,0
2242,39987,0
2204,40011,0
2100,39995,0
2101,39997,0
2104,39991,0
2108,40002,0
2130,39988,0
2160,39999,0
2186,40014,0
2208,39994,0
2224,39994,0
2232,40012,0
2236,39989,0
2243,40002,0
2226,40014,0
2264,39988,0
2192,39990,0
2192,40007,0
2156,40004,0
2149,40003,0
2152,40016,0
2129,39993,0
2130,39989,0
2169,40013,0
2128,39998,0
2144,40000,0
2176,40023,0
2193,39997,0
2204,39994,0
2226,40011,0
2242,39999,0
2256,39999,0
2276,40022,0
2272,39997,0
2248,39996,0
2226,40002,0
2212,39999,0
2188,39987,0
2164,40001,0
2138,40026,0
2124,40009,0
2140,39998,0
2104,40031,0
2112,40004,0
2096,39991,0
2149,40026,0
2160,39984,0
2200,39990,0
2212,40022,0
2272,39994,0
2252,39995,0
2272,40023,0
2256,39988,0
2256,39996,0
2249,40012,0
2260,39981,0
2240,39993,0
2209,40016,0
2168,39990,0
2160,39995,0
2128,40018,0
2122,39984,0
2114,39997,0
2120,40015,0
2136,39976,0
2152,40001,0
2152,40018,0
2176,39998,0
2204,40003,0
2224,40023,0
2246,39995,0
2248,40023,0
2264,39995,0
2280,39995,0
2240,40019,0
2232,39994,0
2213,40012,0
2217,40030,0
2172,39982,0
2180,40002,0
2144,40025,0
2136,39976,0
2120,40008,0
2128,40022,0
2128,39982,0
2134,40012,0
2152,40023,0
2208,39987,0
2224,40000,0
2248,40020,0
2292,39986,0
2260,40000,0
2258,40030,0
2248,39997,0
2248,40003,0
2226,40026,0
2224,39997,0
2152,40022,0
2138,40021,0
2120,40015,0
2116,40003,0
2128,40011,0
2117,40032,0
2130,40002,0
2124,40015,0
2168,40032,0
2198,40011,0
2224,40018,0
2253,40034,0
2256,40010,0
2276,40019,0
2248,40038,0
2312,40018,0
2264,40039,0
2256,40021,0
2220,40013,0
2208,40024,0
2208,40041,0
2196,40013,0
2196,40035,0
2196,40023,0
2196,40019,0
2196,40037,0
2192,40020,0
2208,40017,0
2236,40037,0
2250,40035,0
2282,40019,0
2304,40031,0
2280,40022,0
2274,40012,0
2284,40023,0
2288,40014,0
2272,40028,0
2256,40035,0
2236,40017,0
2208,40020,0
2188,40029,0
2166,40008,0
2184,40020,0
2184,40042,0
2152,40020,0
2168,40013,0
2160,40041,0
2192,40023,0
2196,40030,0
2224,40031,0
2232,40025,0
2256,40024,0
2280,40040,0
2304,40031,0
2309,40041,0
2306,40053,0
2290,40017,0
2277,40030,0
2236,40046,0
2204,40022,0
2185,40020,0
2173,40034,0
2176,40017,0
2161,40020,0
2144,40024,0
2140,40025,0
2152,40029,0
2164,40015,0
2184,40034,0
2208,40039,0
2220,40016,0
2232,40012,0
2240,40036,0
2242,40010,0
2236,40013,0
2240,40032,0
2248,40014,0
2232,39999,0
2200,40035,0
2184,40017,0
2160,40007,0
2188,40036,0
2136,40016,0
2132,40018,0
2132,40031,0
2160,40014,0
2160,40015,0
2176,40031,0
2200,40015,0
2232,40024,0
2226,40042,0
2240,40016,0
2275,40013,0
2264,40034,0
2276,40021,0
2281,40015,0
2248,40013,0
2229,40034,0
2208,40035,0
2184,40029,0
2162,40009,0
2145,40036,0
2132,40004,0
2128,40011,0
2120,40042,0
2128,40022,0
2128,40024,0
2153,40036,0
2154,40007,0
2200,40021,0
2208,40045,0
2258,40011,0
2237,40015,0
2248,40039,0
2236,40021,0
2232,40018,0
2218,40049,0
2226,40008,0
2198,40030,0
2176,40043,0
2152,40013,0
2136,40025,0
2121,40041,0
2122,40012,0
2130,40011,0
2120,40042,0
2144,40017,0
2160,40023,0
2170,40020,0
2200,40036,0
2224,40020,0
2240,40035,0
2252,40043,0
2252,40028,0
2276,40042,0
2242,40030,0
2228,40024,0
2209,40053,0
2184,40035,0
2194,40044,0
2128,40053,0
2126,40021,0
2084,40031,0
2108,40049,0
2064,40023,0
2066,40026,0
2068,40042,0
2089,40019,0
2092,40029,0
2104,40051,0
2121,40023,0
2144,40036,0
2148,40045,0
2164,40022,0
2164,40042,0
2168,40041,0
2209,40025,0
2166,40044,0
2186,40038,0
2188,40022,0
2168,40020,0
2164,40046,0
2184,40026,0
2212,40026,0
2272,40037,0
2288,40042,0
2356,40020,0
2428,40023,0
2512,40052,0
2608,40017,0
2698,40030,0
2816,40040,0
2900,40001,0
3008,40018,0
3070,40047,0
3192,40001,0
3232,40023,0
3320,40037,0
3352,40015,0
3400,40022,0
3436,40045,0
3524,40033,0
3556,40022,0
3568,40047,0
3556,40033,0
3530,40025,0
3440,40051,0
3370,40034,0
3296,40037,0
3216,40052,0
3168,40021,0
3061,40031,0
2942,40031,0
2832,40040,0
2736,40039,0
2636,40023,0
2536,40035,0
2437,40055,0
2332,40016,0
2248,40028,0
2180,40060,0
2128,40024,0
2084,40026,0
2067,40059,0
2060,40031,0
2048,40038,0
2045,40055,0
2072,40037,0
2064,40032,0
2096,40052,0
2100,40030,0
2096,40031,0
2090,40040,0
2098,40043,0
2114,40040,0
2096,40060,0
2034,40048,0
2016,40048,0
1964,40057,0
1926,40041,0
1902,40036,0
1880,40057,0
1872,40044,0
1858,40039,0
1836,40055,0
1828,40042,0
1852,40052,0
1868,40055,0
1900,40046,0
1916,40045,0
1920,40057,0
1938,40056,0
1944,40048,0
1972,40075,0
1964,40057,0
1964,40049,0
1957,40065,0
1962,40058,0
1944,40054,0
1906,40077,0
1904,40056,0
1904,40053,0
1872,40068,0
1872,40054,0
1872,40055,0
1894,40073,0
1904,40054,0
1924,40054,0
1984,40071,0
1972,40066,0
1984,40055,0
2000,40080,0
2016,40057,0
2018,40060,0
2056,40081,0
2048,40062,0
2012,40084,0
1986,40082,0
1988,40085,0
1940,40076,0
1968,40048,0
1952,40064,0
1916,40090,0
1922,40047,0
1928,40066,0
1936,40078,0
1960,40056,0
2000,40058,0
1992,40075,0
2060,40055,0
2056,40065,0
2072,40089,0
2076,40053,0
2088,40067,0
2072,40089,0
2064,40048,0
2044,40055,0
2048,40079,0
2024,40051,0
2000,40063,0
1997,40083,0
1970,40048,0
1960,40057,0
1960,40078,0
1972,40043,0
1974,40062,0
1992,40077,0
2020,40038,0
2044,40071,0
2066,40066,0
2114,40060,0
2084,40076,0
2086,40054,0
2056,40075,0
2082,40052,0
2076,40060,0
2064,40071,0
2026,40063,0
2013,40063,0
1988,40082,0
2008,40055,0
1966,40058,0
2004,40078,0
1984,40054,0
2000,40052,0
2002,40066,0
2064,40040,0
2064,40044,0
2122,40066,0
2125,40051,0
2140,40047,0
2140,40060,0
2172,40046,0
2136,40038,0
2144,40069,0
2115,40036,0
2096,40035,0
2088,40064,0
2064,40041,0
2041,40038,0
2042,40055,0
2012,40022,0
2009,40038,0
2016,40046,0
2024,40059,0
2032,40033,0
2058,40045,0
2088,40062,0
2104,40027,0
2116,40045,0
2142,40054,0
2152,40016,0
2178,40036,0
2152,40057,0
2161,40016,0
2140,40036,0
2129,40050,0
2100,40011,0
2074,40030,0
2064,40039,0
2064,40015,0
2064,40031,0
2064,40046,0
2064,40020,0
2080,40026,0
2090,40052,0
2092,40000,0
2124,40021,0
2140,40044,0
2184,40018,0
2192,40015,0
2176,40023,0
2184,40035,0
2192,40020,0
2154,40029,0
2168,40027,0
2152,40039,0
2120,40024,0
2105,40012,0
2086,40042,0
2088,40013,0
2088,40014,0
2112,40031,0
2112,40015,0
2100,40004,0
2128,40031,0
2136,40003,0
2160,39998,0
2192,40022,0
2202,40004,0
2218,40001,0
2224,40023,0
2256,40000,0
2258,39994,0
2242,40015,0
2232,39990,0
2209,39999,0
2178,40011,0
2164,39987,0
2152,39984,0
2132,40004,0
2144,39986,0
2168,39991,0
2124,39984,0
2136,40008,0
2160,39973,0
2178,40000,0
2188,39983,0
2216,39987,0
2240,39978,0
2240,39981,0
2272,40007,0
2276,39968,0
2248,39982,0
2247,39994,0
2224,39973,0
2224,39986,0
2186,39983,0
2176,39965,0
2152,39986,0
2152,39984,0
2140,39967,0
2144,39981,0
2136,39975,0
2176,39968,0
2193,39992,0
2217,39971,0
2244,39959,0
2274,39985,0
2264,39951,0
2278,39949,0
2298,39981,0
2294,39937,0
2314,39953,0
2305,39968,0
2256,39978,0
2240,39982,0
2240,39953,0
2208,39982,0
2188,39971,0
2164,39961,0
2164,39958,0
2156,39970,0
2152,39943,0
2150,39974,0
2154,39971,0
2186,39944,0
2204,39978,0
2240,39968,0
2236,39956,0
2264,39968,0
2260,39966,0
2264,39943,0
2244,39974,0
2244,39966,0
2224,39939,0
2224,39970,0
2208,39960,0
2192,39951,0
2170,39962,0
2162,39956,0
2144,39942,0
2165,39966,0
2154,39931,0
2144,39937,0
2180,39962,0
2198,39929,0
2200,39948,0
2216,39954,0
2240,39966,0
2285,39951,0
2272,39945,0
2256,39963,0
2248,39928,0
2236,39936,0
2216,39961,0
2200,39918,0
2166,39945,0
2170,39948,0
2124,39931,0
2136,39936,0
2116,39951,0
2128,39929,0
2128,39931,0
2144,39953,0
2144,39930,0
2172,39931,0
2200,39946,0
2244,39930,0
2256,39932,0
2268,39950,0
2274,39923,0
2276,39947,0
2260,39954,0
2248,39938,0
2265,39952,0
2212,39943,0
2204,39932,0
2178,39949,0
2140,39928,0
2128,39927,0
2120,39915,0
2120,39928,0
2132,39941,0
2128,39902,0
2156,39917,0
2180,39940,0
2196,39907,0
2226,39927,0
2240,39937,0
2287,39911,0
2256,39909,0
2280,39945,0
2256,39909,0
2264,39914,0
2242,39943,0
2232,39928,0
2192,39930,0
2180,39942,0
2160,39925,0
2176,39939,0
2200,39954,0
2166,39926,0
2176,39944,0
2212,39940,0
2176,39926,0
2192,39942,0
2222,39932,0
2248,39933,0
2264,39949,0
2284,39914,0
2272,39928,0
2258,39944,0
2266,39923,0
2240,39922,0
2218,39929,0
2196,39942,0
2208,39918,0
2060,39928,0
2144,39938,0
2130,39912,0
2128,39924,0
2128,39930,0
2122,39924,0
2144,39941,0
2144,39922,0
2178,39909,0
2192,39934,0
2196,39920,0
2240,39904,0
2248,39928,0
2268,39915,0
2280,39910,0
2280,39930,0
2264,39892,0
2242,39901,0
2217,39916,0
2186,39887,0
2164,39889,0
2160,39913,0
2134,39895,0
2146,39898,0
2176,39923,0
2140,39903,0
2146,39900,0
2168,39923,0
2192,39914,0
2212,39884,0
2236,39892,0
2256,39924,0
2268,39898,0
2264,39892,0
2268,39918,0
2260,39891,0
2256,39898,0
2228,39919,0
2220,39899,0
2208,39900,0
2172,39912,0
2148,39899,0
2148,39907,0
2144,39916,0
2148,39891,0
2178,39907,0
2176,39917,0
2196,39893,0
2233,39906,0
2240,39906,0
2264,39901,0
2274,39913,0
2288,39900,0
2296,39891,0
2296,39910,0
2344,39882,0
2268,39923,0
2236,39892,0
2208,39894,0
2196,39901,0
2200,39906,0
2160,39892,0
2176,39927,0
2148,39893,0
2162,39901,0
2170,39922,0
2192,39900,0
2215,39909,0
2238,39932,0
2280,39907,0
2272,39915,0
2292,39901,0
2288,39901,0
2304,39921,0
2288,39898,0
2272,39903,0
2276,39929,0
2248,39893,0
2227,39913,0
2208,39928,0
2188,39900,0
2186,39913,0
2164,39934,0
2168,39912,0
2179,39913,0
2188,39936,0
2216,39919,0
2252,39913,0
2252,39923,0
2268,39926,0
2282,39911,0
2292,39949,0
2312,39936,0
2308,39894,0
2304,39920,0
2300,39949,0
2256,39909,0
2252,39927,0
2228,39946,0
2241,39917,0
2228,39925,0
2204,39952,0
2192,39933,0
2196,39932,0
2192,39957,0
2208,39936,0
2212,39930,0
2240,39963,0
2264,39944,0
2312,39943,0
2320,39967,0
2336,39950,0
2336,39960,0
2322,39974,0
2320,39953,0
2310,39962,0
2292,39980,0
2244,39960,0
2232,39972,0
2216,39957,0
2176,39953,0
2172,39966,0
2170,39989,0
2188,39937,0
2178,39968,0
2196,39962,0
2220,39986,0
2240,39970,0
2266,39968,0
2290,39995,0
2298,39968,0
2324,39969,0
2320,39993,0
2338,39965,0
2314,39961,0
2328,39989,0
2288,39959,0
2280,39969,0
2258,40001,0
2224,39955,0
2224,39968,0
2240,39990,0
2232,39964,0
2234,39970,0
2234,39993,0
2240,39959,0
2248,39971,0
2262,39991,0
2296,39965,0
2306,39976,0
2336,39994,0
2352,39976,0
2328,39996,0
2325,39993,0
2328,39990,0
2316,39998,0
2292,40010,0
2272,39985,0
2256,39997,0
2236,39982,0
2208,39986,0
2208,40006,0
2212,39984,0
2239,40000,0
2220,40006,0
2240,39986,0
2244,40013,0
2292,39997,0
2300,39988,0
2336,40000,0
2336,40017,0
2376,39984,0
2344,40009,0
2376,39986,0
2372,39982,0
2376,40005,0
2338,39970,0
2304,39979,0
2264,40005,0
2268,39971,0
2234,39988,0
2219,40001,0
2240,39981,0
2230,39974,0
2217,39989,0
2234,39984,0
2264,40004,0
2288,39995,0
2304,40005,0
2320,39975,0
2340,39976,0
2360,40000,0
2360,39984,0
2377,39971,0
2352,39999,0
2343,39976,0
2308,39983,0
2316,40001,0
2262,39985,0
2250,39979,0
2232,40008,0
2226,39982,0
2208,39985,0
2212,39999,0
2216,39976,0
2248,39998,0
2274,40009,0
2304,39979,0
2322,39996,0
2344,39994,0
2336,39985,0
2345,40003,0
2346,39980,0
2341,39988,0
2352,40009,0
2337,39984,0
2288,39986,0
2264,39974,0
2252,39970,0
2240,39987,0
2228,40005,0
2222,39980,0
2224,39998,0
2224,39968,0
2252,39971,0
2258,39996,0
2288,39967,0
2320,39987,0
2344,40003,0
2377,39977,0
2384,39965,0
2396,39992,0
2392,39989,0
2400,39972,0
2376,40007,0
2372,39980,0
2352,39986,0
2336,40012,0
2308,39987,0
2296,40004,0
2282,39995,0
2280,39982,0
2264,39999,0
2260,40002,0
2267,39982,0
2281,40000,0
2344,39986,0
2352,39974,0
2352,39982,0
2384,39971,0
2378,39992,0
2388,39970,0
2392,39973,0
2388,39949,0
2380,39980,0
2362,39939,0
2340,39946,0
2320,39973,0
2308,39920,0
2306,39916,0
2288,39938,0
2300,39900,0
2312,39899,0
2292,39915,0
2292,39873,0
2328,39872,0
2336,39882,0
2352,39854,0
2364,39856,0
2408,39856,0
2416,39827,0
2405,39828,0
2400,39841,0
2396,39796,0
2372,39798,0
2348,39816,0
2336,39782,0
2294,39763,0
2284,39782,0
2276,39752,0
2228,39732,0
2220,39745,0
2224,39728,0
2226,39724,0
2236,39686,0
2242,39699,0
2268,39712,0
2296,39661,0
2316,39674,0
2357,39684,0
2376,39644,0
2367,39659,0
2360,39661,0
2370,39629,0
2372,39630,0
2352,39645,0
2312,39610,0
2304,39616,0
2256,39624,0
2228,39608,0
2216,39600,0
2232,39612,0
2232,39597,0
2234,39578,0
2230,39600,0
2249,39575,0
2256,39565,0
2284,39595,0
2310,39568,0
2329,39556,0
2360,39590,0
2356,39548,0
2328,39561,0
2324,39559,0
2328,39554,0
2316,39566,0
2288,39552,0
2264,39532,0
2272,39561,0
2236,39549,0
2218,39538,0
2212,39549,0
2220,39520,0
2237,39523,0
2236,39544,0
2276,39508,0
2288,39526,0
2328,39551,0
2336,39510,0
2376,39527,0
2376,39542,0
2352,39497,0
2360,39540,0
2384,39532,0
2364,39518,0
2340,39527,0
2312,39550,0
2284,39518,0
2240,39531,0
2211,39544,0
2205,39527,0
2192,39533,0
2200,39560,0
2192,39649,0
2204,39557,0
2228,39546,0
2256,39573,0
2284,39557,0
2300,39578,0
2308,39564,0
2312,39571,0
2312,39586,0
2298,39568,0
2288,39586,0
2282,39604,0
2224,39583,0
2208,39602,0
2156,39597,0
2144,39587,0
2112,39620,0
2116,39599,0
2096,39597,0
2104,39618,0
2144,39600,0
2152,39600,0
2186,39636,0
2208,39601,0
2252,39599,0
2280,39632,0
2296,39599,0
2312,39619,0
2352,39648,0
2371,39613,0
2420,39625,0
2436,39650,0
2420,39649,0
2444,39634,0
2472,39650,0
2538,39656,0
2576,39659,0
2660,39652,0
2736,39667,0
2800,39667,0
2920,39661,0
3032,39678,0
3136,39671,0
3253,39667,0
3344,39695,0
3472,39686,0
3516,39673,0
3608,39712,0
3616,39688,0
3684,39697,0
3658,39706,0
3608,39688,0
3552,39715,0
3544,39722,0
3424,39700,0
3314,39726,0
3208,39720,0
3112,39702,0
2976,39730,0
2876,39708,0
2794,39719,0
2717,39745,0
2672,39713,0
2614,39716,0
2536,39723,0
2473,39732,0
2430,39732,0
2372,39732,0
2340,39752,0
2296,39759,0
2260,39724,0
2213,39733,0
2184,39758,0
2152,39720,0
2116,39733,0
2125,39762,0
2072,39716,0
2072,39742,0
2038,39758,0
2040,39732,0
2036,39751,0
2044,39772,0
2037,39743,0
2052,39742,0
2084,39765,0
2101,39759,0
2090,39755,0
2088,39775,0
2072,39769,0
2064,39779,0
2044,39794,0
2024,39770,0
2008,39801,0
1972,39775,0
1984,39777,0
1944,39803,0
1917,39782,0
1924,39783,0
1921,39789,0
1924,39774,0
1930,39805,0
1952,39797,0
1972,39782,0
1996,39784,0
2032,39807,0
2042,39796,0
2064,39800,0
2100,39818,0
2072,39796,0
2082,39810,0
2060,39813,0
2040,39808,0
2012,39819,0
1996,39811,0
1970,39808,0
1960,39836,0
1952,39813,0
1956,39816,0
1964,39827,0
1969,39808,0
1985,39815,0
2008,39839,0
2020,39800,0
2061,39830,0
2076,39847,0
2092,39812,0
2112,39817,0
2112,39850,0
2096,39852,0
2096,39859,0
2080,39862,0
2064,39838,0
2024,39864,0
2000,39848,0
1986,39871,0
1968,39849,0
1960,39853,0
1964,39864,0
1960,39837,0
1972,39848,0
1978,39873,0
2008,39838,0
2020,39856,0
2068,39873,0
2081,39836,0
2116,39861,0
2124,39870,0
2144,39851,0
2148,39868,0
2192,39882,0
2153,39865,0
2161,39859,0
2117,39890,0
2096,39870,0
2068,39869,0
2044,39890,0
2046,39880,0
2034,39882,0
2072,39887,0
2048,39877,0
2042,39873,0
2052,39880,0
2072,39905,0
2101,39890,0
2122,39864,0
2134,39878,0
2136,39901,0
2136,39864,0
2132,39890,0
2122,39905,0
2112,39883,0
2096,39877,0
2047,39907,0
2056,39896,0
2018,39895,0
2016,39916,0
2012,39893,0
2020,39890,0
2012,39912,0
2016,39897,0
2040,39906,0
2082,39916,0
2104,39885,0
2154,39909,0
2185,39909,0
2196,39899,0
2168,39925,0
2176,39893,0
2176,39899,0
2161,39918,0
2160,39878,0
2144,39895,0
2088,39884,0
2070,39902,0
2068,39910,0
2056,39912,0
2020,39916,0
2014,39895,0
2012,39920,0
2018,39879,0
2032,39905,0
2056,39919,0
2080,39904,0
2120,39906,0
2140,39918,0
2164,39897,0
2148,39896,0
2176,39932,0
2168,39896,0
2208,39902,0
2180,39929,0
2136,39910,0
2112,39908,0
2112,39929,0
2096,39914,0
2074,39931,0
2060,39932,0
2072,39910,0
2049,39929,0
2060,39927,0
2098,39912,0
2090,39932,0
2160,39924,0
2149,39907,0
2144,39936,0
2170,39908,0
2172,39934,0
2176,39917,0
2168,39929,0
2162,39911,0
2148,39933,0
2138,39893,0
2112,39909,0
2090,39925,0
2068,39887,0
2073,39905,0
2046,39933,0
2064,39876,0
2056,39887,0
2096,39920,0
2080,39894,0
2112,39899,0
2128,39914,0
2160,39883,0
2170,39885,0
2204,39904,0
2240,39878,0
2224,39884,0
2221,39900,0
2212,39882,0
2192,39878,0
2172,39894,0
2180,39876,0
2120,39892,0
2136,39897,0
2084,39831,0
2080,39864,0
2072,39893,0
2088,39872,0
2096,39881,0
2104,39865,0
2132,39891,0
2161,39866,0
2180,39858,0
2198,39890,0
2200,39864,0
2216,39862,0
2200,39870,0
2208,39847,0
2174,39871,0
2162,39838,0
2128,39836,0
2112,39857,0
2088,39817,0
2080,39840,0
2088,39853,0
2092,39828,0
2112,39832,0
2092,39859,0
2112,39826,0
2160,39827,0
2138,39848,0
2160,39826,0
2184,39835,0
2188,39851,0
2208,39848,0
2208,39834,0
2168,39831,0
2160,39829,0
2148,39832,0
2122,39839,0
2088,39823,0
2065,39843,0
2068,39803,0
2032,39822,0
2020,39822,0
2016,39817,0
2024,39809,0
2028,39847,0
2040,39820,0
2073,39817,0
2096,39847,0
2136,39819,0
2128,39815,0
2164,39835,0
2160,39806,0
2160,39840,0
2160,39822,0
2176,39818,0
2148,39839,0
2112,39798,0
2088,39812,0
2072,39834,0
2028,39807,0
2012,39809,0
2021,39835,0
2015,39819,0
2000,39807,0
2005,39832,0
2004,39820,0
2025,39833,0
2044,39836,0
2064,39820,0
2084,39796,0
2098,39822,0
2100,39823,0
2100,39835,0
2132,39817,0
2104,39829,0
2082,39833,0
2059,39823,0
2040,39844,0
2028,39815,0
1992,39820,0
1992,39835,0
1974,39806,0
1976,39819,0
1972,39839,0
1976,39800,0
2000,39823,0
2032,39838,0
2073,39802,0
2076,39823,0
2124,39848,0
2112,39818,0
2092,39818,0
2099,39846,0
2102,39829,0
2085,39826,0
2080,39840,0
2016,39827,0
2012,39823,0
1996,39830,0
1976,39824,0
1960,39824,0
1960,39835,0
1952,39824,0
1956,39838,0
1962,39818,0
1978,39813,0
1992,39839,0
2028,39834,0
2064,39821,0
2076,39843,0
2104,39836,0
2100,39839,0
2100,39837,0
2084,39829,0
2088,39842,0
2064,39844,0
2060,39824,0
2020,39845,0
2000,39830,0
1972,39822,0
1973,39846,0
1964,39816,0
1964,39828,0
1953,39833,0
1949,39810,0
1980,39826,0
2006,39841,0
2048,39816,0
2074,39829,0
2064,39831,0
2072,39813,0
2096,39831,0
2052,39821,0
2080,39824,0
2096,39848,0
2058,39840,0
2036,39861,0
2004,39836,0
1986,39831,0
1964,39838,0
1972,39833,0
1960,39830,0
1972,39846,0
1961,39820,0
1976,39823,0
1996,39853,0
2016,39818,0
2033,39828,0
2057,39853,0
2074,39810,0
2104,39834,0
2106,39860,0
2096,39835,0
2112,39829,0
2088,39849,0
2080,39837,0
2037,39832,0
2032,39850,0
2008,39832,0
2004,39838,0
1988,39861,0
1972,39838,0
1972,39846,0
1972,39837,0
2012,39857,0
1988,39850,0
2044,39840,0
2034,39871,0
2072,39847,0
2074,39849,0
2208,39873,0
2088,39856,0
2079,39837,0
2068,39873,0
2080,39862,0
2046,39843,0
2024,39877,0
1992,39855,0
1978,39858,0
1964,39869,0
1936,39845,0
1928,39863,0
1944,39881,0
1945,39846,0
1956,39868,0
1974,39885,0
2010,39842,0
2028,39870,0
2048,39879,0
2070,39844,0
2096,39858,0
2104,39886,0
2104,39848,0
2164,39861,0
2106,39879,0
2046,39865,0
2017,39865,0
1992,39872,0
1969,39904,0
1964,39883,0
1948,39877,0
1944,39886,0
1946,39876,0
1948,39892,0
1958,39885,0
1988,39873,0
2016,39909,0
2024,39857,0
2056,39890,0
2060,39906,0
2088,39870,0
2076,39874,0
2072,39904,0
2072,39878,0
2080,39896,0
2057,39913,0
2040,39900,0
2009,39897,0
1989,39916,0
1960,39892,0
1944,39894,0
1957,39920,0
1940,39900,0
1952,39897,0
1984,39913,0
1970,39902,0
1990,39899,0
2024,39915,0
2042,39930,0
2045,39913,0
2061,39929,0
2096,39911,0
2074,39929,0
2068,39914,0
2066,39914,0
2044,39930,0
2026,39899,0
1992,39912,0
1976,39938,0
1960,39900,0
1952,39920,0
1946,39943,0
1956,39912,0
1952,39923,0
1972,39936,0
1980,39917,0
2024,39928,0
2048,39949,0
2080,39919,0
2098,39922,0
2107,39942,0
2104,39931,0
2098,39942,0
2108,39959,0
2096,39935,0
2080,39948,0
2048,39960,0
2004,39933,0
2008,39934,0
1968,39947,0
1952,39943,0
1948,39936,0
1941,39957,0
1952,39945,0
1948,39958,0
1962,39965,0
1989,39938,0
2016,39975,0
2041,39959,0
2056,39945,0
2080,39970,0
2064,39935,0
2056,39947,0
2072,39960,0
2052,39927,0
2020,39941,0
1992,39959,0
1976,39932,0
1968,39934,0
1952,39966,0
1944,39928,0
1947,39945,0
1952,39974,0
1952,39954,0
1963,39957,0
1996,39980,0
2022,39953,0
2052,39953,0
2072,40000,0
2072,39987,0
2088,39963,0
2080,39984,0
2088,39969,0
2060,39960,0
2032,39964,0
2028,39986,0
1984,39958,0
1968,39952,0
1952,39990,0
1942,39974,0
1936,39965,0
1940,39981,0
1936,39966,0
1936,39982,0
1948,39989,0
1928,39970,0
1986,39975,0
2012,39985,0
2048,39969,0
2040,39989,0
2048,39987,0
2032,39962,0
2020,39992,0
2006,39986,0
1976,39966,0
1948,39995,0
1956,39962,0
1936,39976,0
1896,39989,0
1898,39959,0
1880,40005,0
2010,40003,0
1992,40003,0
1978,40011,0
1958,40011,0
1930,40011,0
1916,40011,0
1905,40011,0
1897,40011,0
1904,40011,0
1901,40003,0
1908,40003,0
1928,40003,0
1990,40003,0
1988,40003,0
2020,40003,0
2036,40003,0
2054,40000,0
2048,40000,0
2036,40000,0
2034,40000,0
2026,40000,0
2002,40000,0
1986,40000,0
1958,40025,0
1936,40025,0
1921,40025,0
1890,40025,0
1868,40025,0
1884,40025,0
1906,40025,0
1928,39999,0
1933,39977,0
1936,40008,0
1956,40023,0
1980,39989,0
2000,39995,0
2008,40009,0
2004,39993,0
2008,40004,0
2017,40014,0
1952,40004,0
1980,40004,0
1980,40022,0
1926,40004,0
1904,40010,0
1912,40030,0
1868,40018,0
1876,40005,0
1874,40037,0
1888,40021,0
1888,40026,0
1904,40038,0
1924,40005,0
1994,40037,0
1988,40006,0
2018,40012,0
2029,40043,0
2034,40006,0
2032,40016,0
1944,40027,0
1919,40025,0
1912,40028,0
1904,40017,0
1904,40042,0
1913,40025,0
1906,40024,0
1928,40050,0
1946,40036,0
1976,40042,0
2000,40052,0
2016,40028,0
2024,40066,0
2042,40046,0
2036,40035,0
2045,40067,0
2026,40029,0
2032,40040,0
2008,40060,0
1980,40026,0
1960,40053,0
1936,40058,0
1916,40034,0
1920,40051,0
1924,40064,0
1936,40048,0
1928,40054,0
1937,40074,0
1966,40057,0
1984,40054,0
2032,40085,0
2040,40065,0
2032,40058,0
2040,40061,0
2040,40078,0
2040,40057,0
2034,40064,0
2104,40059,0
1992,40092,0
1956,40072,0
1944,40076,0
1920,40097,0
1908,40076,0
1919,40076,0
1908,40095,0
1944,40082,0
1924,40094,0
1964,40095,0
1968,40084,0
2000,40110,0
2016,40072,0
2042,40083,0
2047,40105,0
2101,40073,0
2070,40088,0
2068,40111,0
2050,40080,0
2037,40095,0
1993,40111,0
1966,40090,0
1954,40091,0
1922,40113,0
1912,40100,0
1900,40102,0
1882,40094,0
1870,40094,0
1876,40102,0
1882,40098,0
1904,40117,0
1924,40121,0
1940,40096,0
1950,40104,0
1988,40142,0
1960,40113,0
1956,40111,0
1965,40137,0
1948,40118,0
1948,40124,0
1914,40143,0
1896,40124,0
1872,40130,0
1892,40150,0
1880,40125,0
1906,40136,0
1928,40143,0
1976,40121,0
2009,40160,0
2066,40117,0
2120,40139,0
2189,40152,0
2252,40118,0
2332,40122,0
2411,40159,0
2484,40139,0
2592,40138,0
2656,40161,0
2704,40151,0
2764,40162,0
2816,40159,0
2880,40145,0
2936,40176,0
2994,40136,0
3048,40137,0
3108,40161,0
3156,40142,0
3232,40151,0
3224,40165,0
3264,40161,0
3256,40152,0
3281,40175,0
3204,40146,0
3184,40179,0
3080,40177,0
3008,40164,0
2896,40188,0
2800,40173,0
2674,40165,0
2596,40179,0
2482,40152,0
2368,40157,0
2252,40178,0
2156,40145,0
2056,40166,0
2005,40184,0
1972,40172,0
1925,40176,0
1928,40194,0
1925,40176,0
1930,40189,0
1977,40192,0
1978,40184,0
1992,40173,0
2000,40201,0
1996,40183,0
1992,40181,0
1976,40198,0
1948,40181,0
1922,40182,0
1872,40213,0
1824,40186,0
1796,40198,0
1760,40193,0
1724,40190,0
1718,40218,0
1688,40199,0
1696,40198,0
1688,40217,0
1712,40190,0
1732,40193,0
1764,40217,0
1794,40195,0
1816,40194,0
1830,40212,0
1826,40181,0
1832,40210,0
1836,40212,0
1814,40202,0
1808,40204,0
1762,40227,0
1700,40245,0
1681,40222,0
1680,40229,0
1674,40226,0
1682,40216,0
1692,40207,0
1713,40243,0
1726,40216,0
1768,40217,0
1796,40242,0
1818,40223,0
1831,40228,0
1832,40241,0
1856,40237,0
1852,40242,0
1858,40252,0
1832,40232,0
1816,40259,0
1796,40229,0
1772,40230,0
1764,40256,0
1760,40227,0
1756,40233,0
1752,40258,0
1760,40238,0
1770,40238,0
1773,40251,0
1796,40251,0
1840,40249,0
1849,40276,0
1896,40253,0
1900,40268,0
1900,40245,0
1900,40251,0
1908,40254,0
1892,40256,0
1888,40266,0
1872,40277,0
1849,40261,0
1822,40262,0
1796,40275,0
1788,40267,0
1768,40275,0
1786,40293,0
1788,40282,0
1792,40293,0
1813,40290,0
1832,40284,0
1848,40292,0
1880,40284,0
1906,40283,0
1928,40312,0
1904,40282,0
1920,40291,0
1930,40311,0
1929,40296,0
1920,40298,0
1912,40319,0
1882,40293,0
1857,40304,0
1851,40314,0
1825,40310,0
1856,40316,0
1833,40313,0
1828,40303,0
1832,40337,0
1856,40318,0
1872,40312,0
1890,40335,0
1918,40306,0
1940,40320,0
1956,40340,0
1996,40288,0
1980,40314,0
1962,40335,0
1969,40304,0
1958,40317,0
1946,40339,0
1904,40320,0
1896,40324,0
1866,40340,0
1864,40331,0
1849,40328,0
1852,40348,0
1860,40347,0
1868,40321,0
1920,40356,0
1932,40342,0
1948,40335,0
1968,40365,0
1992,40346,0
2001,40348,0
2020,40358,0
2017,40348,0
2016,40358,0
2028,40366,0
1996,40340,0
1978,40346,0
1952,40342,0
1936,40341,0
1916,40351,0
1906,40351,0
1904,40349,0
1884,40381,0
1914,40347,0
1914,40352,0
1940,40365,0
1965,40357,0
1988,40356,0
2024,40371,0
2032,40356,0
2056,40346,0
2047,40369,0
2056,40369,0
2060,40376,0
2032,40390,0
2020,40358,0
2038,40386,0
2000,40378,0
1993,40357,0
1978,40389,0
1966,40365,0
1928,40367,0
1930,40375,0
1956,40344,0
1956,40357,0
1972,40367,0
2004,40341,0
2024,40363,0
2038,40372,0
2056,40354,0
2068,40364,0
2076,40370,0
2076,40351,0
2068,40353,0
2068,40375,0
2056,40354,0
2044,40369,0
2033,40375,0
2004,40354,0
1984,40368,0
1992,40340,0
1992,40338,0
1992,40365,0
1994,40331,0
2004,40334,0
2012,40345,0
2032,40320,0
2064,40327,0
2120,40342,0
2136,40323,0
2152,40322,0
2178,40341,0
2152,40310,0
2121,40329,0
2117,40325,0
2112,40310,0
2086,40316,0
2072,40324,0
2037,40304,0
2040,40310,0
2000,40321,0
1986,40322,0
1997,40303,0
2010,40315,0
2024,40295,0
2040,40315,0
2076,40290,0
2096,40276,0
2128,40309,0
2148,40285,0
2169,40286,0
2164,40295,0
2184,40273,0
2160,40269,0
2164,40291,0
2136,40265,0
2128,40285,0
2084,40271,0
2058,40251,0
2044,40276,0
2050,40242,0
2048,40239,0
2048,40257,0
2041,40216,0
2048,40224,0
2036,40241,0
2068,40216,0
2097,40211,0
2120,40225,0
2144,40196,0
2153,40192,0
2152,40190,0
2144,40183,0
2148,40182,0
2144,40189,0
2124,40189,0
2098,40203,0
2074,40176,0
2052,40163,0
2028,40183,0
2014,40160,0
2002,40157,0
1997,40167,0
1992,40155,0
2024,40147,0
2016,40166,0
2066,40142,0
2046,40154,0
2077,40138,0
2104,40124,0
2116,40148,0
2120,40130,0
2148,40114,0
2146,40137,0
2150,40101,0
2136,40106,0
2124,40133,0
2080,40080,0
2052,40110,0
2049,40119,0
2016,40088,0
2020,40092,0
2016,40119,0
2022,40102,0
1982,40077,0
2012,40079,0
2036,40101,0
2057,40083,0
2088,40103,0
2104,40084,0
2120,40098,0
2132,40109,0
2136,40090,0
2164,40099,0
2128,40096,0
2100,40083,0
2100,40107,0
2060,40087,0
2048,40076,0
2018,40096,0
2008,40069,0
2008,40082,0
1996,40107,0
2004,40076,0
2028,40085,0
2064,40096,0
2112,40072,0
2107,40081,0
2137,40101,0
2136,40081,0
2162,40081,0
2168,40103,0
2172,40090,0
2164,40091,0
2149,40107,0
2116,40086,0
2084,40092,0
2056,40078,0
2032,40109,0
2020,40112,0
2004,40085,0
2032,40109,0
2032,40100,0
2012,40088,0
2024,40114,0
2034,40096,0
2074,40089,0
2108,40107,0
2132,40075,0
2136,40086,0
2168,40104,0
2160,40068,0
2176,40086,0
2168,40105,0
2161,40061,0
2136,40087,0
2144,40110,0
2116,40077,0
2080,40082,0
2068,40116,0
2048,40094,0
2024,40083,0
2016,40116,0
2026,40091,0
2028,40100,0
2042,40099,0
2076,40022,0
2110,40081,0
2136,40076,0
2144,40074,0
2152,40077,0
2150,40071,0
2148,40086,0
2152,40068,0
2164,40058,0
2116,40086,0
2092,40045,0
2076,40048,0
2044,40069,0
2048,40041,0
2032,40044,0
2032,40067,0
2028,40040,0
2048,40037,0
2056,40056,0
2084,40043,0
2130,40051,0
2154,40062,0
2176,40032,0
2194,40050,0
2194,40042,0
2192,40032,0
2184,40052,0
2182,40016,0
2170,40023,0
2128,40047,0
2120,40008,0
2090,40016,0
2058,40022,0
2056,40017,0
2052,40009,0
2046,40020,0
2046,40015,0
2047,40048,0
2060,40009,0
2076,40031,0
2112,40024,0
2125,40019,0
2140,40034,0
2168,40004,0
2168,40005,0
2178,40029,0
2160,39989,0
2152,40016,0
2128,40023,0
2106,40000,0
2076,40008,0
2046,40030,0
2032,40012,0
2040,40008,0
2041,40025,0
2042,40014,0
2048,40005,0
2064,40026,0
2080,40020,0
2088,40023,0
2140,40035,0
2152,40020,0
2192,40032,0
2192,40036,0
2170,40009,0
2174,40016,0
2160,40023,0
2148,40031,0
2128,40024,0
2107,40025,0
2080,40056,0
2060,40036,0
2037,40032,0
2017,40055,0
2016,40015,0
2036,40030,0
2032,40049,0
2064,40017,0
2068,40024,0
2108,40049,0
2128,40042,0
2168,40034,0
2174,40061,0
2184,40052,0
2196,40047,0
2212,40076,0
2218,40060,0
2204,40076,0
2176,40083,0
2152,40064,0
2112,40090,0
2081,40077,0
2080,40073,0
2060,40094,0
2068,40059,0
2084,40072,0
2072,40072,0
2078,40072,0
2066,40083,0
2106,40110,0
2132,40070,0
2160,40103,0
2184,40089,0
2196,40089,0
2202,40108,0
2210,40089,0
2204,40088,0
2205,40127,0
2184,40099,0
2184,40117,0
2152,40126,0
2144,40109,0
2112,40128,0
2112,40124,0
2128,40104,0
2104,40144,0
2088,40102,0
2124,40114,0
2161,40135,0
2154,40100,0
2208,40117,0
2210,40140,0
2212,40108,0
2216,40123,0
2220,40134,0
2210,40123,0
2224,40128,0
2216,40140,0
2172,40144,0
2145,40164,0
2122,40164,0
2121,40143,0
2080,40160,0
2068,40110,0
2072,40126,0
2072,40149,0
2081,40117,0
2088,40129,0
2120,40153,0
2136,40134,0
2184,40131,0
2216,40155,0
2192,40134,0
2216,40130,0
2214,40170,0
2216,40143,0
2208,40145,0
2194,40169,0
2180,40141,0
2176,40156,0
2160,40153,0
2130,40148,0
2116,40145,0
2112,40156,0
2088,40134,0
2080,40161,0
2097,40145,0
2094,40140,0
2152,40164,0
2144,40132,0
2148,40142,0
2172,40143,0
2174,40132,0
2174,40140,0
2200,40160,0
2188,40119,0
2192,40131,0
2178,40159,0
2168,40126,0
2148,40143,0
2120,40166,0
2116,40155,0
2090,40136,0
2088,40162,0
2072,40150,0
2094,40155,0
2080,40163,0
2096,40142,0
2104,40165,0
2136,40168,0
2160,40150,0
2194,40175,0
2212,40153,0
2216,40144,0
2224,40168,0
2216,40140,0
2200,40140,0
2192,40166,0
2164,40137,0
2138,40143,0
2124,40166,0
2112,40158,0
2084,40155,0
2080,40187,0
2084,40153,0
2084,40165,0
2092,40156,0
2098,40177,0
2092,40154,0
2152,40175,0
2180,40146,0
2193,40159,0
2212,40170,0
2223,40167,0
2224,40153,0
2250,40184,0
2224,40136,0
2200,40153,0
2192,40179,0
2160,40154,0
2116,40159,0
2096,40180,0
2088,40157,0
2100,40162,0
2096,40189,0
2096,40167,0
2108,40177,0
2122,40181,0
2132,40178,0
2152,40176,0
2188,40196,0
2208,40182,0
2240,40191,0
2248,40185,0
2290,40191,0
2252,40190,0
2244,40162,0
2234,40161,0
2244,40172,0
2212,40197,0
2200,40175,0
2160,40174,0
2152,40209,0
2152,40195,0
2148,40199,0
2160,40203,0
2160,40188,0
2186,40214,0
2192,40180,0
2216,40184,0
2228,40209,0
2256,40178,0
2272,40195,0
2280,40200,0
2276,40182,0
2296,40190,0
2292,40215,0
2272,40193,0
2242,40194,0
2244,40223,0
2172,40192,0
2176,40198,0
2142,40229,0
2128,40198,0
2168,40200,0
2144,40183,0
2148,40211,0
2180,40207,0
2200,40210,0
2240,40206,0
2264,40205,0
2272,40212,0
2292,40187,0
2290,40198,0
2284,40217,0
2280,40205,0
2297,40200,0
2248,40220,0
2240,40195,0
2192,40194,0
2192,40209,0
2160,40205,0
2180,40201,0
2132,40217,0
2138,40202,0
2162,40188,0
2176,40219,0
2196,40193,0
2210,40214,0
2240,40219,0
2264,40196,0
2264,40214,0
2276,40177,0
2281,40180,0
2292,40207,0
2296,40174,0
2288,40187,0
2248,40169,0
2224,40212,0
2210,40200,0
2184,40208,0
2170,40212,0
2172,40197,0
2168,40175,0
2160,40188,0
2160,40207,0
2162,40158,0
2208,40172,0
2233,40197,0
2216,40165,0
2260,40175,0
2264,40196,0
2272,40171,0
2272,40165,0
2280,40194,0
2258,40179,0
2248,40174,0
2228,40198,0
2220,40176,0
2209,40183,0
2184,40191,0
2168,40168,0
2161,40189,0
2146,40177,0
2132,40164,0
2144,40188,0
2171,40157,0
2178,40165,0
2200,40187,0
2200,40169,0
2245,40194,0
2228,40185,0
2240,40158,0
2226,40179,0
2260,40153,0
2226,40162,0
2210,40178,0
2192,40142,0
2140,40150,0
2132,40175,0
2164,40152,0
2114,40162,0
2112,40177,0
2104,40153,0
2112,40155,0
2112,40186,0
2130,40152,0
2152,40151,0
2170,40188,0
2224,40155,0
2228,40165,0
2248,40176,0
2277,40167,0
2265,40181,0
2261,40178,0
2244,40172,0
2220,40185,0
2204,40174,0
2166,40167,0
2144,40179,0
2117,40181,0
2088,40160,0
2072,40163,0
2060,40159,0
2044,40169,0
2044,40166,0
2047,40156,0
2072,40169,0
2080,40186,0
2104,40151,0
2124,40167,0
2174,40173,0
2158,40167,0
2160,40165,0
2188,40199,0
2184,40177,0
2208,40189,0
2194,40199,0
2210,40178,0
2208,40196,0
2216,40181,0
2352,40182,0
2288,40196,0
2322,40162,0
2384,40186,0
2456,40202,0
2544,40163,0
2628,40170,0
2725,40198,0
2835,40171,0
2944,40185,0
3080,40214,0
3208,40191,0
3216,40203,0
3296,40210,0
3384,40184,0
3444,40227,0
3488,40187,0
3512,40196,0
3564,40214,0
3552,40191,0
3544,40210,0
3536,40226,0
3464,40202,0
3420,40227,0
3326,40224,0
3272,40209,0
3176,40223,0
3104,40220,0
3000,40203,0
2944,40236,0
2848,40210,0
2760,40204,0
2672,40222,0
2616,40197,0
2528,40217,0
2432,40226,0
2354,40194,0
2272,40200,0
2178,40228,0
2136,40215,0
2114,40210,0
2080,40237,0
2084,40218,0
2068,40219,0
2052,40225,0
2056,40199,0
2080,40214,0
2092,40238,0
2112,40227,0
2116,40223,0
2116,40212,0
2108,40240,0
2096,40216,0
2082,40224,0
2072,40248,0
2063,40207,0
2024,40242,0
2036,40235,0
1964,40210,0
1956,40238,0
1928,40219,0
1922,40219,0
1916,40238,0
1908,40214,0
1908,40208,0
1940,40251,0
1968,40216,0
2002,40217,0
2032,40235,0
2048,40188,0
2064,40213,0
2068,40231,0
2084,40187,0
2072,40204,0
2080,40228,0
2056,40208,0
2018,40239,0
1996,40204,0
1960,40223,0
1938,40238,0
1956,40243,0
1924,40215,0
1928,40225,0
1938,40215,0
1936,40224,0
1964,40232,0
1982,40206,0
2022,40239,0
2047,40215,0
2096,40205,0
2098,40234,0
2116,40197,0
2112,40219,0
2140,40236,0
2112,40199,0
2124,40217,0
2082,40235,0
2081,40202,0
2061,40207,0
2038,40238,0
2040,40212,0
2032,40213,0
2012,40238,0
2037,40222,0
2038,40217,0
2052,40239,0
2088,40219,0
2112,40224,0
2116,40220,0
2144,40239,0
2144,40236,0
2156,40241,0
2152,40258,0
2186,40219,0
2144,40217,0
2128,40248,0
2104,40215,0
2082,40239,0
2060,40240,0
2047,40228,0
2044,40234,0
2052,40241,0
2028,40226,0
2044,40247,0
2036,40232,0
2060,40235,0
2084,40246,0
2100,40211,0
2130,40228,0
2164,40248,0
2176,40205,0
2180,40218,0
2176,40239,0
2176,40212,0
2162,40224,0
2136,40250,0
2123,40217,0
2114,40220,0
2088,40243,0
2064,40219,0
2044,40238,0
2044,40263,0
2040,40251,0
2046,40259,0
2056,40227,0
2072,40249,0
2098,40233,0
2117,40224,0
2148,40247,0
2176,40245,0
2186,40232,0
2199,40257,0
2194,40233,0
2208,40233,0
2176,40251,0
2164,40239,0
2136,40244,0
2128,40267,0
2090,40245,0
2080,40257,0
2068,40271,0
2084,40246,0
2088,40266,0
2092,40248,0
2140,40248,0
2128,40260,0
2136,40255,0
2172,40234,0
2186,40257,0
2229,40230,0
2232,40232,0
2208,40247,0
2206,40246,0
2192,40252,0
2174,40245,0
2148,40255,0
2136,40251,0
2112,40253,0
2092,40265,0
2084,40238,0
2092,40250,0
2096,40259,0
2112,40226,0
2114,40249,0
2144,40263,0
2138,40236,0
2192,40234,0
2196,40273,0
2224,40245,0
2228,40249,0
2232,40275,0
2240,40241,0
2242,40238,0
2240,40266,0
2216,40242,0
2192,40250,0
2200,40267,0
2156,40252,0
2120,40267,0
2112,40262,0
2105,40246,0
2100,40266,0
2120,40256,0
2112,40247,0
2136,40232,0
2154,40240,0
2184,40236,0
2232,40236,0
2261,40258,0
2266,40227,0
2252,40242,0
2256,40259,0
2264,40226,0
2260,40258,0
2237,40229,0
2208,40221,0
2196,40247,0
2160,40228,0
2156,40207,0
2156,40249,0
2148,40218,0
2136,40222,0
2132,40243,0
2136,40213,0
2210,40217,0
2208,40234,0
2224,40195,0
2249,40207,0
2266,40231,0
2258,40206,0
2260,40212,0
2270,40241,0
2256,40218,0
2260,40222,0
2240,40236,0
2196,40211,0
2176,40234,0
2160,40213,0
2148,40228,0
2140,40211,0
2129,40210,0
2128,40209,0
2128,40246,0
2130,40219,0
2148,40222,0
2172,40223,0
2199,40219,0
2216,40228,0
2256,40240,0
2244,40216,0
2272,40231,0
2260,40235,0
2260,40221,0
2224,40234,0
2210,40231,0
2170,40217,0
2168,40245,0
2148,40207,0
2136,40217,0
2112,40234,0
2106,40196,0
2088,40215,0
2090,40229,0
2108,40205,0
2120,40212,0
2164,40233,0
2180,40217,0
2168,40235,0
2178,40223,0
2188,40225,0
2197,40244,0
2194,40246,0
2192,40244,0
2168,40245,0
2154,40229,0
2120,40264,0
2096,40215,0
2088,40236,0
2064,40246,0
2047,40216,0
2064,40227,0
2047,40254,0
2072,40234,0
2072,40249,0
2096,40257,0
2112,40234,0
2130,40221,0
2168,40251,0
2196,40238,0
2194,40260,0
2193,40241,0
2188,40227,0
2184,40256,0
2152,40227,0
2128,40230,0
2113,40257,0
2081,40221,0
2068,40234,0
2050,40250,0
2032,40262,0
2036,40249,0
2028,40253,0
2036,40270,0
2052,40258,0
2068,40234,0
2082,40259,0
2108,40245,0
2128,40231,0
2138,40243,0
2152,40231,0
2160,40232,0
2152,40256,0
2162,40210,0
2136,40239,0
2128,40253,0
2104,40217,0
2068,40231,0
2044,40250,0
2034,40225,0
2032,40233,0
2048,40248,0
2056,40226,0
2064,40228,0
2098,40249,0
2104,40225,0
2124,40238,0
2124,40254,0
2144,40233,0
2152,40230,0
2176,40251,0
2176,40233,0
2146,40229,0
2140,40238,0
2120,40228,0
2136,40239,0
2076,40242,0
2056,40225,0
2072,40250,0
2032,40237,0
2032,40232,0
2034,40248,0
2032,40223,0
2059,40251,0
2060,40237,0
2096,40218,0
2104,40244,0
2128,40233,0
2148,40225,0
2172,40239,0
2160,40214,0
2170,40219,0
2144,40234,0
2192,40217,0
2136,40219,0
2112,40247,0
2086,40233,0
2064,40227,0
2032,40243,0
2010,40231,0
2021,40251,0
2008,40245,0
2028,40236,0
2036,40234,0
2036,40219,0
2058,40224,0
2084,40225,0
2106,40216,0
2136,40240,0
2152,40257,0
2164,40229,0
2169,40238,0
2162,40246,0
2160,40225,0
2114,40243,0
2136,40236,0
2096,40210,0
2084,40231,0
2056,40199,0
2048,40214,0
2040,40227,0
2044,40187,0
2036,40209,0
2040,40216,0
2056,40181,0
2088,40192,0
2106,40204,0
2136,40185,0
2152,40181,0
2160,40209,0
2156,40177,0
2152,40178,0
2172,40194,0
2153,40163,0
2160,40177,0
2138,40166,0
2096,40156,0
2077,40155,0
2064,40154,0
2064,40138,0
2064,40178,0
2088,40129,0
2064,40127,0
2076,40136,0
2092,40117,0
2112,40108,0
2136,40123,0
2202,40100,0
2168,40098,0
2204,40107,0
2168,40091,0
2176,40106,0
2160,40117,0
2152,40086,0
2122,40092,0
2104,40090,0
2106,40074,0
2080,40096,0
2056,40079,0
2053,40064,0
2056,40087,0
2058,40056,0
2061,40064,0
2102,40083,0
2108,40042,0
2155,40049,0
2168,40066,0
2202,40038,0
2200,40073,0
2201,40057,0
2208,40064,0
2212,40071,0
2200,40035,0
2180,40043,0
2192,40064,0
2124,40036,0
2128,40049,0
2104,40065,0
2082,40046,0
2087,40047,0
2080,40067,0
2096,40053,0
2084,40050,0
2104,40071,0
2114,40049,0
2152,40067,0
2162,40073,0
2188,40051,0
2200,40070,0
2232,40064,0
2232,40057,0
2226,40079,0
2260,40054,0
2214,40054,0
2178,40075,0
2154,40032,0
2126,40057,0
2104,40071,0
2116,40049,0
2068,40107,0
2032,40068,0
2064,40066,0
2076,40057,0
2080,40066,0
2106,40085,0
2124,40046,0
2154,40061,0
2162,40086,0
2184,40082,0
2200,40074,0
2195,40098,0
2192,40080,0
2200,40089,0
2168,40089,0
2196,40089,0
2128,40106,0
2116,40092,0
2092,40084,0
2090,40107,0
2096,40069,0
2092,40077,0
2096,40106,0
2100,40070,0
2120,40082,0
2128,40108,0
2168,40086,0
2152,40087,0
2182,40107,0
2178,40095,0
2194,40086,0
2196,40109,0
2168,40107,0
2152,40117,0
2124,40118,0
2112,40101,0
2088,40118,0
2064,40098,0
2046,40112,0
2040,40090,0
2036,40100,0
2036,40116,0
2047,40099,0
2080,40101,0
2084,40120,0
2128,40100,0
2140,40096,0
2184,40126,0
2192,40112,0
2216,40124,0
2220,40127,0
2216,40106,0
2208,40126,0
2224,40123,0
2200,40110,0
2178,40116,0
2154,40106,0
2133,40106,0
2102,40115,0
2080,40079,0
2113,40101,0
2080,40123,0
2092,40101,0
2090,40104,0
2088,40110,0
2116,40111,0
2138,40112,0
2176,40109,0
2192,40116,0
2196,40125,0
2200,40109,0
2200,40134,0
2202,40112,0
2184,40108,0
2178,40135,0
2180,40094,0
2120,40110,0
2122,40128,0
2092,40103,0
2096,40116,0
2084,40133,0
2096,40112,0
2088,40112,0
2100,40130,0
2112,40115,0
2152,40123,0
2200,40129,0
2197,40125,0
2224,40139,0
2224,40129,0
2212,40113,0
2208,40146,0
2219,40114,0
2204,40115,0
2184,40142,0
2170,40104,0
2120,40123,0
2104,40133,0
2096,40140,0
2104,40147,0
2072,40144,0
2074,40124,0
2080,40141,0
2096,40113,0
2112,40128,0
2160,40149,0
2160,40126,0
2184,40133,0
2188,40154,0
2224,40138,0
2208,40156,0
2216,40153,0
2204,40140,0
2200,40158,0
2184,40129,0
2140,40136,0
2120,40167,0
2116,40132,0
2098,40135,0
2084,40165,0
2089,40128,0
2091,40135,0
2080,40159,0
2100,40151,0
2117,40142,0
2132,40171,0
2176,40144,0
2200,40155,0
2192,40137,0
2194,40148,0
2224,40147,0
2184,40148,0
2184,40158,0
2170,40179,0
2152,40141,0
2160,40156,0
2104,40178,0
2081,40143,0
2080,40139,0
2080,40183,0
2072,40163,0
1978,40155,0
2080,40181,0
2124,40155,0
2128,40167,0
2164,40176,0
2180,40150,0
2204,40178,0
2224,40171,0
2264,40162,0
2262,40184,0
2272,40143,0
2264,40165,0
2258,40174,0
2228,40148,0
2196,40153,0
2186,40189,0
2164,40159,0
2156,40157,0
2138,40181,0
2140,40174,0
2116,40173,0
2120,40164,0
2133,40170,0
2148,40160,0
2172,40170,0
2200,40168,0
2260,40185,0
2236,40195,0
2252,40163,0
2256,40177,0
2263,40163,0
2248,40157,0
2256,40194,0
2212,40147,0
2202,40170,0
2160,40182,0
2160,40149,0
2140,40170,0
2124,40186,0
2120,40167,0
2144,40170,0
2148,40191,0
2154,40170,0
2185,40188,0
2213,40184,0
2220,40179,0
2244,40197,0
2272,40169,0
2266,40186,0
2288,40196,0
2290,40158,0
2250,40186,0
2240,40189,0
2228,40198,0
2197,40190,0
2172,40203,0
2172,40185,0
2164,40196,0
2120,40190,0
2128,40175,0
2120,40209,0
2128,40163,0
2144,40172,0
2152,40200,0
2192,40187,0
2200,40174,0
2224,40204,0
2216,40186,0
2240,40190,0
2224,40210,0
2224,40196,0
2216,40193,0
2216,40223,0
2189,40197,0
2184,40206,0
2141,40208,0
2124,40192,0
2101,40224,0
2120,40198,0
2093,40200,0
2138,40221,0
2128,40190,0
2128,40198,0
2136,40200,0
2184,40208,0
2184,40207,0
2228,40208,0
2216,40219,0
2220,40221,0
2218,40193,0
2216,40204,0
2200,40227,0
2182,40189,0
2168,40205,0
2154,40229,0
2124,40206,0
2112,40207,0
2090,40233,0
2096,40207,0
2084,40233,0
2112,40212,0
2088,40212,0
2108,40242,0
2130,40194,0
2176,40197,0
2208,40218,0
2228,40200,0
2240,40206,0
2241,40218,0
2236,40206,0
2232,40200,0
2220,40221,0
2208,40200,0
2200,40215,0
2168,40211,0
2120,40199,0
2104,40219,0
2096,40212,0
2090,40207,0
2100,40195,0
2098,40207,0
2084,40172,0
2122,40192,0
2144,40209,0
2169,40188,0
2220,40190,0
2215,40200,0
2216,40183,0
2240,40187,0
2216,40204,0
2224,40177,0
2192,40183,0
2180,40200,0
2160,40172,0
2108,40188,0
2072,40165,0
2064,40164,0
2050,40179,0
2040,40154,0
2029,40162,0
2026,40181,0
2020,40143,0
2026,40157,0
2068,40166,0
2080,40150,0
2156,40155,0
2160,40095,0
2160,40164,0
2192,40170,0
2204,40170,0
2226,40152,0
2240,40136,0
2256,40136,0
2268,40154,0
2296,40127,0
2330,40136,0
2392,40162,0
2444,40132,0
2504,40125,0
2612,40143,0
2680,40131,0
2810,40139,0
2868,40122,0
3016,40116,0
3088,40132,0
3184,40097,0
3320,40111,0
3400,40126,0
3468,40090,0
3536,40096,0
3584,40124,0
3592,40089,0
3548,40100,0
3516,40129,0
3460,40097,0
3378,40092,0
3328,40115,0
3216,40099,0
3068,40095,0
2960,40096,0
2864,40132,0
2720,40107,0
2712,40077,0
2644,40095,0
2592,40107,0
2540,40095,0
2468,40105,0
2412,40091,0
2348,40089,0
2300,40109,0
2248,40075,0
2216,40081,0
2160,40106,0
2128,40072,0
2080,40078,0
2064,40096,0
2032,40073,0
2016,40062,0
2008,40092,0
2000,40079,0
2005,40090,0
2000,40098,0
2009,40086,0
2028,40098,0
2032,40070,0
2044,40072,0
2044,40093,0
2048,40072,0
2050,40070,0
2048,40103,0
2016,40077,0
1996,40080,0
1970,40081,0
1968,40081,0
1932,40086,0
1913,40076,0
1928,40087,0
1908,40104,0
1922,40088,0
1919,40088,0
1938,40104,0
1983,40086,0
1980,40102,0
2016,40107,0
2032,40086,0
2080,40111,0
2068,40084,0
2088,40088,0
2080,40109,0
2084,40077,0
2084,40096,0
2096,40128,0
2074,40087,0
2056,40089,0
2037,40113,0
2032,40098,0
2018,40115,0
2020,40124,0
2034,40106,0
2032,40132,0
2048,40108,0
2084,40108,0
2100,40087,0
2116,40106,0
2138,40115,0
2164,40098,0
2170,40111,0
2184,40130,0
2174,40122,0
2204,40114,0
2174,40128,0
2172,40106,0
2156,40104,0
2140,40125,0
2124,40083,0
2120,40108,0
2104,40126,0
2120,40098,0
2140,40104,0
2128,40128,0
2128,40110,0
2168,40115,0
2178,40134,0
2228,40107,0
2257,40127,0
2280,40132,0
2284,40107,0
2282,40127,0
2276,40118,0
2282,40105,0
2321,40123,0
2256,40098,0
2248,40111,0
2218,40137,0
2180,40126,0
2160,40136,0
2148,40129,0
2184,40128,0
2172,40130,0
2168,40088,0
2184,40105,0
2208,40122,0
2226,40093,0
2288,40107,0
2276,40119,0
2307,40109,0
2330,40104,0
2356,40128,0
2312,40116,0
2344,40123,0
2306,40129,0
2300,40109,0
2256,40119,0
2240,40124,0
2248,40109,0
2224,40140,0
2216,40113,0
2224,40116,0
2233,40131,0
2266,40104,0
2224,40109,0
2272,40137,0
2274,40094,0
2310,40114,0
2356,40126,0
2378,40108,0
2360,40110,0
2364,40124,0
2360,40110,0
2384,40119,0
2352,40122,0
2332,40115,0
2312,40120,0
2288,40103,0
2256,40115,0
2248,40144,0
2252,40114,0
2237,40120,0
2228,40146,0
2248,40118,0
2244,40121,0
2272,40140,0
2288,40126,0
2298,40146,0
2312,40126,0
2352,40117,0
2336,40140,0
2370,40100,0
2372,40117,0
2380,40138,0
2368,40115,0
2352,40116,0
2312,40139,0
2284,40131,0
2264,40121,0
2262,40140,0
2260,40129,0
2257,40125,0
2226,40120,0
2238,40118,0
2256,40133,0
2282,40121,0
2328,40129,0
2320,40094,0
2356,40112,0
2364,40126,0
2372,40083,0
2384,40108,0
2368,40125,0
2384,40096,0
2354,40100,0
2364,40122,0
2314,40102,0
2328,40102,0
2272,40118,0
2240,40100,0
2252,40109,0
2284,40095,0
2256,40089,0
2292,40107,0
2304,40086,0
2328,40083,0
2396,40101,0
2432,40067,0
2408,40078,0
2424,40100,0
2434,40071,0
2441,40070,0
2458,40089,0
2464,40061,0
2428,40070,0
2404,40077,0
2368,40073,0
2344,40077,0
2312,40065,0
2298,40084,0
2282,40048,0
2281,40068,0
2288,40091,0
2292,40051,0
2300,40054,0
2325,40076,0
2344,40060,0
2384,40059,0
2388,40072,0
2416,40045,0
2418,40065,0
2432,40081,0
2420,40053,0
2400,40064,0
2388,40041,0
2384,40051,0
2360,40065,0
2330,40025,0
2316,40037,0
2297,40051,0
2280,40026,0
2277,40034,0
2284,40061,0
2283,40035,0
2320,40037,0
2362,40065,0
2340,40029,0
2353,40042,0
2388,40031,0
2402,40044,0
2412,40035,0
2412,40031,0
2416,40041,0
2412,40015,0
2436,40032,0
2410,40053,0
2360,40028,0
2346,40022,0
2308,40046,0
2344,40027,0
2272,40033,0
2288,40053,0
2280,40041,0
2304,40024,0
