ECG,IR,PCG
2242,74169,0
2240,74128,0
2225,74162,0
2220,74159,0
2224,74156,0
2218,74140,0
2208,74100,0
2218,74180,0
2196,74156,0
2204,74166,0
2189,74134,0
2196,74101,0
2188,74175,0
2196,74156,0
2208,74180,0
2236,74142,0
2220,74147,0
2234,74167,0
2245,74148,0
2272,74188,0
2290,74145,0
2304,74172,0
2321,74167,0
2352,74168,0
2368,74202,0
2392,74155,0
2432,74168,0
2468,74152,0
2528,74130,0
2585,74212,0
2624,74137,0
2674,74179,0
2688,74169,0
2740,74157,0
2796,74134,0
2840,74147,0
2900,74167,0
2950,74115,0
2984,74161,0
3026,74156,0
3056,74203,0
3068,74145,0
3080,74164,0
3081,74153,0
3066,74141,0
3052,74197,0
3040,74167,0
3016,74179,0
2980,74163,0
2946,74116,0
2908,74199,0
2928,74150,0
2872,74190,0
2816,74151,0
2768,74105,0
2712,74208,0
2652,74147,0
2612,74192,0
2574,74156,0
2532,74111,0
2508,74195,0
2472,74162,0
2434,74189,0
2390,74164,0
2330,74129,0
2302,74155,0
2280,74165,0
2252,74159,0
2238,74165,0
2208,74176,0
2196,74214,0
2178,74155,0
2164,74123,0
2152,74196,0
2138,74176,0
2122,74198,0
2112,74153,0
2118,74120,0
2104,74215,0
2088,74165,0
2084,74211,0
2088,74176,0
2080,74149,0
2096,74181,0
2096,74174,0
2084,74204,0
2088,74163,0
2088,74188,0
2064,74198,0
2068,74175,0
2068,74209,0
2057,74182,0
2080,74206,0
2060,74162,0
2064,74139,0
2064,74233,0
2038,74177,0
2042,74204,0
2040,74187,0
2032,74166,0
2044,74207,0
2040,74234,0
2047,74188,0
2047,74207,0
2052,74174,0
2054,74150,0
2053,74237,0
2060,74196,0
2066,74212,0
2066,74204,0
2080,74134,0
2082,74225,0
2080,74194,0
2090,74207,0
2098,74196,0
2144,74159,0
2132,74242,0
2120,74210,0
2124,74207,0
2128,74197,0
2120,74141,0
2120,74248,0
2117,74216,0
2120,74232,0
2116,74204,0
2132,74176,0
2120,74242,0
2132,74207,0
2112,74208,0
2112,74197,0
2112,74217,0
2116,74232,0
2116,74227,0
2120,74207,0
2128,74237,0
2132,74218,0
2141,74169,0
2140,74254,0
2137,74211,0
2144,74233,0
2148,74227,0
2146,74174,0
2140,74278,0
2148,74215,0
2152,74239,0
2152,74212,0
2146,74217,0
2168,74241,0
2172,74215,0
2182,74273,0
2176,74244,0
2177,74268,0
2154,74229,0
2168,74210,0
2168,74273,0
2162,74240,0
2180,74247,0
2176,74234,0
2184,74199,0
2176,74281,0
2156,74214,0
2154,74231,0
2160,74236,0
2152,74240,0
2156,74248,0
2164,74294,0
2160,74248,0
2160,74257,0
2162,74246,0
2162,74202,0
2169,74274,0
2164,74250,0
2164,74267,0
2172,74238,0
2172,74226,0
2180,74282,0
2178,74251,0
2170,74293,0
2177,74242,0
2200,74226,0
2208,74297,0
2212,74262,0
2208,74309,0
2210,74279,0
2201,74232,0
2216,74287,0
2204,74272,0
2200,74304,0
2208,74259,0
2209,74242,0
2208,74284,0
2209,74273,0
2188,74290,0
2188,74243,0
2185,74298,0
2192,74276,0
2192,74288,0
2192,74294,0
2184,74288,0
2194,74307,0
2200,74271,0
2192,74251,0
2194,74295,0
2198,74285,0
2192,74311,0
2204,74266,0
2192,74268,0
2202,74296,0
2196,74281,0
2197,74325,0
2196,74288,0
2232,74305,0
2228,74297,0
2240,74286,0
2242,74318,0
2241,74302,0
2220,74292,0
2230,74275,0
2235,74269,0
2226,74321,0
2224,74294,0
2232,74300,0
2236,74286,0
2240,74276,0
2202,74290,0
2198,74286,0
2208,74265,0
2209,74282,0
2208,74286,0
2216,74273,0
2208,74270,0
2212,74283,0
2216,74270,0
2208,74296,0
2218,74271,0
2316,74256,0
2220,74264,0
2216,74259,0
2216,74290,0
2216,74253,0
2216,74274,0
2214,74253,0
2212,74227,0
2234,74267,0
2240,74250,0
2236,74241,0
2248,74230,0
2250,74232,0
2234,74274,0
2238,74224,0
2240,74248,0
2238,74219,0
2256,74191,0
2258,74253,0
2257,74226,0
2250,74232,0
2230,74210,0
2229,74214,0
2228,74174,0
2232,74194,0
2236,74209,0
2296,74190,0
2232,74225,0
2234,74186,0
2229,74200,0
2240,74172,0
2232,74141,0
2232,74213,0
2236,74182,0
2256,74192,0
2236,74163,0
2236,74154,0
2232,74215,0
2236,74156,0
2236,74187,0
2264,74173,0
2276,74120,0
2272,74190,0
2272,74154,0
2272,74158,0
2252,74149,0
2256,74114,0
2254,74184,0
2242,74137,0
2262,74168,0
2256,74138,0
2256,74096,0
2220,74075,0
2224,74085,0
2216,74142,0
2224,74129,0
2224,74118,0
2228,74142,0
2232,74129,0
2229,74102,0
2228,74152,0
2228,74103,0
2236,74122,0
2244,74107,0
2234,74079,0
2240,74146,0
2241,74100,0
2238,74117,0
2240,74092,0
2224,74071,0
2256,74120,0
2256,74094,0
2250,74099,0
2256,74082,0
2244,74073,0
2252,74131,0
2232,74089,0
2236,74103,0
2236,74084,0
2227,74029,0
2236,74115,0
2236,74095,0
2224,74092,0
2218,74070,0
2184,74075,0
2190,74050,0
2176,74084,0
2178,74026,0
2178,74108,0
2176,74094,0
2177,74056,0
2185,74096,0
2184,74064,0
2188,74024,0
2197,74094,0
2188,74072,0
2200,74092,0
2200,74075,0
2193,74045,0
2212,74081,0
2208,74065,0
2200,74096,0
2204,74056,0
2218,74069,0
2252,74062,0
2236,74037,0
2240,74096,0
2240,74057,0
2224,74071,0
2226,74044,0
2228,74012,0
2228,74103,0
2244,74059,0
2242,74094,0
2240,74056,0
2236,74008,0
2216,74059,0
2218,74049,0
2226,74088,0
2216,74040,0
2232,74047,0
2225,74052,0
2224,74005,0
2228,74086,0
2226,74048,0
2228,74071,0
2224,74039,0
2222,74042,0
2229,74099,0
2224,74051,0
2225,74089,0
2232,74039,0
2232,74014,0
2237,74113,0
2232,74052,0
2264,74083,0
2268,74061,0
2266,74002,0
2268,74100,0
2272,74056,0
2250,74088,0
2260,74060,0
2254,74018,0
2244,74081,0
2264,74050,0
2256,74086,0
2260,74063,0
2252,74075,0
2216,74073,0
2225,74095,0
2222,74052,0
2216,74067,0
2224,74079,0
2212,74067,0
2216,74065,0
2224,74063,0
2232,74047,0
2240,74100,0
2240,74041,0
2229,74075,0
2242,74066,0
2240,74033,0
2238,74091,0
2248,74062,0
2250,74102,0
2240,74045,0
2240,74019,0
2264,74098,0
2272,74062,0
2276,74079,0
2260,74069,0
2262,74036,0
2252,74090,0
2240,74079,0
2240,74079,0
2232,74049,0
2244,74071,0
2252,74045,0
2252,74031,0
2244,74092,0
2224,74060,0
2216,74049,0
2224,74057,0
2224,74042,0
2220,74056,0
2224,74075,0
2216,74067,0
2216,74048,0
2218,74092,0
2217,74057,0
2226,74067,0
2232,74049,0
2228,74047,0
2232,74104,0
2225,74054,0
2233,74083,0
2240,74049,0
2236,74023,0
2240,74114,0
2272,74051,0
2272,74070,0
2274,74078,0
2272,74018,0
2274,74103,0
2256,74058,0
2260,74077,0
2260,74062,0
2250,74032,0
2264,74075,0
2276,74054,0
2260,74083,0
2264,74064,0
2228,74065,0
2232,74091,0
2236,74045,0
2232,74050,0
2224,74056,0
2232,74099,0
2232,74070,0
2242,74092,0
2232,74055,0
2224,74023,0
2232,74092,0
2234,74056,0
2237,74084,0
2236,74061,0
2248,74046,0
2256,74077,0
2252,74058,0
2256,74109,0
2260,74069,0
2284,74084,0
2292,74063,0
2289,74040,0
2296,74115,0
2282,74077,0
2272,74095,0
2264,74052,0
2272,74023,0
2262,74108,0
2288,74060,0
2280,74092,0
2282,74061,0
2268,74021,0
2250,74067,0
2242,74050,0
2246,74088,0
2240,74090,0
2236,74086,0
2232,74090,0
2241,74051,0
2234,74034,0
2244,74110,0
2256,74075,0
2250,74099,0
2248,74082,0
2256,74036,0
2258,74120,0
2266,74069,0
2268,74095,0
2256,74066,0
2268,74042,0
2277,74101,0
2304,74086,0
2312,74086,0
2312,74063,0
2308,74029,0
2308,74075,0
2296,74072,0
2304,74105,0
2296,74075,0
2288,74074,0
2304,74083,0
2320,74050,0
2314,74108,0
2306,74069,0
2272,74064,0
2284,74087,0
2276,74114,0
2280,74067,0
2272,74089,0
2269,74073,0
2269,74021,0
2264,74110,0
2268,74077,0
2266,74101,0
2264,74041,0
2256,74064,0
2266,74062,0
2268,74060,0
2260,74079,0
2264,74075,0
2268,74083,0
2274,74061,0
2276,74049,0
2296,74088,0
2304,74068,0
2305,74099,0
2304,74057,0
2304,74021,0
2352,74123,0
2289,74050,0
2296,74081,0
2280,74064,0
2296,74036,0
2304,74097,0
2304,74070,0
2304,74089,0
2268,74058,0
2268,74063,0
2272,74050,0
2278,74071,0
2280,74058,0
2292,74033,0
2302,74102,0
2316,74052,0
2336,74081,0
2344,74057,0
2364,74057,0
2374,74060,0
2392,74041,0
2398,74095,0
2410,74053,0
2429,74070,0
2428,74064,0
2432,74023,0
2444,74081,0
2484,74044,0
2500,74069,0
2508,74045,0
2512,73998,0
2521,74094,0
2496,74052,0
2505,74085,0
2512,74049,0
2498,73981,0
2520,74092,0
2516,74046,0
2508,74077,0
2472,74057,0
2472,74063,0
2468,74038,0
2466,74058,0
2464,74058,0
2456,74059,0
2452,74024,0
2559,74050,0
2448,74043,0
2444,74095,0
2448,74038,0
2440,74047,0
2444,74055,0
2444,74032,0
2440,74082,0
2448,74031,0
2440,74043,0
2436,74070,0
2466,74050,0
2468,74072,0
2464,74055,0
2468,74063,0
2460,74037,0
2464,74040,0
2452,74077,0
2444,74049,0
2450,74072,0
2434,74054,0
2448,74010,0
2452,74115,0
2448,74045,0
2436,74078,0
2416,74069,0
2412,74070,0
2404,74023,0
2408,74034,0
2396,74085,0
2418,74044,0
2421,74080,0
2432,74037,0
2420,74073,0
2428,74041,0
2436,74063,0
2436,74068,0
2440,74057,0
2440,74109,0
2442,74044,0
2440,74083,0
2448,74065,0
2454,74019,0
2466,74104,0
2496,74063,0
2498,74078,0
2496,74052,0
2504,74071,0
2502,74063,0
2482,74063,0
2484,74095,0
2485,74065,0
2478,74094,0
2504,74070,0
2504,74052,0
2512,74112,0
2500,74065,0
2482,74069,0
2476,74080,0
2468,74094,0
2470,74038,0
2460,74053,0
2460,74084,0
2461,74070,0
2464,74113,0
2464,74069,0
2456,74084,0
2458,74066,0
2448,74071,0
2444,74112,0
2452,74089,0
2456,74104,0
2460,74083,0
2450,74056,0
2450,74125,0
2442,74082,0
2476,74094,0
2472,74086,0
2472,74045,0
2456,74132,0
2464,74091,0
2448,74111,0
2448,74092,0
2436,74035,0
2426,74137,0
2436,74082,0
2432,74108,0
2420,74070,0
2424,74052,0
2374,74119,0
2367,74133,0
2364,74109,0
2366,74101,0
2362,74099,0
2352,74098,0
2352,74134,0
2360,74098,0
2372,74070,0
2368,74157,0
2380,74115,0
2412,74133,0
2410,74090,0
2426,74058,0
2444,74131,0
2464,74109,0
2486,74130,0
2516,74093,0
2556,74069,0
2632,74124,0
2664,74101,0
2721,74129,0
2764,74105,0
2816,74095,0
2852,74110,0
2908,74108,0
2965,74133,0
3012,74114,0
3084,74128,0
3140,74110,0
3184,74087,0
3212,74151,0
3202,74109,0
3232,74135,0
3244,74102,0
3236,74144,0
3252,74115,0
3232,74142,0
3216,74109,0
3196,74089,0
3164,74123,0
3144,74112,0
3114,74138,0
3084,74116,0
3052,74096,0
3016,74135,0
2960,74112,0
2916,74151,0
2872,74115,0
2828,74107,0
2788,74129,0
2792,74125,0
2752,74144,0
2700,74122,0
2688,74133,0
2664,74130,0
2608,74122,0
2584,74153,0
2545,74131,0
2504,74146,0
2504,74134,0
2468,74103,0
2436,74166,0
2412,74137,0
2360,74127,0
2332,74141,0
2316,74159,0
2284,74116,0
2272,74131,0
2260,74135,0
2252,74108,0
2229,74160,0
2222,74132,0
2221,74133,0
2212,74128,0
2205,74117,0
2220,74159,0
2208,74134,0
2208,74163,0
2208,74117,0
2212,74102,0
2208,74185,0
2208,74140,0
2240,74157,0
2244,74129,0
2236,74062,0
2232,74172,0
2236,74140,0
2214,74163,0
2224,74139,0
2224,74113,0
2224,74174,0
2240,74133,0
2236,74172,0
2228,74115,0
2228,74156,0
2202,74129,0
2200,74150,0
2193,74110,0
2200,74161,0
2189,74147,0
2204,74096,0
2198,74177,0
2198,74149,0
2208,74154,0
2204,74136,0
2216,74119,0
2216,74168,0
2208,74128,0
2202,74162,0
2212,74163,0
2216,74120,0
2210,74137,0
2208,74132,0
2202,74151,0
2228,74149,0
2236,74145,0
2226,74148,0
2232,74114,0
2230,74171,0
2212,74153,0
2216,74171,0
2217,74141,0
2216,74117,0
2232,74180,0
2226,74146,0
2232,74171,0
2220,74146,0
2202,74147,0
2196,74157,0
2193,74175,0
2196,74136,0
2200,74146,0
2197,74183,0
2188,74157,0
2194,74175,0
2180,74139,0
2182,74139,0
2188,74174,0
2188,74162,0
2202,74176,0
2204,74147,0
2200,74170,0
2213,74152,0
2208,74133,0
2212,74209,0
2220,74149,0
2240,74187,0
2244,74161,0
2250,74114,0
2256,74209,0
2252,74166,0
2232,74187,0
2232,74165,0
2234,74120,0
2224,74211,0
2236,74166,0
2248,74183,0
2248,74182,0
2252,74141,0
2222,74172,0
2220,74159,0
2229,74148,0
2232,74168,0
2220,74150,0
2220,74135,0
2216,74220,0
2228,74184,0
2218,74208,0
2228,74177,0
2236,74112,0
2232,74208,0
2228,74179,0
2238,74222,0
2228,74180,0
2230,74188,0
2232,74173,0
2233,74164,0
2224,74224,0
2258,74153,0
2253,74197,0
2244,74169,0
2242,74143,0
2257,74237,0
2224,74188,0
2232,74222,0
2244,74189,0
2240,74149,0
2248,74218,0
2250,74180,0
2244,74215,0
2248,74198,0
2224,74226,0
2228,74175,0
2228,74196,0
2216,74169,0
2218,74226,0
2232,74195,0
2174,74142,0
2228,74194,0
2228,74203,0
2238,74224,0
2228,74188,0
2226,74187,0
2228,74217,0
2228,74208,0
2224,74218,0
2228,74195,0
2236,74184,0
2228,74216,0
2240,74185,0
2266,74223,0
2276,74187,0
2282,74207,0
2290,74204,0
2288,74189,0
2280,74209,0
2306,74204,0
2292,74192,0
2286,74190,0
2304,74179,0
2304,74232,0
2312,74174,0
2268,74110,0
2264,74196,0
2266,74182,0
2266,74168,0
2268,74164,0
2264,74175,0
2260,74181,0
2268,74166,0
2268,74202,0
2273,74182,0
2272,74190,0
2264,74184,0
2272,74151,0
2268,74198,0
2260,74145,0
2264,74184,0
2264,74168,0
2264,74138,0
2293,74204,0
2294,74166,0
2284,74181,0
2292,74142,0
2298,74099,0
2284,74196,0
2264,74139,0
2281,74172,0
2264,74133,0
2262,74090,0
2264,74172,0
2268,74129,0
2265,74148,0
2256,74115,0
2232,74025,0
2224,74127,0
2224,74139,0
2224,74114,0
2224,74142,0
2226,74137,0
2218,74107,0
2224,74081,0
2224,74118,0
2224,74103,0
2226,74126,0
2218,74085,0
2212,74095,0
2212,74090,0
2216,74065,0
2210,74126,0
2220,74069,0
2216,74112,0
2212,74085,0
2240,74046,0
2240,74121,0
2240,74067,0
2240,74094,0
2242,74049,0
2228,74011,0
2220,74110,0
2226,74065,0
2218,74088,0
2228,74058,0
2216,74021,0
2212,74064,0
2202,74037,0
2180,74025,0
2169,74029,0
2162,74062,0
2168,74032,0
2162,74038,0
2170,74013,0
2168,73968,0
2164,74054,0
2154,74031,0
2160,74038,0
2162,74008,0
2152,74008,0
2168,74027,0
2164,74015,0
2156,74040,0
2170,74016,0
2170,74021,0
2172,74007,0
2176,73963,0
2200,74045,0
2200,74006,0
2196,74035,0
2192,73991,0
2208,73963,0
2176,74029,0
2186,73991,0
2172,74028,0
2172,74000,0
2176,73952,0
2164,74040,0
2180,73991,0
2169,74022,0
2141,73962,0
2145,73990,0
2132,74000,0
2133,73990,0
2136,73991,0
2136,74005,0
2132,74025,0
2136,73995,0
2136,73988,0
2132,73986,0
2136,73973,0
2138,74008,0
2144,73966,0
2148,73979,0
2152,73971,0
2148,73977,0
2154,74001,0
2160,73966,0
2160,73948,0
2184,74002,0
2184,73970,0
2188,74004,0
2180,73978,0
2188,73942,0
2168,74010,0
2176,73972,0
2166,74003,0
2168,73964,0
2186,73960,0
2204,73988,0
2188,73966,0
2204,74005,0
2168,74001,0
2168,73943,0
2168,73955,0
2162,73958,0
2164,74007,0
2160,73952,0
2168,73969,0
2170,73979,0
2168,73962,0
2168,74007,0
2164,73974,0
2173,73987,0
2164,73980,0
2164,73980,0
2168,74013,0
2162,73980,0
2154,73987,0
2160,73959,0
2161,73966,0
2196,74024,0
2188,73984,0
2196,73999,0
2200,73969,0
2196,73953,0
2188,74030,0
2186,73978,0
2184,73996,0
2180,73986,0
2200,73925,0
2208,74009,0
2197,73974,0
2204,73990,0
2184,73989,0
2186,73986,0
2180,74018,0
2180,73974,0
2184,73988,0
2178,73971,0
2184,73956,0
2184,74006,0
2186,73974,0
2192,74004,0
2194,73993,0
2192,73957,0
2068,73987,0
2202,73974,0
2208,74025,0
2210,73998,0
2216,73992,0
2209,73980,0
2208,73960,0
2234,74028,0
2240,73961,0
2234,73993,0
2244,73978,0
2242,73991,0
2240,74027,0
2242,73995,0
2241,74019,0
2244,73972,0
2248,73945,0
2256,74052,0
2250,73981,0
2252,74013,0
2220,73977,0
2220,73951,0
2230,74010,0
2220,73993,0
2220,73955,0
2224,74037,0
2220,73989,0
2220,74022,0
2216,73986,0
2228,73934,0
2228,74051,0
2216,73993,0
2212,74019,0
2224,73988,0
2220,73963,0
2224,73990,0
2220,74010,0
2224,74028,0
2237,73997,0
2256,74009,0
2260,74012,0
2265,73992,0
2264,74029,0
2268,73998,0
2256,73989,0
2264,74008,0
2262,74007,0
2250,74019,0
2276,73982,0
2272,73992,0
2266,73999,0
2272,73979,0
2228,74013,0
2228,73999,0
2232,73971,0
2224,74042,0
2218,74055,0
2216,73992,0
2225,73963,0
2212,74020,0
2210,73994,0
2204,73996,0
2209,74004,0
2264,73971,0
2201,74021,0
2208,73987,0
2202,74009,0
2208,73986,0
2204,73980,0
2200,74009,0
2208,74013,0
2240,74015,0
2232,73981,0
2228,73941,0
2240,74040,0
2240,73993,0
2232,74021,0
2241,74001,0
2234,73929,0
2236,74034,0
2248,73999,0
2256,74025,0
2260,73993,0
2258,73946,0
2238,73986,0
2232,74006,0
2228,74001,0
2228,74014,0
2224,74022,0
2224,73976,0
2228,74007,0
2226,74003,0
2226,73963,0
2228,74023,0
2224,73962,0
2220,73996,0
2224,73995,0
2224,73968,0
2220,74020,0
2224,73968,0
2224,74006,0
2224,73970,0
2228,73944,0
2244,74024,0
2246,73991,0
2248,74009,0
2252,73972,0
2252,73965,0
2244,74033,0
2244,73978,0
2244,74010,0
2226,73973,0
2248,73944,0
2234,74021,0
2240,73968,0
2233,73994,0
2212,73976,0
2216,74015,0
2218,73976,0
2220,73974,0
2224,74001,0
2218,73973,0
2228,73969,0
2236,73984,0
2332,73975,0
2244,73994,0
2248,73982,0
2252,73967,0
2258,73975,0
2266,73973,0
2266,73998,0
2264,73951,0
2264,73955,0
2276,73969,0
2266,73965,0
2296,73977,0
2292,73956,0
2290,73955,0
2296,73972,0
2292,73947,0
2280,74010,0
2292,73960,0
2294,73971,0
2273,73958,0
2296,73934,0
2304,73998,0
2290,73954,0
2249,73960,0
2240,73973,0
2240,73941,0
2239,73947,0
2232,73924,0
2240,73989,0
2240,73962,0
2232,73917,0
2224,74004,0
2234,73970,0
2240,73996,0
2236,73951,0
2236,73919,0
2248,74010,0
2238,73954,0
2242,73999,0
2240,73959,0
2242,73930,0
2260,73963,0
2262,73969,0
2272,73984,0
2261,73951,0
2248,73956,0
2258,73959,0
2240,73945,0
2240,73989,0
2244,73962,0
2226,73967,0
2232,73962,0
2232,73960,0
2232,73996,0
2224,73946,0
2198,73960,0
2200,73937,0
2208,73964,0
2200,73982,0
2208,73937,0
2208,73971,0
2212,73957,0
2216,73990,0
2204,73965,0
2200,73991,0
2208,73970,0
2208,73980,0
2200,73961,0
2196,73965,0
2200,73992,0
2196,73985,0
2192,73998,0
2196,73976,0
2192,73971,0
2224,74020,0
2216,73975,0
2216,73999,0
2216,73980,0
2224,73963,0
2224,74026,0
2212,73985,0
2208,74009,0
2208,73986,0
2228,73935,0
2234,74021,0
2218,74005,0
2216,74026,0
2184,74013,0
2180,73987,0
2170,73988,0
2172,74009,0
2172,74026,0
2180,73995,0
2172,74019,0
2168,74005,0
2168,73956,0
2170,74049,0
2170,74019,0
2176,74021,0
2170,74011,0
2170,73956,0
2170,74060,0
2180,74004,0
2170,74036,0
2176,74010,0
2168,73969,0
2208,74067,0
2196,74013,0
2194,74039,0
2192,74021,0
2192,73997,0
2184,74057,0
2190,74010,0
2192,74041,0
2172,74015,0
2192,73984,0
2176,74067,0
2176,74029,0
2176,74061,0
2140,74031,0
2132,74000,0
2084,74076,0
2124,74016,0
2120,74046,0
2120,74027,0
2114,74020,0
2112,74051,0
2104,74038,0
2104,74066,0
2108,74050,0
2108,74065,0
2104,74040,0
2116,74018,0
2120,74088,0
2120,74055,0
2144,74065,0
2153,74049,0
2152,74016,0
2196,74092,0
2218,74060,0
2240,74069,0
2260,74032,0
2297,74004,0
2320,74096,0
2368,74049,0
2409,74067,0
2470,74052,0
2528,74009,0
2586,74107,0
2636,74058,0
2692,74095,0
2720,74075,0
2776,74081,0
2824,74078,0
2884,74055,0
2928,74071,0
2960,74066,0
3002,74013,0
3020,74098,0
3028,74063,0
3040,74102,0
3040,74070,0
3032,74061,0
3016,74112,0
3002,74064,0
2972,74104,0
2948,74071,0
2920,74032,0
2872,74109,0
2834,74068,0
2818,74093,0
2768,74076,0
2720,74023,0
2672,74122,0
2624,74068,0
2564,74099,0
2534,74072,0
2488,74033,0
2436,74115,0
2416,74064,0
2384,74101,0
2336,74076,0
2310,74025,0
2244,74084,0
2224,74106,0
2200,74088,0
2168,74066,0
2148,74071,0
2132,74110,0
2114,74067,0
2120,74034,0
2100,74125,0
2088,74083,0
2076,74088,0
2060,74071,0
2047,74045,0
2046,74119,0
2034,74084,0
2036,74099,0
1954,74073,0
2024,74053,0
2020,74108,0
2036,74068,0
2084,74097,0
2042,74072,0
2036,74042,0
2036,74119,0
2028,74069,0
2056,74119,0
2030,74073,0
2030,74028,0
2048,74133,0
2032,74064,0
2052,74111,0
2034,74066,0
2008,74055,0
2010,74076,0
2004,74057,0
2004,74082,0
2014,74068,0
2012,74011,0
2024,74113,0
2020,74060,0
2028,74095,0
2028,74075,0
2032,74027,0
2036,74140,0
2032,74084,0
2045,74093,0
2056,74072,0
2047,74043,0
2056,74104,0
2052,74064,0
2060,74112,0
2084,74069,0
2102,74031,0
2096,74102,0
2096,74069,0
2093,74102,0
2090,74088,0
2096,74038,0
2096,74094,0
2101,74095,0
2104,74117,0
2112,74069,0
2096,74017,0
2090,74117,0
2074,74113,0
2068,74082,0
1992,74086,0
2068,74089,0
2066,74072,0
2068,74041,0
2080,74137,0
2092,74085,0
2084,74124,0
2096,74105,0
2104,74061,0
2100,74143,0
2108,74088,0
2104,74125,0
2104,74089,0
2116,74048,0
2124,74136,0
2112,74098,0
2112,74115,0
2136,74101,0
2140,74054,0
2152,74148,0
2160,74103,0
2160,74127,0
2140,74101,0
2148,74046,0
2144,74136,0
2141,74105,0
2152,74136,0
2152,74114,0
2132,74057,0
2144,74164,0
2118,74114,0
2116,74106,0
2112,74133,0
2114,74138,0
2124,74113,0
2120,74140,0
2125,74110,0
2200,74089,0
2132,74165,0
2133,74135,0
2132,74161,0
2140,74129,0
2132,74093,0
2132,74185,0
2142,74133,0
2136,74158,0
2137,74144,0
2160,74094,0
2140,74187,0
2168,74148,0
2160,74163,0
2176,74129,0
2184,74082,0
2176,74175,0
2161,74140,0
2164,74176,0
2162,74153,0
2166,74134,0
2168,74206,0
2181,74150,0
2168,74170,0
2146,74144,0
2144,74127,0
2132,74170,0
2140,74140,0
2156,74150,0
2149,74196,0
2146,74167,0
2160,74142,0
2160,74191,0
2160,74163,0
2162,74165,0
2164,74158,0
2164,74161,0
2160,74188,0
2168,74161,0
2172,74132,0
2168,74185,0
2164,74158,0
2200,74195,0
2192,74150,0
2200,74123,0
2206,74200,0
2200,74164,0
2208,74189,0
2186,74154,0
2189,74107,0
2185,74178,0
2179,74150,0
2200,74181,0
2200,74149,0
2210,74143,0
2216,74164,0
2193,74098,0
2202,74152,0
2208,74172,0
2206,74140,0
2212,74130,0
2210,74175,0
2208,74132,0
2200,74108,0
2212,74192,0
2206,74145,0
2200,74175,0
2202,74140,0
2204,74103,0
2212,74179,0
2208,74146,0
2218,74162,0
2220,74132,0
2224,74105,0
2224,74179,0
2244,74139,0
2256,74160,0
2250,74125,0
2248,74090,0
2248,74136,0
2228,74120,0
2232,74150,0
2232,74106,0
2220,74109,0
2240,74117,0
2236,74102,0
2234,74116,0
2232,74094,0
2212,74098,0
2206,74101,0
2216,74111,0
2202,74074,0
2208,74064,0
2200,74123,0
2204,74076,0
2200,74079,0
2208,74065,0
2212,74069,0
2216,74091,0
2208,74059,0
2224,74052,0
2216,74066,0
2216,74036,0
2213,74082,0
2220,74059,0
2216,74048,0
2217,74059,0
2236,74039,0
2232,74081,0
2233,74042,0
2242,74032,0
2230,74041,0
2212,74023,0
2216,74060,0
2213,74031,0
2212,73998,0
2220,74019,0
2226,74004,0
2228,74039,0
2228,73982,0
2208,73960,0
2202,74030,0
2208,73983,0
2210,73994,0
2220,74029,0
2221,74025,0
2220,73996,0
2224,73991,0
2225,74001,0
2244,73976,0
2228,74023,0
2224,73979,0
2220,73989,0
2221,73980,0
2220,73951,0
2232,74003,0
2226,73967,0
2240,73969,0
2216,73954,0
2244,73944,0
2244,73985,0
2246,73944,0
2242,73936,0
2248,73963,0
2226,73939,0
2228,73969,0
2225,73941,0
2224,73949,0
2240,73935,0
2240,73935,0
2248,73966,0
2240,73954,0
2212,73935,0
2204,73946,0
2212,73913,0
2204,73947,0
2208,73891,0
2196,73943,0
2194,73910,0
2192,73960,0
2186,73916,0
2202,73942,0
2194,73903,0
2201,73911,0
2180,73972,0
2196,73925,0
2194,73926,0
2202,73932,0
2196,73890,0
2202,73965,0
2204,73902,0
2232,73922,0
2232,73901,0
2232,73898,0
2218,73942,0
2220,73913,0
2208,73906,0
2204,73912,0
2200,73876,0
2208,73951,0
2224,73914,0
2220,73923,0
2216,73907,0
2224,73870,0
2192,73897,0
2186,73889,0
2200,73912,0
2192,73909,0
2200,73942,0
2192,73890,0
2197,73884,0
2193,73924,0
2206,73892,0
2212,73929,0
2208,73907,0
2216,73862,0
2210,73922,0
2201,73901,0
2206,73917,0
2208,73914,0
2208,73871,0
2208,73904,0
2196,73900,0
2212,73931,0
2212,73900,0
2218,73863,0
2212,73928,0
2202,73898,0
2178,73929,0
2185,73895,0
2182,73873,0
2186,73917,0
2204,73881,0
2208,73919,0
2202,73886,0
2208,73861,0
2176,73917,0
2173,73901,0
2180,73897,0
2173,73890,0
2160,73907,0
2162,73947,0
2152,73884,0
2150,73926,0
2152,73897,0
2160,73847,0
2132,73939,0
2128,73893,0
2128,73920,0
2122,73880,0
2121,73860,0
2120,73944,0
2112,73894,0
2104,73938,0
2105,73897,0
2128,73865,0
2125,73933,0
2120,73903,0
2124,73942,0
2122,73913,0
2098,73857,0
2100,73932,0
2098,73897,0
2088,73921,0
2104,73894,0
2102,73869,0
2090,73934,0
2101,73889,0
2074,73913,0
2074,73895,0
2080,73913,0
2084,73865,0
2080,73890,0
2072,73944,0
2068,73914,0
2076,73941,0
2084,73905,0
2080,73889,0
2088,73956,0
2080,73926,0
2010,73945,0
2088,73898,0
2089,73899,0
2096,73954,0
2104,73907,0
2100,73923,0
2104,73931,0
2128,73901,0
2128,73951,0
2140,73928,0
2133,73946,0
2152,73917,0
2124,73927,0
2121,73964,0
2125,73920,0
2108,73946,0
2120,73926,0
2120,73909,0
2124,73958,0
2122,73925,0
2096,73937,0
2084,73958,0
2096,73931,0
2078,73931,0
2081,73926,0
2084,73963,0
2073,73945,0
2080,73884,0
2081,73964,0
2089,73937,0
2098,73975,0
2096,73928,0
2108,73901,0
2116,73948,0
2112,73924,0
2108,73967,0
2114,73937,0
2116,73966,0
2116,73920,0
2146,73896,0
2140,73993,0
2150,73928,0
2144,73966,0
2152,73930,0
2134,73914,0
2144,73979,0
2137,73932,0
2136,73947,0
2148,73939,0
2136,73883,0
2140,73976,0
2136,73932,0
2108,73923,0
2109,73961,0
2106,73943,0
2105,73938,0
2106,73886,0
2112,73951,0
2105,73959,0
2120,73980,0
2112,73945,0
2112,73950,0
2108,73941,0
2110,73929,0
2112,73974,0
2122,73938,0
2120,73940,0
2117,73964,0
2112,73937,0
2112,73957,0
2118,73937,0
2136,73921,0
2134,73986,0
2140,73935,0
2136,73966,0
2132,73940,0
2117,73891,0
2120,73986,0
2116,73963,0
2112,73971,0
2120,73946,0
2128,73884,0
2120,73995,0
2100,73955,0
2100,73949,0
2112,73942,0
2114,73914,0
2112,73939,0
2126,73956,0
2136,73952,0
2136,73975,0
2137,73931,0
2152,73922,0
2152,73956,0
2156,73953,0
2170,73993,0
2174,73943,0
2168,73930,0
2170,73965,0
2180,73963,0
2173,73981,0
2192,73945,0
2200,73930,0
2192,73977,0
2184,73973,0
2198,73986,0
2192,73952,0
2170,73912,0
2181,73981,0
2184,73935,0
2183,73998,0
2192,73960,0
2192,73925,0
2188,73969,0
2192,73948,0
2164,73955,0
2156,73957,0
2156,73981,0
2156,73999,0
2157,73962,0
2154,73964,0
2178,73949,0
2160,74007,0
2160,73978,0
2160,73957,0
2164,73969,0
2164,73955,0
2172,74001,0
2168,73958,0
2170,73938,0
2162,73978,0
2176,73962,0
2164,73996,0
2170,73964,0
2184,73931,0
2180,73992,0
2184,73957,0
2162,73975,0
2164,73957,0
2144,73921,0
2149,73989,0
2154,73959,0
2136,73992,0
2148,73970,0
2150,73923,0
2136,74013,0
2141,73968,0
2128,73965,0
2116,73966,0
2112,73979,0
2122,73987,0
2120,73964,0
2128,74000,0
2124,73982,0
2132,73982,0
2129,73955,0
2134,73956,0
2144,74016,0
2144,73963,0
2144,73993,0
2156,73972,0
2152,73947,0
2154,74007,0
2150,73970,0
2144,74000,0
2153,73982,0
2176,73950,0
2176,73995,0
2172,73970,0
2172,73992,0
2172,74006,0
2148,73960,0
2160,74010,0
2146,73971,0
2130,73993,0
2152,73970,0
2146,73931,0
2152,74021,0
2153,73968,0
2120,73981,0
2112,73961,0
2124,73949,0
2134,73976,0
2116,73995,0
2118,74011,0
2113,73982,0
2120,73958,0
2114,74045,0
2108,73995,0
2112,74012,0
2120,73988,0
2112,73941,0
2112,74033,0
2116,73980,0
2104,74003,0
2116,73982,0
2120,73950,0
2118,74047,0
2137,73979,0
2152,74010,0
2144,73994,0
2140,73950,0
2144,74056,0
2120,73993,0
2120,74009,0
2120,73983,0
2112,73948,0
2116,74031,0
2112,74003,0
2108,74032,0
2104,73993,0
2072,73993,0
2066,74012,0
2056,74037,0
2056,74005,0
2052,73988,0
2044,74036,0
2047,73992,0
2046,73969,0
2042,74041,0
2058,74000,0
2056,74020,0
2066,73999,0
2054,73952,0
2068,74030,0
2080,74005,0
2084,74031,0
2101,74003,0
2104,73970,0
2128,74027,0
2176,74011,0
2184,74037,0
2210,73999,0
2236,73988,0
2284,74031,0
2312,74034,0
2374,74039,0
2426,74011,0
2472,73983,0
2552,74073,0
2620,74004,0
2668,74041,0
2736,74018,0
2760,73990,0
2828,74012,0
2884,74012,0
2940,74024,0
3002,74006,0
3032,74007,0
3064,74051,0
3071,74029,0
3090,74063,0
3092,74018,0
3078,73983,0
3064,74069,0
3040,74024,0
3020,74063,0
2978,74030,0
2952,74003,0
2912,74042,0
2868,74022,0
2824,74045,0
2800,74037,0
2752,73987,0
2692,74058,0
2664,74037,0
2562,74059,0
2528,74027,0
2488,73983,0
2448,74089,0
2394,74040,0
2370,74063,0
2348,74041,0
2296,74000,0
2274,74075,0
2202,74044,0
2184,74072,0
2148,74017,0
2118,74034,0
2096,74059,0
2068,74051,0
2054,74079,0
2032,74052,0
2020,74020,0
2004,74085,0
1996,74044,0
1996,74075,0
1976,74059,0
1972,74023,0
1968,74076,0
1966,74057,0
1960,74088,0
1949,74054,0
1949,74047,0
1964,74080,0
1968,74061,0
1962,74097,0
1954,74053,0
1968,74054,0
1944,74036,0
1952,74038,0
1948,74099,0
1941,74058,0
1956,74044,0
1961,74090,0
1960,74055,0
1962,74067,0
1938,74110,0
1952,74055,0
1948,74056,0
1949,74074,0
1964,74045,0
1954,74025,0
1972,74112,0
1968,74071,0
1968,74073,0
1966,74052,0
1966,74008,0
1972,74117,0
1980,74076,0
1974,74078,0
1981,74076,0
1988,74029,0
1985,74103,0
1986,74061,0
1986,74093,0
2016,74065,0
2009,74018,0
2020,74093,0
2021,74086,0
2028,74111,0
2018,74075,0
2026,74024,0
2025,74134,0
2038,74084,0
2048,74111,0
2042,74094,0
2040,74033,0
2056,74121,0
2028,74116,0
2024,74067,0
2030,74087,0
2028,74100,0
2030,74092,0
2030,74129,0
2036,74100,0
2026,74116,0
2106,74101,0
2022,74090,0
2032,74138,0
2028,74101,0
2032,74116,0
2032,74098,0
2026,74077,0
2044,74155,0
2040,74129,0
2053,74115,0
2056,74089,0
2080,74094,0
2088,74151,0
2085,74111,0
2092,74119,0
2100,74125,0
2088,74102,0
2102,74162,0
2102,74137,0
2096,74146,0
2112,74124,0
2113,74098,0
2113,74181,0
2084,74199,0
2082,74130,0
2080,74115,0
2093,74134,0
2068,74151,0
2078,74124,0
2072,74126,0
2088,74133,0
2088,74138,0
2084,74156,0
2090,74133,0
2088,74149,0
2105,74137,0
2096,74125,0
2106,74179,0
2108,74154,0
2104,74128,0
2108,74156,0
2128,74151,0
2133,74171,0
2138,74147,0
2144,74128,0
2136,74168,0
2144,74132,0
2128,74185,0
2132,74158,0
2132,74146,0
2122,74175,0
2144,74162,0
2140,74190,0
2132,74148,0
2136,74162,0
2116,74190,0
2116,74130,0
2120,74197,0
2110,74149,0
2124,74150,0
2208,74134,0
2132,74214,0
2132,74170,0
2136,74180,0
2144,74156,0
2140,74151,0
2132,74224,0
2148,74165,0
2136,74198,0
2141,74163,0
2140,74124,0
2138,74239,0
2134,74177,0
2136,74209,0
2164,74154,0
2164,74139,0
2176,74216,0
2176,74178,0
2168,74200,0
2160,74162,0
2161,74109,0
2169,74218,0
2168,74149,0
2196,74189,0
2196,74163,0
2196,74129,0
2188,74214,0
2166,74190,0
2164,74154,0
2164,74175,0
2160,74151,0
2160,74170,0
2156,74132,0
2160,74191,0
2158,74168,0
2164,74186,0
2174,74156,0
2168,74133,0
2164,74169,0
2164,74143,0
2156,74189,0
2160,74126,0
2154,74143,0
2152,74170,0
2158,74127,0
2160,74167,0
2180,74126,0
2186,74148,0
2192,74140,0
2192,74124,0
2200,74153,0
2184,74114,0
2212,74150,0
2180,74107,0
2190,74126,0
2197,74148,0
2202,74098,0
2196,74135,0
2201,74095,0
2180,74114,0
2188,74094,0
2188,74106,0
2188,74106,0
2196,74104,0
2188,74132,0
2194,74099,0
2194,74111,0
2192,74079,0
2204,74061,0
2200,74121,0
2204,74071,0
2200,74098,0
2204,74071,0
2189,74047,0
2201,74123,0
2200,74069,0
2180,74093,0
2196,74059,0
2208,74028,0
2217,74100,0
2216,74060,0
2200,74082,0
2204,74048,0
2184,74022,0
2194,74087,0
2194,74036,0
2192,74054,0
2200,74049,0
2208,73996,0
2250,74098,0
2208,74043,0
2185,74045,0
2194,74015,0
2172,74027,0
2184,74021,0
2174,74048,0
2180,74057,0
2180,74034,0
2173,74037,0
2168,74018,0
2166,74009,0
2172,74060,0
2169,74020,0
2172,74020,0
2168,74022,0
2162,74021,0
2152,74031,0
2164,74001,0
2166,73982,0
2154,74031,0
2192,74002,0
2188,74027,0
2192,74001,0
2188,73986,0
2196,74013,0
2176,73968,0
2184,74018,0
2178,73984,0
2164,73972,0
2184,73998,0
2189,73986,0
2190,74013,0
2200,73987,0
2164,73996,0
2172,74016,0
2200,73950,0
2172,73996,0
2172,73987,0
2180,73969,0
2173,73965,0
2174,74030,0
2178,73986,0
2180,73978,0
2184,73973,0
2172,73976,0
2184,74024,0
2188,73973,0
2173,73969,0
2181,73998,0
2192,73972,0
2188,74011,0
2192,73978,0
2220,73992,0
2226,73976,0
2228,73980,0
2226,74018,0
2220,73993,0
2204,73978,0
2204,73997,0
2200,73964,0
2192,74013,0
2208,73955,0
2208,73955,0
2202,74001,0
2212,73978,0
2181,73917,0
2177,73979,0
2180,73962,0
2176,73985,0
2176,73958,0
2178,73997,0
2188,73975,0
2180,73975,0
2189,73991,0
2184,73960,0
2188,74003,0
2176,73979,0
2180,73960,0
2184,73989,0
2178,73973,0
2182,74008,0
2196,73970,0
2186,73943,0
2172,74011,0
2200,73968,0
2210,73995,0
2208,73959,0
2204,73919,0
2217,74013,0
2200,73990,0
2216,74003,0
2220,73976,0
2216,73939,0
2232,74017,0
2232,73976,0
2230,73989,0
2229,73965,0
2204,73991,0
2216,73992,0
2200,73953,0
2213,73988,0
2200,74028,0
2188,73974,0
2197,73941,0
2196,74009,0
2194,73973,0
2190,74013,0
2186,73957,0
2186,73945,0
2188,74015,0
2192,73958,0
2194,73982,0
2184,73983,0
2192,73932,0
2186,74008,0
2188,73967,0
2200,74006,0
2208,73967,0
2216,73943,0
2232,74028,0
2240,73994,0
2216,74006,0
2220,73982,0
2224,73917,0
2220,74013,0
2232,73981,0
2236,73998,0
2240,73990,0
2248,73942,0
2220,73973,0
2212,73981,0
2216,74005,0
2220,74013,0
2224,74013,0
2232,73995,0
2228,73963,0
2230,74007,0
2232,73992,0
2242,74018,0
2236,73993,0
2248,73966,0
2256,74015,0
2250,73993,0
2256,74004,0
2252,73966,0
2260,73936,0
2256,74012,0
2264,74002,0
2280,74016,0
2284,73997,0
2296,73952,0
2288,74037,0
2292,73997,0
2273,74023,0
2284,73988,0
2269,73965,0
2265,74033,0
2276,73998,0
2272,74028,0
2272,73999,0
2274,73960,0
2244,74025,0
2246,74028,0
2244,74006,0
2253,74014,0
2248,74021,0
2252,73997,0
2256,73960,0
2260,74056,0
2266,74038,0
2272,74047,0
2280,73997,0
2288,73989,0
2288,74017,0
2280,74018,0
2282,74039,0
2288,74014,0
2282,74014,0
2288,74025,0
2288,74016,0
2312,74060,0
2320,74001,0
2316,73999,0
2324,74043,0
2310,74015,0
2304,74044,0
2298,74046,0
2296,74009,0
2294,74048,0
2304,74025,0
2312,74069,0
2312,74022,0
2285,74029,0
2284,74022,0
2284,74040,0
2274,74063,0
2344,74045,0
2280,74021,0
2276,74000,0
2292,74082,0
2284,74039,0
2296,74051,0
2296,74041,0
2302,74006,0
2292,74093,0
2300,74044,0
2300,74036,0
2301,74039,0
2308,74032,0
2306,74073,0
2338,74047,0
2338,74041,0
2340,74034,0
2344,74030,0
2345,74062,0
2344,74034,0
2320,74057,0
2324,74052,0
2312,74034,0
2306,74088,0
2320,74036,0
2305,74063,0
2296,74046,0
2304,74034,0
2276,74029,0
2282,74034,0
2292,74053,0
2308,74061,0
2303,74066,0
2308,74054,0
2321,74042,0
2324,74085,0
2320,74046,0
2329,74065,0
2348,74071,0
2348,74050,0
2344,74068,0
2352,74048,0
2356,74027,0
2352,74065,0
2348,74042,0
2340,74075,0
2332,74059,0
2356,74075,0
2352,74062,0
2352,74032,0
2352,74078,0
2344,74056,0
2329,74069,0
2348,74045,0
2328,74053,0
2330,74106,0
2344,74066,0
2338,74065,0
2336,74070,0
2336,74055,0
2316,74053,0
2300,74074,0
2300,74058,0
2300,74079,0
2304,74047,0
2312,74073,0
2304,74053,0
2302,74089,0
2292,74066,0
2298,74053,0
2288,74068,0
2292,74053,0
2312,74098,0
2302,74081,0
2292,74066,0
2296,74083,0
2300,74067,0
2300,74105,0
2298,74078,0
2312,74030,0
2314,74098,0
2308,74073,0
2304,74086,0
2306,74079,0
2288,74052,0
2288,74093,0
2290,74072,0
2292,74087,0
2288,74065,0
2290,74035,0
2286,74072,0
2288,74068,0
2260,74026,0
2258,74106,0
2248,74074,0
2248,74070,0
2252,74101,0
2253,74135,0
2248,74064,0
2248,74095,0
2250,74055,0
2252,74049,0
2256,74088,0
2248,74068,0
2256,74103,0
2248,74072,0
2256,74098,0
2260,74090,0
2265,74067,0
2269,74121,0
2264,74089,0
2296,74099,0
2292,74058,0
2304,74025,0
2304,74137,0
2304,74059,0
2280,74096,0
2282,74064,0
2278,74040,0
2269,74128,0
2280,74073,0
2280,74114,0
2274,74073,0
2288,74050,0
2242,74114,0
2242,74078,0
2238,74071,0
2240,74101,0
2240,74085,0
2236,74086,0
2232,74063,0
2236,74113,0
2237,74072,0
2244,74043,0
2248,74093,0
2242,74085,0
2252,74102,0
2248,74076,0
2244,74051,0
2246,74102,0
2240,74082,0
2236,74108,0
2238,74089,0
2252,74078,0
2258,74100,0
2260,74084,0
2264,74114,0
2256,74085,0
2244,74047,0
2253,74115,0
2250,74085,0
2248,74113,0
2265,74095,0
2250,74107,0
2256,74093,0
2248,74092,0
2213,74110,0
2208,74112,0
2204,74097,0
2194,74079,0
2192,74085,0
2177,74084,0
2188,74108,0
2174,74097,0
2176,74069,0
2174,74124,0
2174,74099,0
2172,74123,0
2168,74083,0
2176,74091,0
2170,74129,0
2192,74091,0
2192,74121,0
2208,74081,0
2224,74062,0
2264,74133,0
2298,74107,0
2320,74122,0
2360,74094,0
2400,74048,0
2424,74124,0
2484,74091,0
2538,74135,0
2584,74097,0
2660,74055,0
2720,74137,0
2778,74106,0
2848,74120,0
2874,74118,0
2942,74144,0
3006,74097,0
3064,74092,0
3124,74136,0
3168,74095,0
3204,74138,0
3232,74102,0
3252,74076,0
3256,74142,0
3236,74088,0
3216,74129,0
3198,74099,0
3180,74052,0
3144,74155,0
3100,74115,0
3070,74121,0
3028,74102,0
2964,74059,0
2960,74145,0
2904,74102,0
2840,74125,0
2772,74104,0
2720,74091,0
2652,74130,0
2604,74110,0
2556,74131,0
2509,74104,0
2490,74090,0
2437,74154,0
2410,74094,0
2348,74136,0
2284,74109,0
2245,74116,0
2212,74093,0
2184,74101,0
2157,74116,0
2140,74099,0
2128,74139,0
2120,74106,0
2106,74084,0
2112,74155,0
2092,74105,0
2088,74141,0
2080,74113,0
2076,74099,0
2070,74125,0
2068,74102,0
2058,74149,0
2052,74117,0
2064,74138,0
2064,74129,0
2076,74119,0
2072,74148,0
2052,74109,0
2048,74118,0
2032,74118,0
2044,74116,0
2034,74150,0
2036,74107,0
2048,74086,0
2052,74145,0
2048,74112,0
2048,74147,0
2040,74122,0
2026,74120,0
2036,74136,0
2040,74109,0
2040,74127,0
2044,74111,0
2056,74162,0
2060,74146,0
2068,74173,0
2004,74129,0
2088,74125,0
2088,74154,0
2088,74140,0
2096,74182,0
2094,74144,0
2096,74146,0
2088,74137,0
2084,74130,0
2094,74178,0
2112,74151,0
2112,74151,0
2120,74159,0
2124,74135,0
2128,74177,0
2128,74140,0
2144,74139,0
2141,74165,0
2133,74156,0
2156,74169,0
2160,74142,0
2152,74144,0
2132,74200,0
2124,74164,0
2120,74141,0
2140,74188,0
2125,74144,0
2128,74204,0
2128,74171,0
2128,74197,0
2140,74171,0
2138,74151,0
2136,74188,0
2136,74179,0
2144,74191,0
2144,74171,0
2146,74186,0
2144,74194,0
2148,74175,0
2148,74208,0
2176,74171,0
2180,74146,0
2184,74204,0
2192,74186,0
2200,74213,0
2200,74184,0
2188,74155,0
2192,74210,0
2201,74195,0
2200,74216,0
2208,74181,0
2204,74184,0
2212,74187,0
2210,74170,0
2180,74218,0
2180,74248,0
2184,74233,0
2180,74189,0
2172,74195,0
2176,74187,0
2172,74236,0
2180,74211,0
2178,74206,0
2196,74213,0
2192,74194,0
2184,74241,0
2188,74214,0
2188,74192,0
2200,74227,0
2184,74220,0
2186,74232,0
2188,74202,0
2196,74189,0
2216,74246,0
2219,74210,0
2224,74238,0
2221,74216,0
2224,74175,0
2208,74240,0
2216,74235,0
2224,74237,0
2204,74217,0
2224,74202,0
2217,74264,0
2220,74229,0
2216,74259,0
2194,74218,0
2188,74219,0
2186,74212,0
2180,74220,0
2204,74202,0
2184,74236,0
2198,74226,0
2200,74209,0
2202,74280,0
2200,74236,0
2208,74258,0
2220,74219,0
2208,74191,0
2216,74277,0
2212,74224,0
2209,74260,0
2212,74237,0
2210,74219,0
2200,74289,0
2220,74251,0
2234,74225,0
2216,74229,0
2224,74201,0
2234,74268,0
2224,74242,0
2232,74248,0
2244,74229,0
2242,74189,0
2260,74280,0
2256,74233,0
2256,74254,0
2252,74219,0
2225,74186,0
2218,74240,0
2224,74205,0
2228,74213,0
2228,74251,0
2220,74248,0
2220,74222,0
2234,74238,0
2222,74207,0
2226,74206,0
2218,74249,0
2220,74211,0
2216,74228,0
2220,74209,0
2232,74166,0
2234,74231,0
2238,74214,0
2236,74217,0
2248,74179,0
2272,74141,0
2272,74224,0
2268,74199,0
2264,74196,0
2272,74169,0
2248,74151,0
2262,74215,0
2256,74167,0
2250,74204,0
2258,74163,0
2264,74127,0
2253,74198,0
2256,74165,0
2224,74188,0
2224,74149,0
2226,74146,0
2224,74137,0
2222,74145,0
2216,74145,0
2226,74163,0
2224,74133,0
2220,74093,0
2228,74167,0
2226,74126,0
2226,74142,0
2228,74114,0
2232,74066,0
2234,74153,0
2241,74114,0
2240,74146,0
2232,74118,0
2236,74061,0
2256,74131,0
2256,74100,0
2256,74120,0
2268,74099,0
2264,74038,0
2248,74133,0
2260,74094,0
2250,74114,0
2250,74078,0
2256,74018,0
2248,74113,0
2240,74084,0
2234,74115,0
2208,74076,0
2208,74081,0
2196,74078,0
2200,74062,0
2200,74100,0
2192,74023,0
2200,74102,0
2200,74061,0
2194,74090,0
2192,74051,0
2194,74012,0
2198,74105,0
2200,74052,0
2204,74070,0
2192,74017,0
2196,73998,0
2192,74091,0
2202,74036,0
2200,74057,0
2232,74045,0
2224,73986,0
2232,74075,0
2226,74034,0
2220,74074,0
2216,74042,0
2218,73992,0
2216,74074,0
2209,74025,0
2224,74040,0
2234,74027,0
2240,73965,0
2232,74062,0
2208,74011,0
2197,73998,0
2192,74040,0
2196,73985,0
2200,74031,0
2197,73973,0
2196,74048,0
2196,74023,0
2208,74038,0
2192,74020,0
2188,73971,0
2180,74065,0
2196,74003,0
2192,74041,0
2194,74014,0
2192,73982,0
2197,74059,0
2196,74014,0
2201,74054,0
2240,74023,0
2240,73978,0
2252,74048,0
2250,74015,0
2244,74041,0
2224,74022,0
2226,73992,0
2225,74039,0
2224,74015,0
2232,74036,0
2224,74008,0
2232,73989,0
2216,74052,0
2192,74008,0
2188,74028,0
2184,74021,0
2192,74029,0
2198,74029,0
2212,74080,0
2204,74010,0
2212,74040,0
2217,74020,0
2220,73956,0
2216,74080,0
2216,74002,0
2208,74037,0
2204,74019,0
2204,73964,0
2216,74073,0
2212,74033,0
2210,74038,0
2224,74025,0
2248,73991,0
2248,74064,0
2248,74043,0
2256,74047,0
2264,74032,0
2244,73973,0
2252,74070,0
2248,74020,0
2244,74045,0
2266,74023,0
2248,73989,0
2260,74070,0
2253,74017,0
2232,74039,0
2244,74003,0
2232,74031,0
2232,74018,0
2229,73975,0
2225,74064,0
2228,74051,0
2218,74067,0
2229,74025,0
2226,73995,0
2226,74062,0
2226,74030,0
2228,74066,0
2218,74024,0
2218,74001,0
2230,74069,0
2218,74019,0
2224,74041,0
2218,74030,0
2240,74017,0
2242,74062,0
2230,74029,0
2240,74076,0
2240,74017,0
2216,74011,0
2220,74086,0
2216,74038,0
2214,74069,0
2218,74039,0
2226,73997,0
2220,74067,0
2234,74012,0
2204,74051,0
2202,74035,0
2202,74033,0
2202,74033,0
2196,73990,0
2192,74104,0
2196,74029,0
2188,74074,0
2185,74039,0
2188,74018,0
2192,74094,0
2314,74029,0
2204,74056,0
2212,74034,0
2216,73995,0
2234,74060,0
2232,74036,0
2232,74066,0
2234,74038,0
2256,73977,0
2264,74085,0
2272,74050,0
2264,74074,0
2266,74030,0
2256,73989,0
2261,74066,0
2256,74035,0
2256,74058,0
2264,74036,0
2256,73983,0
2264,74080,0
2236,74063,0
2238,74032,0
2232,74042,0
2238,74072,0
2234,74053,0
2298,74078,0
2237,74053,0
2240,74064,0
2236,74053,0
2240,74010,0
2244,74079,0
2236,74035,0
2248,74070,0
2248,74038,0
2264,73995,0
2256,74087,0
2252,74037,0
2256,74075,0
2276,74047,0
2273,74010,0
2276,74097,0
2288,74049,0
2280,74066,0
2272,74048,0
2256,73993,0
2272,74068,0
2264,74051,0
2264,74076,0
2280,74049,0
2261,74018,0
2256,74065,0
2252,74048,0
2240,74075,0
2224,74075,0
2226,74041,0
2224,74073,0
2220,74028,0
2213,74096,0
2216,74030,0
2224,74074,0
2224,74055,0
2224,73997,0
2232,74104,0
2232,74030,0
2238,74073,0
2244,74046,0
2245,74018,0
2248,74112,0
2252,74056,0
2264,74079,0
2245,74037,0
2276,74016,0
2272,74096,0
2272,74065,0
2266,74066,0
2266,74030,0
2240,74022,0
2260,74097,0
2256,74065,0
2249,74072,0
2268,74051,0
2272,74053,0
2276,74101,0
2280,74062,0
2242,74059,0
2376,74068,0
2388,74083,0
2392,74083,0
2378,74083,0
2386,74083,0
2376,74083,0
2376,74083,0
2376,74083,0
2376,74083,0
2389,74081,0
2386,74052,0
2384,74052,0
2392,74052,0
2394,74052,0
2400,74052,0
2400,74052,0
2408,74052,0
2414,74022,0
2414,74022,0
2408,74022,0
2400,74022,0
2410,74022,0
2410,74022,0
2412,74022,0
2400,74116,0
2401,74116,0
2394,74116,0
2378,74116,0
2400,74116,0
2392,74116,0
2393,74116,0
2410,74062,0
2376,74109,0
2368,74071,0
2376,74046,0
2376,74099,0
2372,74078,0
2380,74101,0
2368,74091,0
2384,74046,0
2380,74106,0
2384,74083,0
2384,74121,0
2389,74074,0
2388,74031,0
2396,74118,0
2402,74076,0
2404,74105,0
2408,74075,0
2416,74054,0
2408,74129,0
2440,74072,0
2444,74089,0
2442,74079,0
2452,74072,0
2440,74113,0
2424,74096,0
2434,74065,0
2420,74082,0
2388,74074,0
2384,74147,0
2384,74077,0
2388,74091,0
2372,74131,0
2378,74085,0
2376,74071,0
2369,74127,0
2364,74096,0
2356,74101,0
2364,74089,0
2362,74076,0
2364,74118,0
2356,74068,0
2360,74078,0
2356,74111,0
2376,74083,0
2380,74126,0
2372,74074,0
2376,74062,0
2368,74123,0
2368,74093,0
2368,74121,0
2368,74094,0
2344,74069,0
2342,74126,0
2338,74093,0
2332,74115,0
2345,74104,0
2352,74073,0
2352,74122,0
2340,74111,0
2320,74081,0
2304,74143,0
2328,74107,0
2320,74089,0
2340,74150,0
2345,74129,0
2356,74164,0
2386,74124,0
2408,74093,0
2470,74183,0
2484,74141,0
2530,74149,0
2580,74109,0
2632,74118,0
2676,74142,0
2736,74126,0
2802,74156,0
2856,74136,0
2922,74121,0
2972,74131,0
3036,74127,0
3100,74164,0
3156,74139,0
3200,74118,0
3240,74169,0
3232,74137,0
3252,74189,0
3240,74136,0
3218,74126,0
3232,74162,0
3204,74148,0
3176,74187,0
3146,74150,0
3062,74103,0
3024,74103,0
2977,74103,0
2924,74103,0
2872,74103,0
2813,74103,0
2768,74187,0
2716,74187,0
2666,74187,0
2624,74187,0
2648,74187,0
2552,74187,0
2516,74187,0
2480,74165,0
2468,74132,0
2408,74132,0
2376,74132,0
2337,74132,0
2308,74132,0
2312,74132,0
2284,74184,0
2264,74165,0
2234,74165,0
2220,74165,0
2181,74165,0
2164,74165,0
2162,74165,0
2152,74165,0
2148,74145,0
2132,74145,0
2128,74145,0
2120,74145,0
2092,74164,0
2084,74184,0
2092,74163,0
2088,74143,0
2096,74193,0
2084,74165,0
2092,74204,0
2076,74174,0
2084,74161,0
2084,74208,0
2082,74168,0
2086,74187,0
2096,74186,0
2104,74151,0
2108,74212,0
2108,74174,0
2124,74191,0
2128,74175,0
2132,74177,0
2152,74215,0
2153,74159,0
2154,74186,0
2154,74192,0
2148,74160,0
2144,74228,0
2140,74187,0
2138,74212,0
2136,74211,0
2240,74205,0
2244,74245,0
2242,74245,0
2246,74245,0
2256,74245,0
2250,74245,0
2256,74245,0
2248,74245,0
2249,74222,0
2256,74222,0
2245,74222,0
2260,74222,0
2264,74222,0
2258,74222,0
2264,74222,0
2260,74237,0
2264,74203,0
2260,74203,0
2266,74203,0
2272,74203,0
2272,74203,0
2268,74203,0
2272,74203,0
2224,74229,0
2256,74229,0
2262,74229,0
2268,74229,0
2252,74229,0
2281,74229,0
2284,74229,0
2274,74206,0
2272,74206,0
2228,74284,0
2237,74239,0
2234,74252,0
2236,74238,0
2240,74213,0
2242,74273,0
2248,74228,0
2250,74266,0
2250,74236,0
2256,74230,0
2252,74286,0
2248,74228,0
2256,74243,0
2252,74239,0
2256,74233,0
2246,74291,0
2240,74251,0
2250,74219,0
2256,74283,0
2272,74241,0
2288,74291,0
2281,74231,0
2280,74198,0
2288,74308,0
2274,74256,0
2278,74265,0
2278,74245,0
2246,74245,0
2240,74243,0
2236,74268,0
2238,74258,0
2242,74271,0
2244,74239,0
2240,74263,0
2248,74237,0
2237,74239,0
2248,74279,0
2254,74232,0
2250,74271,0
2244,74219,0
2251,74200,0
2248,74264,0
2244,74229,0
2292,74262,0
2280,74237,0
2276,74202,0
2280,74257,0
2276,74235,0
2264,74262,0
2276,74230,0
2282,74207,0
2256,74253,0
2266,74213,0
2264,74247,0
2252,74231,0
2276,74206,0
2276,74226,0
2268,74210,0
2266,74233,0
2240,74190,0
2240,74260,0
2234,74179,0
2242,74190,0
2238,74202,0
2244,74165,0
2244,74211,0
2238,74192,0
2232,74221,0
2232,74168,0
2236,74154,0
2240,74202,0
2228,74191,0
2241,74222,0
2242,74176,0
2252,74124,0
2244,74208,0
2242,74174,0
2240,74201,0
2264,74148,0
2268,74130,0
2276,74194,0
2274,74169,0
2276,74181,0
2264,74151,0
2264,74121,0
2266,74189,0
2258,74140,0
2276,74176,0
2268,74149,0
2272,74102,0
2266,74193,0
2248,74167,0
2240,74122,0
2240,74135,0
2232,74162,0
2236,74202,0
2232,74093,0
2234,74165,0
2232,74130,0
2229,74151,0
2234,74109,0
2228,74136,0
2229,74147,0
2240,74120,0
2232,74123,0
2232,74110,0
2232,74118,0
2236,74128,0
2234,74114,0
2240,74107,0
2272,74122,0
2266,74112,0
2264,74117,0
2264,74100,0
2272,74046,0
2248,74128,0
2260,74084,0
2264,74126,0
2264,74083,0
2280,74038,0
2272,74137,0
2272,74096,0
2268,74115,0
2248,74109,0
2228,74129,0
2228,74071,0
2224,74062,0
2224,74133,0
2224,74068,0
2216,74054,0
2220,74098,0
2218,74078,0
2220,74106,0
2224,74081,0
2240,74065,0
2246,74096,0
2242,74077,0
2240,74097,0
2240,74076,0
2250,74048,0
2236,74108,0
2234,74073,0
2260,74085,0
2272,74077,0
2272,74017,0
2268,74123,0
2262,74078,0
2252,74098,0
2250,74083,0
2256,74005,0
2238,74124,0
2257,74049,0
2256,74107,0
2256,74053,0
2250,74028,0
2232,74057,0
2230,74074,0
2236,74043,0
2234,74067,0
2236,74018,0
2238,74105,0
2240,74061,0
2248,74084,0
2246,74071,0
2252,74052,0
2266,74096,0
2264,74052,0
2264,74049,0
2264,74070,0
2276,74050,0
2280,74097,0
2272,74068,0
2296,74041,0
2288,74069,0
2312,74067,0
2312,74093,0
2309,74069,0
2305,74014,0
2304,74109,0
2282,74066,0
2288,74107,0
2288,74071,0
2285,74015,0
2280,74113,0
2288,74086,0
2284,74102,0
2280,74065,0
2244,74055,0
2239,74089,0
2248,74068,0
2232,74094,0
2242,74088,0
2236,74100,0
2256,74066,0
2264,74040,0
2252,74128,0
2260,74080,0
2260,74102,0
2260,74092,0
2244,74071,0
2268,74124,0
2260,74075,0
2264,74079,0
2256,74078,0
2254,74081,0
2256,74121,0
2277,74077,0
2282,74067,0
2284,74112,0
2290,74092,0
2292,74106,0
2288,74077,0
2296,74026,0
2300,74105,0
2304,74083,0
2322,74107,0
2316,74088,0
2329,74051,0
2290,74097,0
2296,74108,0
2280,74088,0
2278,74097,0
2280,74066,0
2276,74066,0
2224,74121,0
2272,74087,0
2265,74094,0
2276,74087,0
2276,74069,0
2288,74124,0
2288,74087,0
2284,74095,0
2284,74076,0
2290,74081,0
2289,74120,0
2293,74082,0
2340,74115,0
2336,74086,0
2336,74081,0
2326,74125,0
2324,74083,0
2326,74101,0
2300,74098,0
2308,74069,0
2312,74125,0
2304,74055,0
2312,74110,0
2328,74111,0
2328,74065,0
2322,74133,0
2300,74117,0
2300,74097,0
2296,74122,0
2302,74097,0
2296,74099,0
2298,74091,0
2292,74067,0
2308,74125,0
2292,74081,0
2296,74112,0
2292,74100,0
2288,74051,0
2288,74143,0
2288,74104,0
2280,74118,0
2296,74093,0
2272,74058,0
2286,74130,0
2276,74092,0
2304,74127,0
2297,74098,0
2304,74051,0
2312,74150,0
2308,74116,0
2277,74124,0
2290,74088,0
2284,74072,0
2278,74150,0
2289,74113,0
2284,74142,0
2284,74110,0
2273,74072,0
2256,74117,0
2248,74086,0
2240,74118,0
2244,74111,0
2261,74096,0
2258,74157,0
2248,74109,0
2250,74141,0
2244,74090,0
2258,74042,0
2260,74155,0
2272,74099,0
2268,74134,0
2265,74114,0
2261,74071,0
2260,74137,0
2264,74098,0
2252,74124,0
2258,74120,0
2280,74073,0
2289,74161,0
2280,74132,0
2274,74156,0
2274,74106,0
2272,74076,0
2272,74158,0
2282,74109,0
2266,74153,0
2296,74116,0
2288,74079,0
2282,74155,0
2292,74130,0
2260,74125,0
2266,74122,0
2260,74113,0
2268,74101,0
2260,74132,0
2256,74138,0
2252,74105,0
2256,74105,0
2256,74163,0
2257,74122,0
2264,74137,0
2252,74129,0
2260,74127,0
2256,74163,0
2256,74126,0
2256,74099,0
2256,74163,0
2249,74110,0
2249,74150,0
2277,74111,0
2272,74075,0
2282,74154,0
2276,74136,0
2274,74146,0
2256,74131,0
2264,74098,0
2260,74174,0
2247,74134,0
2256,74161,0
2268,74135,0
2276,74060,0
2264,74180,0
2248,74125,0
2248,74139,0
2248,74133,0
2246,74139,0
2252,74146,0
2252,74124,0
2248,74175,0
2256,74118,0
2264,74084,0
2256,74173,0
2256,74142,0
2248,74147,0
2258,74121,0
2260,74084,0
2252,74170,0
2256,74133,0
2252,74154,0
2256,74124,0
2248,74083,0
2276,74165,0
2274,74131,0
2277,74159,0
2276,74122,0
2276,74104,0
2258,74158,0
2268,74146,0
2268,74154,0
2261,74128,0
2276,74092,0
2292,74166,0
2266,74137,0
2272,74158,0
2240,74134,0
2248,74108,0
2234,74131,0
2240,74172,0
2240,74118,0
2254,74132,0
2250,74157,0
2264,74135,0
2256,74094,0
2265,74172,0
2268,74128,0
2276,74176,0
2272,74137,0
2285,74080,0
2284,74168,0
2292,74152,0
2290,74165,0
2296,74133,0
2292,74088,0
2325,74177,0
2328,74137,0
2328,74154,0
2328,74126,0
2320,74103,0
2296,74169,0
2298,74132,0
2290,74156,0
2288,74114,0
2292,74113,0
2288,74183,0
2272,74137,0
2266,74163,0
2244,74124,0
2244,74152,0
2241,74132,0
2238,74122,0
2236,74176,0
2238,74158,0
2248,74143,0
2248,74158,0
2256,74138,0
2264,74118,0
2274,74195,0
2276,74147,0
2280,74148,0
2278,74160,0
2282,74085,0
2278,74184,0
2280,74152,0
2285,74160,0
2276,74133,0
2312,74107,0
2316,74186,0
2304,74147,0
2316,74161,0
2308,74136,0
2288,74111,0
2308,74184,0
2299,74121,0
2288,74161,0
2306,74135,0
2304,74128,0
2288,74173,0
2288,74145,0
2260,74153,0
2248,74145,0
2260,74198,0
2244,74124,0
2248,74184,0
2242,74182,0
2244,74147,0
2248,74125,0
2236,74195,0
2250,74165,0
2250,74184,0
2256,74157,0
2252,74112,0
2256,74191,0
2260,74161,0
2256,74179,0
2256,74167,0
2266,74127,0
2268,74207,0
2296,74140,0
2292,74173,0
2372,74153,0
2304,74148,0
2304,74204,0
2278,74182,0
2292,74129,0
2288,74171,0
2277,74175,0
2289,74183,0
2268,74186,0
2264,74158,0
2260,74159,0
2232,74143,0
2220,74160,0
2228,74166,0
2232,74164,0
2238,74173,0
2229,74121,0
2234,74207,0
2232,74177,0
2232,74208,0
2260,74174,0
2244,74146,0
2302,74237,0
2232,74179,0
2240,74199,0
2240,74167,0
2240,74147,0
2244,74219,0
2242,74180,0
2240,74178,0
2264,74190,0
2280,74180,0
2272,74208,0
2272,74175,0
2272,74190,0
2258,74204,0
2261,74178,0
2253,74225,0
2248,74183,0
2268,74230,0
2264,74188,0
2265,74186,0
2249,74236,0
2216,74190,0
2196,74216,0
2192,74240,0
2188,74207,0
2184,74187,0
2184,74156,0
2180,74252,0
2196,74199,0
2200,74212,0
2200,74199,0
2210,74156,0
2208,74240,0
2208,74197,0
2212,74210,0
2236,74185,0
2228,74167,0
2232,74248,0
2248,74197,0
2248,74233,0
2284,74209,0
2304,74162,0
2312,74243,0
2342,74213,0
2372,74228,0
2386,74189,0
2418,74147,0
2478,74274,0
2512,74222,0
2576,74236,0
2628,74211,0
2688,74184,0
2752,74232,0
2796,74166,0
2848,74205,0
2904,74218,0
2952,74175,0
2988,74221,0
3032,74231,0
3060,74216,0
3216,74181,0
3100,74271,0
3104,74218,0
3100,74242,0
3096,74217,0
3068,74182,0
3044,74273,0
3032,74204,0
2992,74242,0
2948,74214,0
2976,74213,0
2896,74270,0
2848,74221,0
2784,74235,0
2738,74214,0
2688,74218,0
2624,74258,0
2586,74209,0
2548,74217,0
2496,74253,0
2481,74213,0
2444,74251,0
2400,74221,0
2376,74211,0
2320,74232,0
2284,74231,0
2208,74223,0
2236,74229,0
2216,74289,0
2188,74234,0
2164,74241,0
2152,74231,0
2128,74233,0
2110,74265,0
2098,74230,0
2088,74238,0
2066,74265,0
2058,74239,0
2047,74286,0
2030,74243,0
2032,74196,0
2024,74264,0
2025,74229,0
2036,74271,0
2038,74240,0
2032,74211,0
2033,74280,0
2022,74245,0
2010,74286,0
2016,74241,0
2004,74231,0
1994,74289,0
2000,74256,0
1998,74275,0
1996,74259,0
1992,74214,0
1962,74239,0
1956,74275,0
1960,74276,0
1968,74212,0
1980,74265,0
1970,74264,0
1980,74228,0
1970,74290,0
1984,74258,0
1978,74282,0
1992,74252,0
2000,74208,0
2012,74331,0
2020,74269,0
2026,74303,0
2040,74256,0
2040,74218,0
2044,74307,0
2053,74265,0
2074,74280,0
2080,74266,0
2080,74224,0
2084,74322,0
2100,74279,0
2064,74280,0
2076,74270,0
2090,74253,0
2068,74318,0
2088,74268,0
2092,74291,0
2074,74280,0
2088,74274,0
2056,74278,0
2058,74284,0
2056,74273,0
2053,74292,0
2057,74244,0
2066,74313,0
2058,74293,0
2060,74294,0
2056,74271,0
2060,74270,0
2076,74324,0
2062,74267,0
2064,74292,0
2060,74275,0
2072,74257,0
2064,74324,0
2076,74284,0
2082,74288,0
2088,74295,0
2112,74271,0
2122,74321,0
2120,74296,0
2144,74249,0
2124,74298,0
2112,74285,0
2128,74317,0
2125,74286,0
2114,74248,0
2120,74334,0
2116,74294,0
2128,74334,0
2128,74301,0
2102,74294,0
2100,74319,0
2104,74278,0
2096,74337,0
2098,74270,0
2114,74337,0
2093,74296,0
2100,74322,0
2112,74315,0
2108,74281,0
2096,74355,0
2116,74297,0
2104,74327,0
2112,74312,0
2100,74271,0
2114,74337,0
2104,74309,0
2112,74309,0
2104,74320,0
2152,74316,0
2144,74336,0
2132,74302,0
2136,74306,0
2128,74343,0
2128,74325,0
2136,74348,0
2124,74320,0
2124,74288,0
2124,74352,0
2152,74327,0
2132,74346,0
2152,74335,0
2120,74326,0
2128,74285,0
2136,74339,0
2116,74312,0
2120,74270,0
2120,74359,0
2124,74324,0
2124,74340,0
2134,74327,0
2144,74286,0
2148,74358,0
2157,74327,0
2156,74349,0
2162,74323,0
2160,74299,0
2164,74353,0
2168,74330,0
2173,74350,0
2180,74324,0
2202,74297,0
2202,74361,0
2216,74337,0
2216,74360,0
2200,74324,0
2177,74268,0
2185,74373,0
2188,74337,0
2170,74357,0
2188,74322,0
2180,74274,0
2176,74349,0
2181,74307,0
2156,74324,0
2158,74323,0
2172,74300,0
2168,74313,0
2166,74338,0
2168,74308,0
2172,74307,0
2184,74359,0
2178,74328,0
2180,74305,0
2196,74300,0
2192,74297,0
2181,74326,0
2204,74292,0
2192,74286,0
2192,74314,0
2136,74289,0
2192,74317,0
2188,74265,0
2212,74238,0
2216,74324,0
2220,74288,0
2216,74309,0
2224,74276,0
2204,74227,0
2214,74312,0
2224,74278,0
2216,74294,0
2240,74272,0
2232,74221,0
2244,74301,0
2244,74270,0
2218,74263,0
2210,74272,0
2216,74288,0
2217,74218,0
2224,74270,0
2226,74257,0
2224,74224,0
2216,74270,0
2222,74220,0
2216,74240,0
2224,74240,0
2228,74228,0
2220,74272,0
2228,74196,0
2232,74191,0
2220,74257,0
2214,74226,0
2224,74233,0
2213,74219,0
2228,74165,0
2234,74257,0
2232,74199,0
2236,74234,0
2240,74197,0
2220,74130,0
2232,74232,0
2224,74192,0
2220,74211,0
2232,74174,0
2240,74134,0
2230,74198,0
2232,74179,0
2208,74212,0
2200,74187,0
2200,74172,0
2202,74175,0
2196,74129,0
2196,74206,0
2192,74157,0
2184,74189,0
2177,74152,0
2184,74128,0
2169,74190,0
2178,74159,0
2164,74169,0
2176,74152,0
2184,74126,0
2172,74179,0
2172,74132,0
2168,74161,0
2176,74158,0
2196,74132,0
2200,74179,0
2196,74147,0
2187,74167,0
2196,74151,0
2180,74134,0
2186,74181,0
2184,74118,0
2180,74119,0
2192,74140,0
2192,74152,0
2188,74171,0
2192,74140,0
2160,74140,0
2153,74131,0
2160,74096,0
2149,74137,0
2148,74148,0
2144,74125,0
2148,74182,0
2224,74141,0
2144,74153,0
2152,74126,0
2152,74123,0
2148,74156,0
2144,74132,0
2156,74156,0
2153,74150,0
2164,74117,0
2152,74165,0
2152,74119,0
2158,74145,0
2176,74132,0
2176,74136,0
2180,74160,0
2178,74132,0
2180,74105,0
2176,74157,0
2180,74132,0
2176,74158,0
2174,74136,0
2180,74084,0
2176,74172,0
2169,74145,0
2132,74149,0
2128,74185,0
2129,74151,0
2128,74103,0
2132,74121,0
2128,74171,0
2132,74143,0
2132,74114,0
2134,74166,0
2140,74144,0
2148,74165,0
2154,74132,0
2160,74133,0
2172,74150,0
2168,74138,0
2170,74169,0
2172,74119,0
2164,74134,0
2208,74149,0
2204,74132,0
2200,74158,0
2204,74134,0
2196,74117,0
2208,74163,0
2180,74155,0
2200,74181,0
2190,74144,0
2181,74154,0
2184,74145,0
2192,74118,0
2184,74176,0
2186,74159,0
2154,74149,0
2156,74143,0
2154,74121,0
2164,74150,0
2154,74150,0
2156,74176,0
2164,74151,0
2164,74105,0
2160,74203,0
2160,74147,0
2160,74167,0
2152,74143,0
2154,74126,0
2150,74211,0
2166,74137,0
2156,74176,0
2160,74144,0
2156,74131,0
2160,74183,0
2192,74144,0
2200,74157,0
2210,74158,0
2213,74158,0
2205,74180,0
2194,74143,0
2202,74142,0
2192,74164,0
2184,74155,0
2192,74164,0
2178,74148,0
2186,74112,0
2176,74211,0
2144,74136,0
2144,74162,0
2144,74149,0
2148,74107,0
2148,74160,0
2140,74157,0
2134,74188,0
2137,74154,0
2126,74116,0
2130,74207,0
2129,74161,0
2130,74186,0
2132,74145,0
2128,74142,0
2132,74191,0
2140,74158,0
2136,74190,0
2133,74162,0
2130,74158,0
2160,74200,0
2160,74172,0
2156,74176,0
2154,74159,0
2164,74149,0
2137,74210,0
2140,74175,0
2136,74192,0
2122,74182,0
2144,74163,0
2136,74206,0
2140,74159,0
2130,74161,0
2112,74168,0
2112,74182,0
2112,74161,0
2104,74164,0
2104,74201,0
2118,74151,0
2108,74155,0
2108,74199,0
2104,74178,0
2108,74203,0
2106,74188,0
2100,74162,0
2104,74216,0
2106,74166,0
2104,74205,0
2108,74164,0
2106,74158,0
2106,74190,0
2106,74173,0
2128,74211,0
2128,74185,0
2122,74167,0
2132,74183,0
2128,74175,0
2112,74211,0
2124,74177,0
2128,74168,0
2125,74208,0
2132,74178,0
2136,74219,0
2134,74182,0
2132,74151,0
2100,74167,0
2098,74159,0
2102,74188,0
2096,74221,0
2102,74155,0
2100,74177,0
2100,74204,0
2096,74175,0
2096,74168,0
2097,74240,0
2088,74188,0
2088,74187,0
2092,74182,0
2098,74187,0
2097,74237,0
2096,74183,0
2101,74203,0
2108,74193,0
2106,74184,0
2144,74204,0
2138,74188,0
2128,74175,0
2144,74180,0
2156,74179,0
2124,74226,0
2144,74185,0
2132,74208,0
2133,74208,0
2148,74185,0
2132,74227,0
2136,74187,0
2140,74193,0
2104,74181,0
2112,74203,0
2108,74182,0
2108,74222,0
2112,74161,0
2104,74200,0
2116,74149,0
2106,74235,0
2114,74194,0
2112,74201,0
2112,74191,0
2116,74140,0
2128,74229,0
2122,74200,0
2121,74216,0
2128,74182,0
2132,74159,0
2128,74225,0
2140,74199,0
2156,74226,0
2160,74189,0
2162,74172,0
2160,74224,0
2156,74183,0
2144,74196,0
2149,74184,0
2136,74170,0
2124,74235,0
2130,74195,0
2132,74194,0
2136,74187,0
2128,74178,0
2122,74209,0
2110,74168,0
2116,74190,0
2124,74136,0
2130,74216,0
2126,74195,0
2137,74185,0
2136,74164,0
2128,74199,0
2168,74190,0
2164,74209,0
2157,74185,0
2152,74145,0
2160,74216,0
2156,74187,0
2164,74202,0
2168,74173,0
2157,74147,0
2173,74230,0
2184,74182,0
2200,74207,0
2200,74179,0
2180,74148,0
2194,74240,0
2160,74191,0
2184,74225,0
2172,74176,0
2170,74134,0
2176,74235,0
2177,74199,0
2168,74210,0
2168,74195,0
2144,74197,0
2146,74207,0
2144,74207,0
2144,74192,0
2144,74197,0
2138,74172,0
2146,74225,0
2144,74198,0
2144,74210,0
2132,74182,0
2140,74154,0
2138,74224,0
2080,74189,0
2152,74217,0
2142,74188,0
2156,74165,0
2132,74223,0
2136,74206,0
2130,74226,0
2156,74173,0
2160,74153,0
2162,74239,0
2164,74199,0
2168,74218,0
2156,74189,0
2168,74153,0
2164,74248,0
2165,74197,0
2178,74233,0
2184,74207,0
2198,74189,0
2192,74244,0
2162,74184,0
2156,74230,0
2164,74218,0
2154,74154,0
2156,74189,0
2160,74162,0
2154,74253,0
2156,74193,0
2156,74228,0
2156,74208,0
2161,74170,0
2144,74255,0
2148,74194,0
2144,74232,0
2140,74208,0
2144,74161,0
2140,74238,0
2144,74214,0
2156,74234,0
2164,74208,0
2176,74176,0
2164,74256,0
2168,74218,0
2162,74247,0
2180,74212,0
2160,74174,0
2156,74245,0
2149,74201,0
2176,74256,0
2164,74219,0
2160,74167,0
2138,74257,0
2144,74228,0
2141,74214,0
2148,74202,0
2146,74234,0
2154,74204,0
2146,74251,0
2152,74197,0
2166,74188,0
2156,74265,0
2170,74219,0
2169,74250,0
2160,74225,0
2184,74188,0
2172,74263,0
2184,74211,0
2172,74242,0
2178,74220,0
2208,74185,0
2209,74286,0
2212,74213,0
2208,74254,0
2208,74227,0
2208,74183,0
2180,74274,0
2176,74236,0
2164,74248,0
2150,74229,0
2160,74195,0
2160,74275,0
2144,74244,0
2146,74262,0
2116,74250,0
2120,74240,0
2128,74259,0
2128,74243,0
2120,74261,0
2124,74287,0
2132,74241,0
2136,74269,0
2144,74228,0
2148,74219,0
2164,74272,0
2173,74236,0
2192,74259,0
2220,74248,0
2240,74234,0
2276,74272,0
2314,74227,0
2356,74244,0
2404,74241,0
2482,74257,0
2560,74284,0
2596,74232,0
2660,74216,0
2716,74274,0
2752,74239,0
2824,74267,0
2864,74238,0
2918,74228,0
2992,74280,0
3042,74246,0
3064,74274,0
3104,74238,0
3071,74250,0
3084,74264,0
3084,74265,0
3080,74224,0
3060,74243,0
3036,74256,0
3016,74255,0
2992,74198,0
2964,74298,0
2920,74246,0
2884,74260,0
2840,74249,0
2788,74217,0
2736,74281,0
2686,74238,0
2636,74241,0
2580,74229,0
2544,74211,0
2500,74298,0
2488,74254,0
2456,74274,0
2416,74242,0
2384,74229,0
2352,74292,0
2312,74228,0
2286,74268,0
2240,74258,0
2216,74206,0
2200,74303,0
2164,74238,0
2144,74277,0
2117,74247,0
2089,74248,0
2052,74268,0
2032,74245,0
2021,74264,0
2016,74249,0
2005,74257,0
2004,74258,0
1996,74254,0
1994,74291,0
1997,74261,0
1994,74263,0
1993,74250,0
1997,74253,0
2004,74305,0
1994,74263,0
2000,74273,0
1996,74257,0
2010,74247,0
2005,74298,0
2020,74276,0
2020,74252,0
2016,74276,0
2017,74269,0
2016,74301,0
2008,74255,0
2008,74232,0
2006,74290,0
2008,74268,0
2016,74290,0
2024,74244,0
2028,74229,0
2026,74279,0
2021,74256,0
2016,74301,0
2024,74275,0
2028,74284,0
2024,74298,0
2032,74270,0
2037,74226,0
2026,74318,0
2030,74291,0
2042,74303,0
2040,74261,0
2052,74259,0
2056,74331,0
2068,74283,0
2068,74323,0
2068,74269,0
2081,74258,0
2068,74323,0
2076,74281,0
2100,74301,0
2105,74292,0
2100,74246,0
2104,74344,0
2104,74287,0
2084,74313,0
2096,74284,0
2084,74270,0
2094,74331,0
2101,74288,0
2096,74321,0
2096,74274,0
2088,74260,0
2062,74261,0
2074,74308,0
2064,74309,0
2080,74284,0
2074,74265,0
2084,74323,0
2090,74281,0
2108,74284,0
2104,74340,0
2124,74308,0
2124,74301,0
2124,74302,0
2136,74306,0
2140,74321,0
2140,74315,0
2148,74298,0
2160,74304,0
2149,74300,0
2168,74327,0
2188,74292,0
2188,74301,0
2192,74337,0
2194,74314,0
2196,74348,0
2186,74318,0
2198,74322,0
2205,74335,0
2208,74311,0
2240,74336,0
2248,74322,0
2256,74294,0
2256,74360,0
2230,74316,0
2240,74315,0
2236,74330,0
2244,74290,0
2270,74336,0
2252,74362,0
2248,74313,0
2240,74290,0
2258,74354,0
2252,74330,0
2262,74363,0
2261,74329,0
2258,74288,0
2268,74374,0
2276,74333,0
2280,74353,0
2280,74343,0
2292,74314,0
2288,74353,0
2344,74324,0
2328,74375,0
2336,74342,0
2336,74285,0
2338,74386,0
2322,74332,0
2328,74368,0
2326,74329,0
2320,74309,0
2337,74399,0
2338,74344,0
2336,74362,0
2338,74344,0
2312,74345,0
2300,74369,0
2300,74371,0
2300,74357,0
2300,74363,0
2297,74373,0
2294,74338,0
2289,74345,0
2297,74393,0
2302,74361,0
2308,74347,0
2308,74365,0
2308,74339,0
2320,74376,0
2321,74355,0
2336,74301,0
2330,74390,0
2332,74365,0
2336,74374,0
2360,74359,0
2368,74310,0
2380,74406,0
2360,74359,0
2372,74375,0
2352,74344,0
2360,74327,0
2365,74369,0
2362,74350,0
2384,74355,0
2384,74364,0
2384,74316,0
2400,74413,0
2360,74361,0
2360,74360,0
2360,74367,0
2360,74367,0
2364,74303,0
2354,74377,0
2364,74352,0
2360,74365,0
2368,74331,0
2364,74321,0
2370,74394,0
2368,74329,0
2376,74339,0
2368,74337,0
2376,74328,0
2376,74352,0
2362,74336,0
2368,74304,0
2368,74344,0
2394,74337,0
2390,74354,0
2392,74313,0
2394,74271,0
2394,74357,0
2384,74309,0
2394,74330,0
2388,74292,0
2388,74257,0
2400,74341,0
2396,74308,0
2390,74327,0
2388,74293,0
2354,74272,0
2360,74296,0
2353,74277,0
2348,74293,0
2362,74317,0
2372,74299,0
2372,74284,0
2362,74277,0
2417,74248,0
2377,74312,0
2384,74278,0
2384,74283,0
2390,74260,0
2384,74254,0
2388,74316,0
2396,74256,0
2384,74263,0
2394,74254,0
2394,74244,0
2416,74293,0
2424,74245,0
2432,74263,0
2426,74241,0
2424,74243,0
2408,74262,0
2431,74235,0
2412,74240,0
2406,74262,0
2416,74222,0
2412,74262,0
2418,74213,0
2378,74185,0
2374,74239,0
2368,74221,0
2372,74219,0
2370,74240,0
2368,74216,0
2362,74192,0
2366,74242,0
2356,74191,0
2360,74233,0
2356,74200,0
2360,74159,0
2372,74243,0
2368,74212,0
2372,74226,0
2370,74191,0
2368,74160,0
2372,74245,0
2408,74199,0
2408,74219,0
2409,74183,0
2412,74148,0
2400,74237,0
2392,74186,0
2384,74201,0
2380,74195,0
2372,74165,0
2385,74230,0
2388,74171,0
2376,74210,0
2368,74165,0
2368,74176,0
2336,74185,0
2330,74158,0
2324,74184,0
2322,74164,0
2312,74208,0
2418,74213,0
2320,74176,0
2316,74132,0
2328,74202,0
2328,74186,0
2320,74170,0
2316,74170,0
2320,74139,0
2320,74213,0
2314,74162,0
2316,74200,0
2320,74161,0
2316,74145,0
2308,74201,0
2338,74164,0
2338,74183,0
2330,74166,0
2332,74152,0
2338,74214,0
2310,74169,0
2313,74188,0
2308,74180,0
2296,74167,0
2304,74210,0
2316,74159,0
2306,74168,0
2296,74172,0
2264,74178,0
2264,74182,0
2248,74153,0
2244,74202,0
2256,74123,0
2248,74181,0
2245,74206,0
2248,74161,0
2156,74136,0
2254,74219,0
2260,74169,0
2264,74201,0
2266,74162,0
2264,74149,0
2268,74231,0
2281,74169,0
2276,74211,0
2285,74165,0
2284,74129,0
2312,74205,0
2314,74175,0
2309,74204,0
2304,74185,0
2316,74145,0
2290,74213,0
2288,74184,0
2282,74196,0
2280,74169,0
2282,74165,0
2277,74195,0
2266,74177,0
2268,74191,0
2233,74160,0
2226,74198,0
2234,74191,0
2228,74171,0
2232,74182,0
2244,74161,0
2238,74134,0
2256,74211,0
2264,74168,0
2264,74202,0
2288,74167,0
2280,74152,0
2288,74214,0
2303,74172,0
2292,74196,0
2290,74169,0
2288,74126,0
2280,74226,0
2284,74188,0
2304,74207,0
2290,74172,0
2304,74131,0
2296,74227,0
2288,74181,0
2276,74185,0
2276,74179,0
2281,74165,0
2278,74204,0
2293,74173,0
2304,74162,0
2296,74205,0
2304,74182,0
2260,74163,0
2268,74173,0
2264,74196,0
2260,74226,0
2260,74185,0
2262,74206,0
2252,74169,0
2252,74132,0
2244,74237,0
2253,74177,0
2248,74208,0
2245,74159,0
2258,74166,0
2256,74219,0
2260,74197,0
2268,74185,0
2276,74187,0
2274,74186,0
2276,74207,0
2320,74178,0
2316,74182,0
2316,74202,0
2313,74192,0
2320,74244,0
2298,74188,0
2296,74160,0
2288,74225,0
2277,74200,0
2292,74217,0
2290,74202,0
2296,74184,0
2304,74220,0
2282,74200,0
2269,74201,0
2274,74187,0
2284,74218,0
2280,74185,0
2278,74158,0
2277,74235,0
2284,74198,0
2280,74232,0
2274,74210,0
2276,74158,0
2274,74233,0
2264,74202,0
2266,74235,0
2280,74189,0
2272,74167,0
2280,74251,0
2268,74213,0
2280,74217,0
2296,74204,0
2296,74177,0
2298,74259,0
2296,74208,0
2296,74231,0
2272,74184,0
2277,74185,0
2280,74253,0
2264,74196,0
2276,74228,0
2280,74209,0
2296,74203,0
2276,74250,0
2240,74239,0
2244,74186,0
2248,74242,0
2240,74203,0
2242,74251,0
2240,74212,0
2240,74193,0
2242,74254,0
2242,74205,0
2236,74249,0
2230,74225,0
2232,74167,0
2234,74229,0
2225,74212,0
2232,74244,0
2242,74203,0
2232,74199,0
2224,74240,0
2226,74211,0
2248,74247,0
2250,74206,0
2252,74157,0
2240,74259,0
2244,74204,0
2224,74245,0
2228,74222,0
2228,74170,0
2217,74257,0
2244,74202,0
2232,74240,0
2230,74203,0
2221,74153,0
2200,74205,0
2200,74203,0
2192,74225,0
2186,74247,0
2192,74144,0
2193,74254,0
2184,74211,0
2176,74238,0
2172,74211,0
2174,74184,0
2175,74237,0
2166,74216,0
2164,74215,0
2175,74215,0
2176,74200,0
2168,74245,0
2170,74196,0
2168,74217,0
2170,74202,0
2192,74208,0
2186,74238,0
2184,74202,0
2181,74201,0
2176,74230,0
2156,74210,0
2170,74223,0
2162,74202,0
2164,74179,0
2176,74237,0
2192,74229,0
2184,74233,0
2188,74197,0
2168,74226,0
2170,74212,0
2176,74234,0
2185,74229,0
2188,74203,0
2194,74191,0
2200,74237,0
2204,74195,0
2208,74233,0
2204,74198,0
2208,74149,0
2202,74257,0
2208,74201,0
2202,74236,0
2194,74207,0
2202,74150,0
2208,74226,0
2201,74213,0
2200,74239,0
2224,74200,0
2232,74158,0
2218,74252,0
2208,74220,0
2212,74249,0
2192,74214,0
2202,74198,0
2200,74245,0
2188,74207,0
2200,74218,0
2208,74218,0
2200,74215,0
2188,74237,0
2188,74204,0
2176,74235,0
2188,74204,0
2176,74231,0
2178,74162,0
2180,74249,0
2180,74226,0
2177,74229,0
2180,74201,0
2196,74167,0
2188,74256,0
2196,74211,0
2200,74240,0
2196,74229,0
2196,74209,0
2204,74241,0
2192,74209,0
2216,74187,0
2212,74257,0
2212,74223,0
2228,74246,0
2224,74213,0
2221,74180,0
2208,74250,0
2208,74220,0
2220,74228,0
2217,74220,0
2240,74175,0
2234,74263,0
2233,74223,0
2240,74234,0
2200,74266,0
2204,74217,0
2194,74250,0
2192,74231,0
2144,74236,0
2192,74210,0
2202,74260,0
2200,74228,0
2200,74199,0
2192,74266,0
2204,74234,0
2194,74255,0
2192,74232,0
2202,74204,0
2194,74250,0
2198,74238,0
2194,74249,0
2192,74241,0
2197,74189,0
2228,74281,0
2220,74233,0
2224,74260,0
2224,74240,0
2226,74192,0
2216,74279,0
2216,74231,0
2220,74279,0
2208,74239,0
2224,74202,0
2234,74287,0
2225,74247,0
2224,74258,0
2192,74266,0
2190,74251,0
2184,74266,0
2188,74279,0
2190,74268,0
2177,74241,0
2198,74251,0
2200,74257,0
2184,74256,0
2188,74303,0
2196,74266,0
2182,74231,0
2180,74285,0
2184,74259,0
2177,74289,0
2176,74258,0
2174,74203,0
2172,74313,0
2172,74254,0
2192,74280,0
2196,74266,0
2192,74204,0
2193,74294,0
2193,74238,0
2178,74288,0
2186,74250,0
2188,74226,0
2180,74301,0
2188,74251,0
2186,74293,0
2180,74253,0
2181,74200,0
2160,74262,0
2149,74243,0
2168,74265,0
2162,74244,0
2172,74265,0
2164,74260,0
2164,74255,0
2158,74285,0
2162,74255,0
2162,74262,0
2164,74270,0
2164,74255,0
2172,74293,0
2184,74255,0
2196,74235,0
2202,74290,0
2208,74269,0
2221,74288,0
2240,74260,0
2292,74205,0
2329,74315,0
2368,74279,0
2416,74300,0
2468,74256,0
2504,74230,0
2573,74318,0
2640,74259,0
2692,74293,0
2776,74246,0
2842,74238,0
2912,74302,0
2972,74284,0
2996,74281,0
3064,74257,0
3128,74291,0
3180,74316,0
3240,74255,0
3264,74275,0
3288,74280,0
3296,74244,0
3288,74330,0
3280,74262,0
3252,74273,0
3224,74277,0
3188,74263,0
3164,74308,0
3120,74271,0
3070,74262,0
3024,74293,0
2965,74277,0
2896,74295,0
2872,74269,0
2816,74236,0
2746,74331,0
2688,74276,0
2624,74295,0
2552,74268,0
2504,74262,0
2454,74321,0
2405,74273,0
2370,74303,0
2344,74270,0
2308,74246,0
2268,74324,0
2218,74311,0
2206,74276,0
2172,74289,0
2164,74237,0
2136,74302,0
2120,74273,0
2100,74250,0
2088,74329,0
2072,74284,0
2056,74294,0
2047,74284,0
2052,74275,0
2064,74329,0
2040,74285,0
2044,74284,0
2046,74302,0
2045,74282,0
2052,74326,0
2047,74283,0
2080,74270,0
2076,74314,0
2083,74294,0
2080,74324,0
2082,74284,0
2074,74254,0
2072,74328,0
2078,74299,0
2081,74308,0
2100,74268,0
2096,74262,0
2088,74324,0
2096,74287,0
2072,74331,0
2073,74291,0
2088,74322,0
2090,74253,0
2092,74306,0
2090,74256,0
2096,74340,0
2092,74305,0
2090,74319,0
2112,74308,0
2096,74296,0
2096,74330,0
2106,74301,0
2120,74268,0
2104,74338,0
2116,74295,0
2120,74332,0
2122,74305,0
2128,74272,0
2156,74353,0
2152,74306,0
2152,74328,0
2156,74306,0
2160,74297,0
2140,74357,0
2140,74308,0
2144,74287,0
2141,74344,0
2168,74303,0
2152,74338,0
2156,74308,0
2160,74264,0
2136,74328,0
2134,74314,0
2132,74296,0
2128,74332,0
2132,74331,0
2132,74281,0
2136,74348,0
2128,74313,0
2128,74335,0
2132,74308,0
2142,74265,0
2140,74374,0
2142,74341,0
2137,74355,0
2156,74306,0
2148,74294,0
2145,74380,0
2140,74339,0
2152,74339,0
2168,74340,0
2160,74317,0
2168,74335,0
2172,74313,0
2168,74314,0
2160,74352,0
2172,74329,0
2162,74365,0
2164,74325,0
2180,74273,0
2197,74378,0
2168,74332,0
2172,74361,0
2152,74335,0
2148,74354,0
2136,74361,0
2132,74318,0
2128,74329,0
2132,74347,0
2140,74328,0
2144,74369,0
2144,74321,0
2144,74288,0
2136,74390,0
2144,74335,0
2148,74376,0
2144,74328,0
2144,74284,0
2145,74384,0
2150,74338,0
2150,74370,0
2152,74329,0
2176,74303,0
2184,74381,0
2176,74344,0
2176,74374,0
2176,74344,0
2160,74329,0
2178,74392,0
2162,74337,0
2162,74360,0
2160,74340,0
2160,74327,0
2152,74363,0
2164,74345,0
2137,74379,0
2132,74341,0
2130,74360,0
2136,74340,0
2140,74332,0
2141,74388,0
2132,74338,0
2132,74366,0
2128,74346,0
2060,74344,0
2132,74372,0
2132,74351,0
2128,74348,0
2128,74372,0
2133,74353,0
2136,74379,0
2140,74347,0
2138,74285,0
2152,74390,0
2168,74336,0
2182,74353,0
2180,74344,0
2184,74310,0
2188,74378,0
2176,74329,0
2193,74356,0
2184,74339,0
2180,74326,0
2186,74380,0
2200,74314,0
2194,74327,0
2170,74268,0
2162,74358,0
2168,74369,0
2180,74302,0
2170,74316,0
2166,74312,0
2176,74326,0
2188,74308,0
2180,74339,0
2186,74318,0
2184,74281,0
2189,74339,0
2196,74287,0
2192,74322,0
2190,74306,0
2192,74284,0
2200,74340,0
2186,74301,0
2216,74313,0
2222,74281,0
2224,74278,0
2224,74330,0
2230,74288,0
2218,74282,0
2197,74278,0
2202,74288,0
2197,74322,0
2192,74266,0
2208,74253,0
2198,74295,0
2204,74277,0
2208,74299,0
2188,74268,0
2196,74293,0
2184,74248,0
2200,74283,0
2198,74212,0
2202,74254,0
2196,74247,0
2212,74268,0
2217,74247,0
2216,74210,0
2212,74249,0
2205,74222,0
2208,74259,0
2208,74232,0
2212,74178,0
2208,74261,0
2218,74224,0
2216,74240,0
2224,74205,0
2256,74171,0
2252,74269,0
2252,74217,0
2256,74239,0
2250,74202,0
2221,74184,0
2236,74252,0
2229,74192,0
2228,74205,0
2224,74191,0
2222,74167,0
2220,74211,0
2218,74200,0
2192,74170,0
2192,74125,0
2196,74174,0
2197,74173,0
2188,74183,0
2192,74202,0
2188,74161,0
2192,74114,0
2192,74202,0
2184,74144,0
2178,74191,0
2180,74152,0
2180,74101,0
2172,74209,0
2168,74137,0
2178,74183,0
2172,74149,0
2164,74109,0
2164,74190,0
2176,74136,0
2180,74165,0
2172,74149,0
2184,74114,0
2168,74179,0
2153,74139,0
2165,74147,0
2160,74131,0
2150,74120,0
2161,74170,0
2162,74115,0
2152,74113,0
2156,74143,0
2136,74109,0
2136,74121,0
2140,74139,0
2132,74137,0
2132,74118,0
2124,74117,0
2136,74151,0
2128,74116,0
2136,74120,0
2136,74131,0
2136,74111,0
2136,74146,0
2132,74114,0
2138,74105,0
2128,74120,0
2140,74109,0
2132,74124,0
2132,74103,0
2140,74064,0
2164,74145,0
2168,74104,0
2180,74140,0
2168,74098,0
2182,74076,0
2176,74127,0
2174,74101,0
2170,74131,0
2166,74078,0
2176,74051,0
2181,74140,0
2178,74106,0
2184,74127,0
2144,74095,0
2152,74146,0
2146,74080,0
2140,74111,0
2152,74069,0
2148,74095,0
2140,74117,0
2140,74081,0
2148,74042,0
2148,74124,0
2140,74095,0
2144,74115,0
2148,74080,0
2150,74055,0
2144,74138,0
2148,74098,0
2146,74118,0
2153,74088,0
2161,74048,0
2196,74115,0
2192,74091,0
2198,74090,0
2201,74096,0
2202,74091,0
2196,74101,0
2204,74089,0
2208,74030,0
2208,74129,0
2224,74090,0
2232,74109,0
2228,74086,0
2225,74057,0
2209,74068,0
2208,74067,0
2210,74095,0
2210,74099,0
2208,74104,0
2212,74115,0
2210,74081,0
2208,74063,0
2200,74105,0
2212,74086,0
2216,74109,0
2208,74089,0
2216,74046,0
2216,74125,0
2209,74091,0
2224,74104,0
2225,74065,0
2216,74014,0
2216,74125,0
2240,74070,0
2252,74111,0
2240,74076,0
2242,74042,0
2234,74131,0
2216,74083,0
2225,74100,0
2224,74077,0
2212,74043,0
2224,74132,0
2221,74076,0
2228,74093,0
2234,74074,0
2212,74064,0
2212,74105,0
2213,74113,0
2214,74070,0
2220,74112,0
2212,74079,0
2216,74089,0
2212,74095,0
2210,74082,0
2216,74107,0
2217,74087,0
2208,74061,0
2216,74147,0
2226,74075,0
2216,74112,0
2224,74086,0
2218,74049,0
2212,74138,0
2220,74095,0
2240,74128,0
2250,74096,0
2242,74044,0
2244,74121,0
2260,74098,0
2224,74120,0
2242,74084,0
2235,74028,0
2238,74132,0
2248,74089,0
2256,74136,0
2256,74088,0
2250,74061,0
2224,74097,0
2230,74127,0
2220,74118,0
2228,74096,0
2228,74080,0
2228,74118,0
2236,74093,0
2246,74103,0
2236,74136,0
2240,74120,0
2248,74090,0
2240,74120,0
2236,74075,0
2234,74117,0
2244,74114,0
2240,74057,0
2232,74127,0
2234,74106,0
2236,74108,0
2264,74081,0
2264,74077,0
2268,74135,0
2264,74098,0
2264,74121,0
2248,74096,0
2256,74059,0
2256,74124,0
2250,74077,0
2260,74130,0
2260,74100,0
2256,74062,0
2257,74133,0
2236,74124,0
2236,74074,0
2234,74105,0
2240,74123,0
2236,74102,0
2244,74047,0
2244,74141,0
2248,74116,0
2253,74134,0
2266,74093,0
2258,74056,0
2248,74149,0
2257,74110,0
2260,74118,0
2258,74089,0
2266,74057,0
2272,74140,0
2268,74103,0
2272,74120,0
2296,74116,0
2304,74075,0
2296,74129,0
2292,74103,0
2290,74106,0
2280,74098,0
2284,74085,0
2291,74151,0
2288,74094,0
2292,74085,0
2304,74120,0
2290,74107,0
2264,74096,0
2272,74110,0
2264,74086,0
2265,74093,0
2268,74110,0
2272,74086,0
2272,74124,0
2272,74087,0
2264,74039,0
2272,74143,0
2272,74099,0
2368,74119,0
2268,74100,0
2276,74078,0
2267,74142,0
2272,74097,0
2272,74107,0
2274,74091,0
2288,74072,0
2304,74117,0
2304,74088,0
2304,74119,0
2306,74095,0
2304,74096,0
2289,74123,0
2296,74099,0
2294,74057,0
2278,74122,0
2296,74103,0
2304,74109,0
2296,74100,0
2298,74053,0
2268,74114,0
2264,74098,0
2261,74071,0
2260,74105,0
2258,74098,0
2320,74125,0
2264,74086,0
2256,74050,0
2252,74158,0
2252,74090,0
2248,74122,0
2250,74090,0
2242,74052,0
2248,74140,0
2262,74084,0
2256,74121,0
2256,74101,0
2244,74062,0
2252,74122,0
2280,74084,0
2280,74125,0
2298,74095,0
2296,74081,0
2280,74139,0
2272,74084,0
2269,74090,0
2284,74087,0
2278,74096,0
2300,74124,0
2316,74095,0
2306,74083,0
2296,74122,0
2268,74114,0
2282,74113,0
2269,74111,0
2272,74115,0
2269,74110,0
2280,74083,0
2276,74129,0
2288,74093,0
2280,74062,0
2284,74141,0
2288,74105,0
2281,74114,0
2276,74089,0
2272,74082,0
2269,74130,0
2264,74089,0
2266,74105,0
2266,74092,0
2268,74092,0
2296,74130,0
2298,74086,0
2296,74098,0
2300,74102,0
2298,74080,0
2282,74141,0
2284,74095,0
2285,74096,0
2272,74107,0
2296,74076,0
2288,74143,0
2288,74112,0
2284,74098,0
2276,74072,0
2252,74114,0
2256,74131,0
2260,74101,0
2258,74124,0
2260,74077,0
2248,74122,0
2258,74114,0
2246,74135,0
2236,74099,0
2237,74054,0
2234,74152,0
2228,74101,0
2224,74116,0
2224,74101,0
2226,74056,0
2224,74166,0
2224,74122,0
2220,74134,0
2240,74109,0
2242,74085,0
2234,74162,0
2228,74089,0
2224,74118,0
2210,74113,0
2212,74116,0
2202,74154,0
2196,74099,0
2208,74087,0
2208,74129,0
2201,74104,0
2196,74139,0
2168,74139,0
2160,74123,0
2152,74107,0
2166,74121,0
2160,74129,0
2169,74184,0
2168,74115,0
2165,74145,0
2160,74109,0
2164,74097,0
2160,74146,0
2152,74112,0
2165,74138,0
2165,74111,0
2170,74080,0
2176,74153,0
2184,74116,0
2178,74132,0
2180,74106,0
2208,74109,0
2208,74150,0
2204,74112,0
2200,74111,0
2200,74118,0
2192,74137,0
2196,74160,0
2195,74115,0
2184,74082,0
2200,74162,0
2188,74130,0
2188,74127,0
2186,74107,0
2170,74142,0
2160,74108,0
2154,74116,0
2148,74103,0
2156,74142,0
2152,74146,0
2158,74122,0
2166,74112,0
2168,74141,0
2170,74122,0
2166,74106,0
2160,74127,0
2170,74106,0
2168,74159,0
2170,74121,0
2176,74068,0
2184,74169,0
2173,74134,0
2176,74141,0
2184,74102,0
2188,74080,0
2180,74162,0
2184,74110,0
2164,74134,0
2144,74142,0
2132,74120,0
2129,74158,0
2128,74117,0
2120,74088,0
2133,74165,0
2120,74119,0
2122,74126,0
2104,74132,0
2108,74061,0
2112,74138,0
2120,74116,0
2128,74176,0
2138,74141,0
2160,74105,0
2184,74194,0
2196,74127,0
2228,74147,0
2260,74141,0
2292,74116,0
2336,74179,0
2388,74144,0
2434,74144,0
2488,74150,0
2538,74153,0
2586,74171,0
2644,74139,0
2736,74089,0
2800,74180,0
2856,74147,0
2912,74164,0
2968,74128,0
3000,74105,0
3048,74184,0
3084,74130,0
3096,74161,0
3136,74146,0
3128,74128,0
3124,74180,0
3104,74143,0
3040,74154,0
3012,74160,0
2980,74158,0
2943,74134,0
2912,74158,0
2869,74155,0
2808,74176,0
2768,74146,0
2704,74133,0
2656,74184,0
2604,74143,0
2548,74157,0
2508,74157,0
2456,74161,0
2424,74173,0
2374,74152,0
2344,74121,0
2296,74180,0
2266,74134,0
2260,74181,0
2234,74159,0
2202,74127,0
2185,74215,0
2160,74163,0
2128,74195,0
2106,74161,0
2096,74160,0
2074,74197,0
2064,74168,0
2052,74166,0
2026,74178,0
2008,74166,0
1973,74195,0
1964,74201,0
1952,74168,0
1940,74171,0
1936,74198,0
1930,74196,0
1928,74174,0
1938,74134,0
1928,74212,0
1924,74173,0
1938,74198,0
1938,74167,0
1928,74130,0
1940,74213,0
1932,74184,0
1940,74209,0
1936,74178,0
1941,74136,0
1952,74236,0
1972,74200,0
1970,74225,0
1976,74175,0
1976,74174,0
1984,74221,0
1972,74190,0
1972,74187,0
1962,74191,0
1961,74190,0
1968,74214,0
1972,74195,0
1965,74153,0
1972,74217,0
1968,74190,0
1960,74210,0
1972,74217,0
1980,74205,0
2000,74186,0
1994,74164,0
2000,74245,0
2000,74209,0
1996,74203,0
2008,74218,0
2076,74199,0
2000,74212,0
1992,74199,0
1997,74162,0
2000,74231,0
2002,74210,0
2012,74230,0
2022,74203,0
2028,74196,0
2064,74241,0
2054,74202,0
2072,74228,0
2066,74215,0
2068,74201,0
2060,74234,0
2086,74208,0
2072,74165,0
2061,74234,0
2076,74204,0
2081,74244,0
2072,74216,0
2060,74205,0
2047,74192,0
2052,74214,0
2056,74184,0
2047,74204,0
2046,74252,0
2058,74206,0
2056,74246,0
2060,74231,0
2052,74193,0
2047,74267,0
2060,74218,0
2058,74241,0
2064,74199,0
2068,74204,0
2080,74258,0
2080,74211,0
2068,74206,0
2112,74219,0
2112,74215,0
2114,74246,0
2114,74213,0
2116,74190,0
2092,74254,0
2100,74225,0
2110,74262,0
2104,74238,0
2098,74162,0
2104,74267,0
2106,74220,0
2102,74242,0
2096,74233,0
2074,74205,0
2068,74260,0
2069,74227,0
2070,74220,0
2076,74211,0
2072,74236,0
2076,74209,0
2080,74210,0
2089,74260,0
2088,74218,0
2106,74238,0
2112,74238,0
2120,74213,0
2124,74245,0
2124,74233,0
2136,74220,0
2136,74255,0
2148,74214,0
2144,74257,0
2168,74222,0
2170,74199,0
2168,74266,0
2156,74231,0
2160,74255,0
2148,74213,0
2154,74189,0
2152,74276,0
2165,74235,0
2156,74251,0
2154,74222,0
2156,74235,0
2152,74269,0
2152,74211,0
2136,74218,0
2138,74260,0
2136,74224,0
2144,74259,0
2152,74230,0
2148,74248,0
2144,74248,0
2145,74188,0
2138,74266,0
2157,74219,0
2140,74251,0
2160,74225,0
2142,74176,0
2152,74269,0
2152,74235,0
2161,74263,0
2172,74220,0
2172,74198,0
2200,74253,0
2208,74221,0
2210,74239,0
2218,74219,0
2208,74177,0
2192,74268,0
2188,74226,0
2192,74260,0
2192,74207,0
2192,74175,0
2182,74243,0
2189,74192,0
2192,74217,0
2162,74224,0
2161,74219,0
2166,74190,0
2168,74193,0
2166,74188,0
2168,74183,0
2170,74201,0
2164,74172,0
2172,74142,0
2174,74222,0
2174,74183,0
2172,74193,0
2172,74174,0
2175,74140,0
2168,74218,0
2175,74161,0
2172,74177,0
2168,74171,0
2176,74127,0
2208,74199,0
2208,74144,0
2208,74139,0
2202,74149,0
2208,74123,0
2200,74170,0
2194,74127,0
2208,74098,0
2200,74151,0
2210,74141,0
2208,74129,0
2212,74103,0
2208,74045,0
2172,74091,0
2170,74124,0
2173,74082,0
2169,74106,0
2168,74141,0
2160,74074,0
2164,74137,0
2164,74091,0
2166,74045,0
2168,74133,0
2173,74069,0
2166,74086,0
2164,74062,0
2168,74009,0
2165,74118,0
2178,74060,0
2164,74069,0
2168,74050,0
2176,74025,0
2184,74072,0
2186,74024,0
2184,74023,0
2188,74028,0
2184,74010,0
2170,74049,0
2174,74028,0
2168,73976,0
2160,74050,0
2176,74006,0
2168,74028,0
2168,73993,0
2153,73972,0
2128,73966,0
2140,74015,0
2138,73967,0
2132,73999,0
2136,73986,0
2140,73974,0
2150,73961,0
2144,73997,0
2144,73975,0
2140,74007,0
2162,73966,0
2148,73928,0
2148,73993,0
2180,73966,0
2165,73985,0
2148,73933,0
2146,73896,0
2156,73985,0
2148,73944,0
2170,73986,0
2170,73954,0
2192,73915,0
2176,74000,0
2184,73939,0
2176,73969,0
2180,73935,0
2176,73922,0
2176,73988,0
2192,73928,0
2189,73936,0
2184,73937,0
2184,73922,0
2160,73911,0
2148,73964,0
2144,73911,0
2160,73940,0
2152,73931,0
2152,73950,0
2152,73916,0
2152,73939,0
2156,73913,0
2148,73864,0
2152,73959,0
2150,73930,0
2168,73939,0
2162,73921,0
2168,73873,0
2168,73954,0
2172,73916,0
2168,73924,0
2176,73903,0
2196,73898,0
2196,73963,0
2204,73910,0
2208,73925,0
2194,73931,0
2192,73920,0
2204,73945,0
2192,73915,0
2188,73892,0
2200,73944,0
2198,73905,0
2202,73930,0
2196,73916,0
2181,73914,0
2172,73925,0
2164,73889,0
2172,73925,0
2174,73919,0
2176,73927,0
2170,73918,0
2170,73864,0
2184,73945,0
2180,73897,0
2192,73932,0
2192,73916,0
2192,73860,0
2188,73942,0
2192,73908,0
2192,73941,0
2196,73910,0
2196,73867,0
2192,73961,0
2244,73898,0
2216,73921,0
2224,73919,0
2228,73903,0
2226,73936,0
2200,73917,0
2208,73916,0
2208,73912,0
2201,73896,0
2212,73948,0
2216,73904,0
2216,73891,0
2214,73915,0
2176,73912,0
2172,73913,0
2169,73892,0
2172,73937,0
2178,73911,0
2172,73933,0
2180,73886,0
2178,73886,0
2188,73957,0
2180,73896,0
2184,73919,0
2176,73919,0
2178,73898,0
2174,73933,0
2176,73901,0
2175,73899,0
2172,73919,0
2173,73922,0
2180,73944,0
2216,73905,0
2220,73863,0
2216,73945,0
2220,73910,0
2220,73951,0
2208,73916,0
2212,73880,0
2212,73964,0
2206,73898,0
2216,73921,0
2224,73918,0
2220,73902,0
2190,73940,0
2184,73948,0
2184,73905,0
2180,73923,0
2188,73919,0
2178,73877,0
2180,73960,0
2192,73905,0
2194,73973,0
2188,73916,0
2200,73918,0
2192,73941,0
2184,73921,0
2194,73893,0
2184,73960,0
2196,73914,0
2192,73967,0
2178,73934,0
2200,73875,0
2196,73988,0
2202,73933,0
2193,73948,0
2184,73941,0
2196,73933,0
2184,73940,0
2192,73940,0
2190,73892,0
2181,73969,0
2208,73929,0
2204,73973,0
2198,73938,0
2200,73894,0
2176,73989,0
2164,73946,0
2172,73936,0
2164,73946,0
2162,73910,0
2168,73959,0
2105,73925,0
2164,73952,0
2162,73951,0
2164,73899,0
2170,73979,0
2164,73939,0
2168,73966,0
2160,73943,0
2156,73937,0
2150,73975,0
2150,73940,0
2160,73903,0
2160,73972,0
2176,73935,0
2184,73973,0
2182,73940,0
2192,73903,0
2178,74007,0
2176,73940,0
2180,73966,0
2176,73934,0
2176,73942,0
2188,73981,0
2186,73954,0
2186,73925,0
2180,73959,0
2156,73989,0
2152,73928,0
2144,73941,0
2146,73938,0
2138,73964,0
2132,73920,0
2132,74007,0
2134,73940,0
2128,73978,0
2141,73958,0
2136,73951,0
2130,74010,0
2132,73937,0
2144,73912,0
2140,74002,0
2140,73943,0
2136,73985,0
2133,73955,0
2148,73921,0
2154,73992,0
2160,73962,0
2156,73962,0
2144,73944,0
2140,73947,0
2116,73993,0
2124,73951,0
2116,73948,0
2112,73977,0
2130,73948,0
2128,73981,0
2128,73960,0
2124,73918,0
2112,73937,0
2104,73987,0
2112,73923,0
2112,73967,0
2116,73961,0
2122,73964,0
2120,73908,0
2121,74007,0
2122,73960,0
2122,73988,0
2130,73963,0
2136,73924,0
2136,74010,0
2136,73968,0
2152,73989,0
2154,73972,0
2160,73948,0
2156,73981,0
2154,73956,0
2180,73932,0
2172,73997,0
2176,73954,0
2180,73992,0
2176,73963,0
2157,73921,0
2160,74013,0
2152,73965,0
2149,73990,0
2148,73946,0
2140,73939,0
2144,74002,0
2140,73975,0
2106,73955,0
2116,73918,0
2112,73995,0
2112,73975,0
2116,73943,0
2118,73979,0
2120,73976,0
2128,73942,0
2128,73968,0
2136,73953,0
2144,73988,0
2140,73976,0
2152,73929,0
2160,73970,0
2152,73976,0
2156,73983,0
2154,73948,0
2164,73905,0
2166,74003,0
2192,73960,0
2198,73993,0
2196,73969,0
2192,73921,0
2194,73997,0
2188,73967,0
2188,73995,0
2192,73961,0
2178,73945,0
2196,73986,0
2200,73950,0
2196,73959,0
2196,73988,0
2168,73994,0
2164,73892,0
2164,74001,0
2162,73957,0
2160,73967,0
2156,74016,0
2154,73979,0
2146,73960,0
2148,73976,0
2144,73952,0
2146,73990,0
2140,73966,0
2136,73919,0
2145,73999,0
2132,73957,0
2136,73980,0
2133,73961,0
2134,73921,0
2129,74005,0
2144,73963,0
2156,73995,0
2160,73976,0
2160,73939,0
2160,74005,0
2146,73975,0
2152,73975,0
2160,73984,0
2144,73972,0
2146,74008,0
2160,73947,0
2157,73904,0
2148,74013,0
2132,73977,0
2132,73974,0
2126,73919,0
2120,74003,0
2112,73988,0
2116,73942,0
2114,74007,0
2108,73969,0
2105,74010,0
2098,73979,0
2098,73937,0
2104,74008,0
2105,73970,0
2096,74009,0
2104,73971,0
2112,73951,0
2112,74016,0
2112,73987,0
2106,74003,0
2136,73970,0
2140,73972,0
2156,74008,0
2148,73979,0
2156,73962,0
2144,74009,0
2148,74002,0
2144,74021,0
2136,73979,0
2140,73935,0
2148,74040,0
2140,73999,0
2137,74003,0
2117,73954,0
2120,73990,0
2128,73988,0
2136,73993,0
2128,74001,0
2137,74003,0
2144,74009,0
2144,74004,0
2153,73965,0
2154,74053,0
2156,73993,0
2145,74026,0
2161,73987,0
2166,73987,0
2157,74016,0
2152,74012,0
2160,74018,0
2152,74035,0
2152,73999,0
2176,74025,0
2180,74029,0
2168,73954,0
2168,74052,0
2168,74005,0
2152,74031,0
2160,74011,0
2168,73976,0
2156,74048,0
2176,74014,0
2164,74024,0
2178,74005,0
2165,74004,0
2156,74045,0
2156,73978,0
2136,74004,0
2144,73975,0
2137,73963,0
2136,74063,0
2128,74021,0
2124,74030,0
2124,74020,0
2128,73967,0
2120,74050,0
2116,74012,0
2114,74034,0
2112,74027,0
2104,73980,0
2110,74067,0
2096,74019,0
2104,74026,0
2112,74015,0
2130,74018,0
2148,74043,0
2160,74021,0
2168,73968,0
2185,74071,0
2180,74022,0
2212,74048,0
2230,74009,0
2256,74007,0
2282,74057,0
2324,74020,0
2368,74016,0
2404,74041,0
2429,74025,0
2486,74053,0
2544,74004,0
2604,74035,0
2660,74024,0
2728,74028,0
2800,74053,0
2866,74024,0
2908,73986,0
2956,74073,0
2994,74028,0
3080,74053,0
3060,74028,0
3084,73993,0
3071,74064,0
3068,74024,0
3060,74055,0
3040,74030,0
3018,74010,0
3036,74057,0
3008,74063,0
2964,74019,0
2912,74070,0
2868,74036,0
2792,74059,0
2736,74041,0
2684,73995,0
2620,74072,0
2592,74045,0
2540,74075,0
2496,74038,0
2400,74049,0
2356,74040,0
2324,74025,0
2288,74082,0
2260,74043,0
2240,74052,0
2224,74043,0
2194,74064,0
2176,74049,0
2166,74051,0
2144,74060,0
2120,74043,0
2120,74072,0
2089,74049,0
2072,74000,0
2064,74077,0
2040,74045,0
2018,74082,0
2018,74049,0
2012,74030,0
1994,74076,0
2004,74051,0
1996,74053,0
2000,74055,0
1987,74071,0
1993,74081,0
1988,74076,0
1988,74019,0
1992,74091,0
1994,74064,0
1994,74068,0
1996,74056,0
1968,74049,0
1976,74054,0
1952,74036,0
1970,74085,0
1972,74052,0
1972,74102,0
1972,74063,0
1972,74033,0
2058,74101,0
1962,74062,0
1972,74076,0
1928,74065,0
1978,74054,0
1972,74104,0
1980,74069,0
1976,74027,0
1980,74134,0
1990,74060,0
1980,74110,0
1994,74055,0
2000,74031,0
2010,74101,0
2016,74073,0
2021,74090,0
2012,74069,0
2017,74066,0
2016,74124,0
2016,74080,0
2024,74062,0
2024,74107,0
2026,74074,0
2010,74082,0
2002,74065,0
2000,74072,0
2006,74093,0
2002,74085,0
2012,74075,0
2008,74083,0
2012,74099,0
2020,74063,0
2024,74062,0
2033,74100,0
2040,74083,0
2046,74067,0
2054,74091,0
2064,74087,0
2056,74111,0
2068,74097,0
2068,74039,0
2072,74142,0
2072,74105,0
2100,74110,0
2120,74097,0
2096,74067,0
2097,74133,0
2104,74075,0
2088,74100,0
2096,74069,0
2088,74083,0
2082,74109,0
2088,74103,0
2096,74074,0
2092,74122,0
2092,74085,0
2060,74079,0
2064,74098,0
2060,74111,0
2057,74072,0
2058,74127,0
2060,74104,0
2057,74096,0
2060,74148,0
2072,74101,0
2080,74093,0
2068,74112,0
2072,74106,0
2076,74138,0
2082,74105,0
2072,74070,0
2078,74144,0
2076,74102,0
2076,74150,0
2076,74083,0
2098,74081,0
2106,74168,0
2106,74097,0
2104,74138,0
2108,74113,0
2104,74094,0
2105,74156,0
2106,74120,0
2108,74086,0
2122,74139,0
2124,74117,0
2128,74149,0
2120,74131,0
2100,74117,0
2100,74093,0
2108,74121,0
2116,74123,0
2114,74125,0
2112,74078,0
2124,74181,0
2116,74130,0
2130,74160,0
2120,74124,0
2112,74086,0
2113,74187,0
2116,74140,0
2120,74160,0
2116,74138,0
2116,74124,0
2108,74177,0
2120,74126,0
2124,74132,0
2148,74167,0
2160,74148,0
2168,74180,0
2176,74141,0
2172,74103,0
2168,74177,0
2176,74152,0
2184,74179,0
2168,74133,0
2184,74119,0
2182,74178,0
2184,74136,0
2184,74172,0
2154,74143,0
2148,74154,0
2144,74164,0
2148,74151,0
2160,74125,0
2157,74142,0
2154,74162,0
2164,74138,0
2168,74123,0
2168,74161,0
2152,74141,0
2154,74097,0
2156,74165,0
2160,74118,0
2160,74156,0
2160,74137,0
2160,74085,0
2160,74171,0
2160,74125,0
2168,74128,0
2168,74119,0
2176,74089,0
2176,74155,0
2176,74106,0
2156,74139,0
2168,74119,0
2160,74090,0
2161,74143,0
2176,74115,0
2184,74068,0
2181,74134,0
2186,74083,0
2160,74099,0
2158,74105,0
2157,74099,0
2169,74130,0
2168,74097,0
2162,74121,0
2162,74072,0
2158,74113,0
2152,74085,0
2175,74033,0
2160,74098,0
2162,74080,0
2168,74074,0
2172,74067,0
2162,74051,0
2172,74125,0
2178,74069,0
2176,74035,0
2181,74077,0
2212,74060,0
2200,74092,0
2210,74034,0
2208,74004,0
2208,74077,0
2192,74042,0
2201,74077,0
2188,74041,0
2188,74006,0
2200,74080,0
2210,74027,0
2210,74044,0
2208,74009,0
2184,74030,0
2176,74006,0
2176,74041,0
2192,74012,0
2192,74017,0
2180,74027,0
2192,74006,0
2198,73994,0
2197,74045,0
2192,73992,0
2196,73990,0
2192,74007,0
2204,73976,0
2204,74033,0
2202,73963,0
2204,73965,0
2148,74031,0
2200,73983,0
2200,74004,0
2220,73961,0
2224,73931,0
2225,74028,0
2217,73971,0
2228,74003,0
2216,73974,0
2224,73941,0
2236,73994,0
2213,73957,0
2240,73922,0
2232,74018,0
2236,73967,0
2230,73988,0
2200,73945,0
2212,73987,0
2200,73966,0
2192,73956,0
2184,73982,0
2198,73919,0
2192,73963,0
2182,73940,0
2178,73903,0
2178,73979,0
2174,73947,0
2164,73966,0
2178,73933,0
2168,73920,0
2184,73975,0
2172,73938,0
2184,73885,0
2184,73972,0
2196,73913,0
2216,73960,0
2240,73927,0
2240,73898,0
2242,73973,0
2234,73916,0
2221,73939,0
2220,73924,0
2228,73910,0
2213,73967,0
2228,73913,0
2228,73911,0
2227,73941,0
2200,73913,0
2197,73919,0
2200,73916,0
2204,73911,0
2208,73938,0
2204,73955,0
2200,73916,0
2208,73944,0
2208,73919,0
2194,73901,0
2200,73954,0
2188,73933,0
2188,73960,0
2192,73924,0
2196,73904,0
2192,73959,0
2192,73915,0
2194,73898,0
2224,73927,0
2224,73920,0
2234,73942,0
2232,73916,0
2242,73865,0
2230,73964,0
2225,73920,0
2238,73927,0
2240,73921,0
2220,73869,0
2232,73957,0
2236,73910,0
2224,73963,0
2228,73911,0
2200,73952,0
2194,73920,0
2185,73947,0
2184,73905,0
2180,73956,0
2176,73954,0
2192,73914,0
2260,73880,0
2192,73966,0
2200,73936,0
2200,73942,0
2206,73907,0
2224,73909,0
2228,73970,0
2232,73931,0
2228,73916,0
2228,73937,0
2232,73933,0
2224,73942,0
2248,73933,0
2256,73901,0
2248,73977,0
2244,73940,0
2248,73950,0
2240,73938,0
2249,73897,0
2261,73958,0
2236,73926,0
2256,73953,0
2258,73927,0
2248,73905,0
2240,73964,0
2212,73952,0
2198,73943,0
2200,73927,0
2204,73941,0
2208,73895,0
2216,73931,0
2205,73969,0
2208,73937,0
2202,73910,0
2202,73990,0
2221,73939,0
2220,73950,0
2224,73933,0
2220,73917,0
2212,73983,0
2216,73945,0
2221,73933,0
2224,73949,0
2220,73959,0
2244,73990,0
2246,73956,0
2250,73938,0
2258,73975,0
2249,73959,0
2245,73980,0
2248,73936,0
2230,73894,0
2224,74011,0
2240,73966,0
2234,73960,0
2232,73942,0
2221,73949,0
2196,73961,0
2186,73941,0
2196,73968,0
2200,73974,0
2272,73958,0
2196,73977,0
2210,73969,0
2210,73959,0
2208,74005,0
2214,73950,0
2208,73970,0
2204,73979,0
2202,73958,0
2216,74008,0
2202,73969,0
2194,73932,0
2204,74031,0
2194,73990,0
2200,73985,0
2228,73959,0
2229,73959,0
2224,74007,0
2228,73986,0
2221,73991,0
2212,73988,0
2216,73996,0
2216,74023,0
2204,73976,0
2228,73944,0
2233,74017,0
2226,73983,0
2228,74013,0
2200,73986,0
2200,74014,0
2192,73993,0
2208,73971,0
2188,73977,0
2180,73952,0
2188,74015,0
2196,73986,0
2196,73983,0
2201,73987,0
2198,73991,0
2212,74012,0
2209,73984,0
2214,73986,0
2222,74000,0
2232,73981,0
2224,74021,0
2226,73987,0
2224,73987,0
2252,74009,0
2258,73998,0
2256,74013,0
2258,73988,0
2256,73962,0
2240,74023,0
2244,73977,0
2242,74024,0
2232,73996,0
2240,73942,0
2242,74031,0
2240,73997,0
2240,74028,0
2208,74033,0
2205,73976,0
2204,73997,0
2196,74006,0
2204,73975,0
2188,73974,0
2200,73947,0
2200,74033,0
2192,73998,0
2190,74025,0
2200,73983,0
2200,73973,0
2192,74031,0
2200,73979,0
2196,74009,0
2192,73967,0
2200,73973,0
2196,74031,0
2200,73985,0
2226,73997,0
2220,73988,0
2240,73988,0
2228,74030,0
2228,73971,0
2212,74016,0
2213,73990,0
2208,73980,0
2208,74017,0
2228,73993,0
2218,73997,0
2216,73989,0
2208,74000,0
2188,74011,0
2176,74002,0
2176,73979,0
2180,73979,0
2186,74018,0
2180,74027,0
2178,73984,0
2172,74017,0
2172,73988,0
2176,73950,0
2180,74043,0
2176,73988,0
2168,74001,0
2172,73991,0
2181,73970,0
2180,74043,0
2176,73989,0
2164,74001,0
2170,73979,0
2192,73977,0
2196,74035,0
2184,73988,0
2192,74002,0
2192,73999,0
2176,73973,0
2176,74027,0
2180,73988,0
2160,73949,0
2184,74031,0
2178,73998,0
2182,74019,0
2196,73998,0
2169,73988,0
2192,73980,0
2186,74008,0
2192,74005,0
2186,74012,0
2192,73954,0
2200,74048,0
2192,74005,0
2200,74003,0
2200,73990,0
2196,73989,0
2194,74025,0
2212,74003,0
2196,73964,0
2202,74044,0
2204,73999,0
2204,74034,0
2204,73985,0
2205,73968,0
2208,74043,0
2216,73991,0
2208,73994,0
2218,73996,0
2204,73997,0
2196,74033,0
2200,73987,0
2196,73960,0
2192,74030,0
2208,73977,0
2208,74017,0
2216,73991,0
2200,73932,0
2178,73998,0
2170,73977,0
2172,74020,0
2176,74006,0
2172,73984,0
2170,73984,0
2178,74016,0
2174,74010,0
2166,74031,0
2172,73995,0
2168,73947,0
2168,74036,0
2164,74000,0
2160,74039,0
2156,74010,0
2160,73958,0
2164,74049,0
2160,73998,0
2164,74031,0
2186,73999,0
2200,73998,0
2202,74048,0
2192,73985,0
2200,73996,0
2176,74018,0
2180,74012,0
2176,74041,0
2176,74022,0
2184,73998,0
2180,74030,0
2170,74008,0
2170,74018,0
2144,74001,0
2136,73973,0
2145,74029,0
2142,74020,0
2158,74037,0
2144,74004,0
2152,74007,0
2168,74049,0
2164,74016,0
2160,73980,0
2160,74011,0
2168,74015,0
2108,74056,0
2160,74016,0
2158,73985,0
2169,74062,0
2160,74022,0
2160,74067,0
2160,74033,0
2184,73976,0
2176,74080,0
2176,74032,0
2176,74059,0
2172,74020,0
2154,73983,0
2177,74081,0
2154,74026,0
2152,74048,0
2176,74041,0
2177,74032,0
2188,74082,0
2164,74064,0
2168,74050,0
2154,74048,0
2160,73997,0
2156,74009,0
2164,74039,0
2164,74037,0
2164,74026,0
2172,74057,0
2178,74042,0
2168,74052,0
2174,74050,0
2172,74033,0
2168,74067,0
2172,74041,0
2164,74040,0
2156,74045,0
2150,74021,0
2180,74067,0
2172,74051,0
2172,73997,0
2157,74063,0
2154,74053,0
2144,74075,0
2120,74056,0
2122,74015,0
2112,74108,0
2106,74040,0
2136,74084,0
2118,74068,0
2116,74062,0
2112,74083,0
2092,74064,0
2092,74055,0
2090,74062,0
2092,74046,0
2098,74093,0
2096,74058,0
2106,74076,0
2117,74067,0
2120,74065,0
2134,74096,0
2160,74072,0
2180,74053,0
2202,74094,0
2240,74069,0
2281,74099,0
2332,74061,0
2376,74021,0
2440,74131,0
2490,74078,0
2594,74102,0
2652,74092,0
2728,74065,0
2794,74130,0
2858,74094,0
2904,74092,0
2964,74081,0
3021,74070,0
3082,74123,0
3128,74089,0
3184,74091,0
3190,74104,0
3200,74093,0
3152,74098,0
3146,74114,0
3120,74068,0
3096,74117,0
3060,74099,0
3016,74116,0
3000,74106,0
2952,74139,0
2900,74088,0
2848,74084,0
2794,74135,0
2728,74113,0
2668,74141,0
2601,74122,0
2570,74083,0
2516,74158,0
2473,74118,0
2426,74147,0
2392,74123,0
2384,74071,0
2352,74176,0
2320,74142,0
2282,74171,0
2256,74135,0
2216,74079,0
2192,74179,0
2162,74139,0
2144,74177,0
2124,74130,0
2116,74082,0
2088,74191,0
2076,74134,0
2036,74121,0
2016,74146,0
2004,74136,0
2000,74171,0
1981,74101,0
1988,74189,0
1978,74146,0
1976,74136,0
1958,74172,0
1964,74143,0
1960,74179,0
1961,74142,0
1960,74104,0
1956,74185,0
1950,74155,0
1948,74161,0
1938,74154,0
1941,74103,0
1938,74197,0
1953,74158,0
1968,74174,0
1968,74159,0
1972,74115,0
1965,74214,0
1960,74175,0
1976,74190,0
1966,74179,0
1952,74136,0
1972,74210,0
1978,74179,0
1986,74173,0
1968,74182,0
1961,74185,0
1956,74175,0
1960,74211,0
1965,74156,0
1972,74187,0
1969,74149,0
1969,74210,0
1976,74178,0
1986,74203,0
1984,74190,0
1981,74145,0
1992,74240,0
1996,74190,0
2002,74215,0
1992,74190,0
2006,74175,0
2018,74218,0
2034,74202,0
2028,74163,0
2040,74220,0
2050,74186,0
2048,74217,0
2048,74203,0
2056,74186,0
2048,74241,0
2047,74214,0
2048,74224,0
2048,74192,0
2053,74135,0
2053,74234,0
2060,74188,0
2052,74227,0
2028,74183,0
2018,74198,0
2028,74221,0
2033,74158,0
2028,74187,0
2033,74199,0
2032,74229,0
2044,74224,0
2042,74200,0
2040,74229,0
2040,74203,0
2034,74172,0
2028,74251,0
2036,74224,0
2032,74250,0
2032,74199,0
2033,74160,0
2047,74260,0
2032,74222,0
2058,74247,0
2052,74201,0
2064,74182,0
2068,74264,0
2066,74210,0
2056,74237,0
2064,74219,0
2065,74208,0
2070,74251,0
2104,74220,0
2096,74211,0
2088,74240,0
2096,74216,0
2064,74257,0
2072,74216,0
2066,74205,0
2068,74213,0
2072,74239,0
2068,74232,0
2072,74216,0
2060,74271,0
2064,74230,0
2072,74256,0
2073,74234,0
2098,74195,0
2076,74266,0
2081,74236,0
2076,74234,0
2081,74236,0
2088,74237,0
2080,74247,0
2076,74226,0
2100,74200,0
2104,74240,0
2096,74224,0
2097,74254,0
2104,74243,0
2082,74192,0
2100,74254,0
2097,74235,0
2098,74258,0
2112,74237,0
2114,74187,0
2132,74289,0
2116,74247,0
2104,74230,0
2112,74278,0
2125,74243,0
2106,74211,0
2108,74295,0
2108,74227,0
2112,74187,0
2116,74289,0
2112,74245,0
2108,74273,0
2100,74234,0
2098,74228,0
2100,74293,0
2108,74249,0
2112,74257,0
2120,74246,0
2121,74228,0
2122,74261,0
2128,74246,0
2146,74216,0
2154,74257,0
2164,74249,0
2164,74271,0
2168,74225,0
2152,74202,0
2152,74263,0
2152,74240,0
2142,74251,0
2164,74254,0
2152,74207,0
2144,74275,0
2148,74217,0
2120,74207,0
2104,74260,0
2113,74216,0
2114,74237,0
2108,74221,0
2109,74228,0
2112,74210,0
2124,74233,0
2124,74253,0
2124,74228,0
2122,74248,0
2136,74222,0
2128,74211,0
2142,74254,0
2144,74210,0
2144,74211,0
2138,74229,0
2148,74191,0
2146,74238,0
2168,74193,0
2164,74179,0
2176,74196,0
2160,74193,0
2164,74218,0
2160,74192,0
2156,74173,0
2154,74200,0
2158,74173,0
2176,74225,0
2172,74183,0
2176,74149,0
2176,74184,0
2148,74148,0
2152,74161,0
2148,74180,0
2152,74197,0
2144,74157,0
2136,74101,0
2150,74199,0
2152,74147,0
2145,74170,0
2152,74155,0
2144,74097,0
2146,74190,0
2148,74133,0
2142,74163,0
2141,74130,0
2148,74085,0
2144,74168,0
2142,74099,0
2152,74140,0
2164,74124,0
2168,74081,0
2176,74154,0
2186,74109,0
2170,74121,0
2156,74097,0
2160,74098,0
2160,74108,0
2146,74092,0
2160,74061,0
2164,74116,0
2156,74080,0
2137,73999,0
2138,74074,0
2152,74070,0
2144,74059,0
2148,74080,0
2146,74065,0
2150,74094,0
2152,74038,0
2222,74029,0
2172,74094,0
2161,74057,0
2160,74077,0
2160,74044,0
2152,74008,0
2161,74074,0
2160,74036,0
2153,74064,0
2160,74057,0
2176,74025,0
2180,74069,0
2176,74033,0
2166,74022,0
2176,74060,0
2168,74023,0
2156,74057,0
2164,74029,0
2164,74003,0
2161,74040,0
2176,74030,0
2176,74059,0
2168,74015,0
2184,73987,0
2146,73999,0
2154,74020,0
2144,74011,0
2148,74041,0
2146,74043,0
2152,74017,0
2141,73981,0
2144,74052,0
2149,74019,0
2138,74020,0
2144,74009,0
2136,74011,0
2137,74048,0
2140,74025,0
2140,74012,0
2152,74014,0
2152,74006,0
2149,74047,0
2144,73987,0
2176,73969,0
2176,74040,0
2168,74008,0
2184,74019,0
2180,74005,0
2160,73955,0
2168,74046,0
2160,74003,0
2156,74030,0
2170,73995,0
2172,73955,0
2176,74062,0
2176,74004,0
2160,74002,0
2144,74017,0
2140,74018,0
2138,73986,0
2150,74021,0
2226,74014,0
2156,73986,0
2152,74033,0
2154,74000,0
2152,74026,0
2160,74005,0
2164,73968,0
2174,74046,0
2168,74011,0
2168,74017,0
2174,74010,0
2180,74005,0
2182,74025,0
2182,74001,0
2204,73948,0
2208,74050,0
2208,74016,0
2208,74043,0
2208,74003,0
2192,73991,0
2192,74050,0
2188,74002,0
2188,74019,0
2200,74007,0
2196,73996,0
2198,74040,0
2192,74013,0
2172,74020,0
2176,74014,0
2160,74024,0
2170,74013,0
2176,74034,0
2174,73993,0
2160,74045,0
2168,74010,0
2160,74038,0
2178,74012,0
2180,73969,0
2164,74056,0
2180,74000,0
2176,74020,0
2176,74006,0
2180,73975,0
2178,74069,0
2184,74005,0
2188,74036,0
2208,74023,0
2214,74007,0
2212,74051,0
2220,74034,0
2220,74004,0
2210,74049,0
2220,74020,0
2222,74042,0
2200,74027,0
2244,73950,0
2224,74065,0
2224,74018,0
2218,74042,0
2192,74035,0
2192,74029,0
2180,74039,0
2184,74063,0
2177,74002,0
2180,74057,0
2178,74019,0
2174,74051,0
2176,74026,0
2168,73998,0
2174,74072,0
2180,74031,0
2184,74027,0
2184,74009,0
2180,74030,0
2188,74059,0
2188,74029,0
2192,74004,0
2196,74043,0
2224,74025,0
2224,74051,0
2229,74029,0
2232,73979,0
2232,74073,0
2218,74018,0
2220,74044,0
2210,74011,0
2208,73998,0
2228,74057,0
2218,74011,0
2221,74038,0
2208,74022,0
2178,74025,0
2181,74019,0
2184,74027,0
2188,74043,0
2192,74015,0
2194,74055,0
2210,74026,0
2202,74036,0
2216,74023,0
2228,74019,0
2234,74051,0
2230,74037,0
2228,73998,0
2249,74038,0
2244,74015,0
2252,74067,0
2244,74031,0
2242,73976,0
2252,74069,0
2280,74019,0
2282,74054,0
2286,74024,0
2288,74019,0
2288,74068,0
2269,74019,0
2280,74023,0
2272,74036,0
2269,74031,0
2272,74059,0
2276,74023,0
2274,73981,0
2288,74051,0
2252,74017,0
2260,73984,0
2256,74030,0
2248,74012,0
2256,74028,0
2244,74028,0
2236,74050,0
2248,74018,0
2248,73981,0
2256,74068,0
2244,74019,0
2240,74042,0
2244,74018,0
2236,74021,0
2240,74078,0
2256,74029,0
2246,74038,0
2236,74025,0
2246,74010,0
2272,74061,0
2276,74026,0
2282,73982,0
2276,74073,0
2292,74030,0
2264,74050,0
2268,74014,0
2268,73986,0
2261,74060,0
2274,74006,0
2272,74041,0
2273,74016,0
2273,74012,0
2256,74008,0
2244,74028,0
2248,74043,0
2248,74024,0
2240,74016,0
2240,74033,0
2240,73996,0
2232,73974,0
2229,74052,0
2236,73999,0
2234,74026,0
2237,74008,0
2232,74011,0
2234,74040,0
2240,74003,0
2236,73969,0
2240,74045,0
2260,73999,0
2249,74042,0
2272,73983,0
2281,73969,0
2304,74050,0
2276,73993,0
2266,74025,0
2261,74010,0
2264,73993,0
2264,74030,0
2266,73964,0
2277,73980,0
2288,74017,0
2288,74007,0
2296,74028,0
2268,73999,0
2261,74011,0
2272,73990,0
2268,74027,0
2264,73992,0
2262,73963,0
2262,74023,0
2262,74008,0
2260,73978,0
2272,74004,0
2272,73988,0
2268,74019,0
2270,73985,0
2276,73949,0
2272,74026,0
2278,73991,0
2272,74024,0
2266,73997,0
2273,73930,0
2304,74028,0
2310,73981,0
2304,74019,0
2312,73978,0
2312,73961,0
2300,74035,0
2320,73987,0
2314,74015,0
2314,73971,0
2328,73970,0
2322,74028,0
2330,73983,0
2292,74022,0
2290,73949,0
2289,73980,0
2284,73989,0
2280,73979,0
2276,74003,0
2272,74002,0
2276,73999,0
2269,73996,0
2268,74025,0
2276,74003,0
2261,73997,0
2268,74027,0
2272,73998,0
2260,74006,0
2266,73989,0
2268,73942,0
2262,74051,0
2292,73997,0
2288,74041,0
2288,73991,0
2288,73986,0
2282,74030,0
2285,74023,0
2264,74025,0
2272,74009,0
2270,73985,0
2269,74030,0
2280,74006,0
2290,73952,0
2282,74035,0
2280,74000,0
2249,74026,0
2241,74006,0
2244,73989,0
2240,74041,0
2238,73960,0
2244,74048,0
2240,73995,0
2229,74023,0
2221,74009,0
2202,73974,0
2224,74055,0
2212,74020,0
2212,74034,0
2220,74018,0
2218,73999,0
2216,74040,0
2221,74016,0
2222,73993,0
2237,74051,0
2256,74010,0
2276,74050,0
2260,74027,0
2262,73996,0
2264,74066,0
2256,74019,0
2252,74043,0
2276,74024,0
2253,73979,0
2257,74065,0
2253,74019,0
2250,74058,0
2264,74031,0
2224,74026,0
2232,74026,0
2220,74048,0
2224,74029,0
2292,74034,0
2237,74029,0
2216,74074,0
2226,74023,0
2229,74051,0
2212,74044,0
2204,74040,0
2216,74076,0
2208,74046,0
2222,73991,0
2228,74084,0
2232,74047,0
2224,74069,0
2236,74046,0
2236,74000,0
2260,74099,0
2257,74052,0
2266,74062,0
2266,74062,0
2280,74020,0
2264,74095,0
2268,74043,0
2261,74074,0
2280,74061,0
2288,74053,0
2278,74093,0
2272,74042,0
2284,73990,0
2248,74049,0
2248,74066,0
2248,74030,0
2254,74031,0
2240,74071,0
2246,74089,0
2252,74061,0
2238,74081,0
2236,74050,0
2242,74049,0
2228,74090,0
2224,74058,0
2224,74073,0
2206,74041,0
2208,74049,0
2196,74092,0
2188,74053,0
2189,74047,0
2184,74081,0
2208,74072,0
2216,74080,0
2192,74056,0
2192,74002,0
2200,74126,0
2200,74074,0
2188,74095,0
2177,74073,0
2176,74028,0
2180,74119,0
2188,74068,0
2196,74092,0
2208,74074,0
2192,74051,0
2289,74085,0
2214,73999,0
2248,74078,0
2276,74080,0
2316,74030,0
2368,74096,0
2420,74078,0
2476,74111,0
2540,74076,0
2616,74051,0
2676,74134,0
2744,74074,0
2814,74094,0
2896,74095,0
2960,74089,0
3042,74105,0
3108,74090,0
3184,74055,0
3280,74120,0
3344,74095,0
3364,74108,0
3396,74091,0
3396,74049,0
3364,74133,0
3356,74073,0
3336,74115,0
3300,74093,0
3288,74085,0
3248,74153,0
3192,74092,0
3148,74127,0
3042,74115,0
2992,74107,0
2920,74128,0
2852,74103,0
2784,74093,0
2728,74162,0
2658,74101,0
2604,74121,0
2541,74098,0
2500,74084,0
2457,74147,0
2416,74102,0
2376,74099,0
2336,74122,0
2296,74121,0
2264,74149,0
2234,74101,0
2201,74062,0
2180,74157,0
2176,74127,0
2152,74143,0
2128,74116,0
2114,74099,0
2096,74166,0
2066,74125,0
2060,74143,0
2044,74125,0
2026,74124,0
2028,74140,0
2028,74126,0
2018,74075,0
2010,74163,0
1982,74095,0
1968,74133,0
1966,74154,0
1961,74134,0
1952,74131,0
1948,74128,0
1936,74143,0
1944,74135,0
1946,74103,0
1940,74157,0
1936,74121,0
1936,74142,0
1946,74134,0
1937,74110,0
1934,74171,0
1936,74113,0
1938,74116,0
1940,74162,0
1926,74130,0
1956,74179,0
1960,74149,0
1960,74111,0
1960,74183,0
1961,74123,0
1952,74171,0
1961,74151,0
1952,74124,0
1948,74173,0
1970,74159,0
1964,74115,0
1953,74182,0
1961,74151,0
1952,74158,0
1952,74156,0
1952,74158,0
1949,74166,0
1952,74235,0
1957,74158,0
1962,74116,0
1968,74204,0
1980,74160,0
1976,74187,0
1988,74160,0
1972,74140,0
1980,74208,0
1994,74163,0
1994,74175,0
1985,74169,0
1992,74150,0
1990,74201,0
1988,74166,0
2000,74151,0
2010,74181,0
2021,74165,0
2008,74182,0
2026,74157,0
2008,74115,0
2010,74230,0
2008,74178,0
2022,74207,0
2028,74175,0
2018,74151,0
2026,74217,0
2022,74187,0
2002,74193,0
1994,74149,0
2003,74181,0
2005,74180,0
2000,74166,0
2001,74229,0
2008,74173,0
2013,74168,0
2020,74215,0
2024,74175,0
2036,74207,0
2026,74180,0
2016,74150,0
2040,74226,0
2042,74164,0
2046,74168,0
2047,74163,0
2058,74177,0
2068,74199,0
2096,74169,0
2098,74125,0
2100,74203,0
2100,74169,0
2096,74189,0
2080,74175,0
2080,74131,0
2069,74222,0
2066,74170,0
2072,74193,0
2068,74180,0
2066,74145,0
2070,74216,0
2046,74159,0
2047,74205,0
2052,74184,0
2052,74198,0
2057,74175,0
2054,74174,0
2047,74211,0
2044,74178,0
2053,74136,0
2060,74207,0
2060,74181,0
2058,74203,0
2072,74185,0
2060,74144,0
2070,74234,0
2060,74200,0
2080,74232,0
2084,74178,0
2077,74158,0
2112,74223,0
2104,74184,0
2101,74216,0
2112,74183,0
2112,74189,0
2100,74217,0
2120,74165,0
2110,74204,0
2100,74200,0
2116,74194,0
2124,74223,0
2112,74191,0
2096,74151,0
2089,74195,0
2092,74181,0
2088,74194,0
2088,74194,0
2088,74140,0
2085,74216,0
2100,74199,0
2090,74225,0
2020,74184,0
2100,74180,0
2100,74221,0
2108,74179,0
2108,74195,0
2104,74195,0
2104,74199,0
2106,74199,0
2120,74193,0
2132,74146,0
2130,74227,0
2132,74191,0
2133,74219,0
2132,74169,0
2128,74161,0
2116,74208,0
2120,74192,0
2120,74158,0
2121,74180,0
2132,74165,0
2136,74194,0
2128,74171,0
2134,74120,0
2104,74151,0
2112,74150,0
2114,74152,0
2100,74162,0
2104,74186,0
2112,74147,0
2112,74176,0
2118,74149,0
2124,74110,0
2120,74181,0
2124,74145,0
2128,74153,0
2136,74133,0
2136,74118,0
2136,74165,0
2136,74129,0
2138,74079,0
2140,74172,0
2148,74123,0
2176,74142,0
2168,74120,0
2165,74067,0
2164,74139,0
2156,74100,0
2148,74099,0
2156,74109,0
2152,74094,0
2148,74123,0
2160,74070,0
2162,74032,0
2160,74111,0
2136,74053,0
2132,74081,0
2128,74107,0
2121,74068,0
2124,74087,0
2116,74032,0
2128,74035,0
2128,74077,0
2128,74039,0
2128,74072,0
2136,74034,0
2136,73995,0
2136,74099,0
2156,74038,0
2146,74037,0
2136,74035,0
2144,74000,0
2136,74060,0
2140,74022,0
2136,73941,0
2168,74072,0
2168,74015,0
2164,74036,0
2176,74001,0
2164,73975,0
2152,74042,0
2156,73983,0
2152,73994,0
2154,73998,0
2160,73993,0
2160,74010,0
2156,73988,0
2148,73950,0
2120,73929,0
2128,73995,0
2117,73950,0
2124,73962,0
2124,73975,0
2126,73967,0
2128,73952,0
2122,73991,0
2132,73951,0
2136,73969,0
2140,73946,0
2138,73942,0
2152,73984,0
2148,73948,0
2152,73953,0
2156,73958,0
2162,73932,0
2152,73971,0
2156,73938,0
2180,73884,0
2186,73978,0
2184,73932,0
2181,73935,0
2180,73908,0
2160,73913,0
2153,73967,0
2153,73939,0
2142,73892,0
2162,73940,0
2160,73918,0
2154,73944,0
2154,73926,0
2128,73940,0
2130,73943,0
2132,73878,0
2134,73943,0
2132,73895,0
2140,73947,0
2144,73907,0
2145,73873,0
2148,73926,0
2152,73918,0
2152,73923,0
2162,73928,0
2154,73871,0
2166,73953,0
2162,73917,0
2156,73947,0
2152,73918,0
2161,73892,0
2154,73936,0
2170,73889,0
2176,73858,0
2180,73930,0
2178,73899,0
2178,73924,0
2156,73904,0
2168,73886,0
2160,73938,0
2160,73903,0
2176,73895,0
2176,73923,0
2165,73904,0
2180,73955,0
2148,73912,0
2144,73905,0
2146,73906,0
2138,73898,0
2152,73920,0
2145,73881,0
2146,73951,0
2144,73901,0
2148,73943,0
2140,73903,0
2154,73898,0
2137,73922,0
2148,73920,0
2142,73917,0
2140,73915,0
2138,73913,0
2154,73940,0
2144,73918,0
2146,73869,0
2176,73943,0
2184,73922,0
2184,73921,0
2180,73920,0
2184,73912,0
2176,73937,0
2192,73921,0
2180,73876,0
2176,73966,0
2180,73933,0
2184,73939,0
2185,73913,0
2180,73906,0
2152,73933,0
2148,73917,0
2148,73934,0
2160,73966,0
2152,73924,0
2164,73944,0
2150,73920,0
2148,73878,0
2156,73982,0
2158,73934,0
2160,73942,0
2154,73947,0
2168,73925,0
2164,73975,0
2156,73937,0
2166,73865,0
2158,73978,0
2165,73934,0
2169,73944,0
2188,73951,0
2202,73925,0
2193,74000,0
2184,73923,0
2200,73928,0
2176,73932,0
2178,73936,0
2176,73965,0
2176,73917,0
2180,73901,0
2188,73970,0
2186,73947,0
2186,73980,0
2160,73953,0
2160,73948,0
2152,73943,0
2162,73903,0
2164,73997,0
2164,73948,0
2164,73960,0
2176,73954,0
2160,73945,0
2156,73982,0
2156,73943,0
2153,73928,0
2181,73981,0
2164,73957,0
2164,73987,0
2168,73964,0
2172,73902,0
2172,73997,0
2176,73955,0
2202,73969,0
2200,73953,0
2202,73931,0
2210,73983,0
2218,73945,0
2204,73937,0
2210,73992,0
2212,73937,0
2208,73997,0
2250,73956,0
2216,73924,0
2220,73997,0
2224,73964,0
2194,73946,0
2194,73964,0
2176,73948,0
2188,73932,0
2174,73958,0
2180,73972,0
2174,73962,0
2165,73934,0
2180,73975,0
2180,73931,0
2172,73931,0
2176,73990,0
2184,73964,0
2191,73985,0
2193,73949,0
2200,73919,0
2200,73997,0
2208,73971,0
2212,73961,0
2240,73968,0
2240,73939,0
2236,73993,0
2240,73957,0
2240,73909,0
2216,73986,0
2224,73954,0
2216,73988,0
2214,73947,0
2220,73934,0
2220,73992,0
2220,73961,0
2196,73974,0
2204,73990,0
2200,73933,0
2196,73955,0
2196,73971,0
2192,73952,0
2192,73982,0
2184,73966,0
2188,73936,0
2192,73990,0
2198,73943,0
2188,73936,0
2192,73971,0
2200,73960,0
2200,73986,0
2201,73941,0
2204,73907,0
2200,73990,0
2240,73954,0
2234,73976,0
2228,73943,0
2228,73912,0
2232,73999,0
2232,73950,0
2210,73985,0
2213,73946,0
2210,73925,0
2204,73999,0
2220,73952,0
2216,73968,0
2221,73950,0
2208,73945,0
2181,73974,0
2170,73956,0
2173,73936,0
2180,73960,0
2177,73936,0
2184,73972,0
2184,73952,0
2192,73894,0
2188,73983,0
2200,73951,0
2208,73975,0
2296,73958,0
2208,73906,0
2218,74006,0
2220,73936,0
2226,73964,0
2226,73934,0
2226,73941,0
2224,73969,0
2252,73941,0
2250,73927,0
2256,73961,0
2244,73931,0
2244,73958,0
2226,73939,0
2236,73901,0
2236,74003,0
2224,73919,0
2244,73981,0
2244,73943,0
2240,73934,0
2234,73967,0
2197,73923,0
2200,73928,0
2200,73940,0
2202,73950,0
2200,73920,0
2268,73942,0
2198,73959,0
2200,73944,0
2202,73908,0
2209,73947,0
2214,73919,0
2220,73955,0
2224,73927,0
2224,73868,0
2232,73988,0
2244,73940,0
2240,73948,0
2256,73924,0
2250,73893,0
2281,73972,0
2296,73935,0
2296,73936,0
2280,73933,0
2288,73923,0
2272,73961,0
2272,73913,0
2260,73901,0
2256,73938,0
2264,73924,0
2260,73956,0
2256,73911,0
2257,73880,0
2226,73915,0
2224,73889,0
2230,73951,0
2224,73936,0
2212,73942,0
2212,73934,0
2210,73933,0
2210,73949,0
2208,73907,0
2212,73871,0
2208,73971,0
2208,73925,0
2212,73946,0
2212,73915,0
2220,73892,0
2216,73971,0
2220,73904,0
2216,73921,0
2224,73926,0
2248,73918,0
2252,73946,0
2248,73905,0
2252,73894,0
2244,73944,0
2232,73909,0
2232,73937,0
2232,73945,0
2226,73894,0
2232,73954,0
2232,73920,0
2229,73869,0
2228,73950,0
2208,73913,0
2208,73941,0
2208,73933,0
2208,73921,0
2216,73948,0
2209,73939,0
2204,73943,0
2200,73925,0
2212,73875,0
2208,73952,0
2208,73935,0
2208,73945,0
2220,73916,0
2212,73873,0
2210,73962,0
2224,73907,0
2224,73945,0
2224,73924,0
2212,73927,0
2248,73945,0
2249,73934,0
2244,73896,0
2244,73948,0
2250,73927,0
2228,73958,0
2232,73918,0
2229,73875,0
2218,73964,0
2226,73936,0
2228,73940,0
2248,73920,0
2225,73895,0
2200,73927,0
2204,73947,0
2196,73902,0
2196,73942,0
2208,73928,0
2204,73933,0
2202,73885,0
2202,73987,0
2196,73919,0
2200,73955,0
2196,73931,0
2192,73875,0
2188,73990,0
2188,73932,0
2184,73950,0
2184,73933,0
2192,73919,0
2196,73966,0
2200,73931,0
2225,73910,0
2232,73959,0
2234,73928,0
2234,73966,0
2244,73912,0
2232,73887,0
2236,73971,0
2232,73940,0
2224,73962,0
2234,73937,0
2230,73903,0
2228,73981,0
2228,73931,0
2194,73953,0
2196,73921,0
2205,73944,0
2192,73961,0
2188,73969,0
2184,73940,0
2186,73922,0
2176,73947,0
2168,73931,0
2168,73886,0
2160,73964,0
2154,73933,0
2156,73938,0
2144,73933,0
2128,73894,0
2122,73953,0
2125,73919,0
2112,73920,0
2116,73930,0
2136,73914,0
2144,73955,0
2144,73924,0
2152,73869,0
2172,73976,0
2160,73944,0
2180,73942,0
2196,73930,0
2197,73907,0
2232,73952,0
2245,73913,0
2268,73922,0
2312,73963,0
2320,73940,0
2370,73932,0
2416,73913,0
2469,73919,0
2538,73933,0
2600,73918,0
2660,73903,0
2724,73936,0
2792,73920,0
2868,73954,0
2952,73927,0
3017,73875,0
3090,73989,0
3160,73923,0
3226,73942,0
3288,73911,0
3326,73906,0
3352,73962,0
3372,73925,0
3416,73919,0
3404,73931,0
3400,73952,0
3344,73945,0
3320,73943,0
3248,73883,0
3210,73979,0
3152,73948,0
3093,73959,0
3042,73940,0
2980,73915,0
2900,73983,0
2826,73932,0
2724,73950,0
2664,73966,0
2600,73924,0
2540,73940,0
2484,73949,0
2450,73968,0
2404,73949,0
2364,73929,0
2316,73999,0
2284,73956,0
2252,73968,0
2216,73960,0
2196,73961,0
2154,73983,0
2132,73953,0
2110,73959,0
2100,73974,0
2074,73962,0
2056,73996,0
2048,73970,0
2048,73929,0
2032,74018,0
2022,73988,0
2012,73994,0
1992,73977,0
1990,73962,0
1970,74004,0
1972,73962,0
1976,73970,0
1970,73974,0
1960,73975,0
1956,74001,0
1936,74001,0
1933,74015,0
1936,73963,0
1944,73985,0
1938,74020,0
1953,73992,0
1944,74024,0
1938,73989,0
1949,73990,0
1948,74035,0
1956,73985,0
1954,73970,0
1954,74019,0
1954,74011,0
1968,74030,0
1962,74004,0
1960,73966,0
1974,74061,0
1976,74019,0
2000,74023,0
2000,74007,0
2000,73990,0
1996,74041,0
2002,74000,0
1993,73966,0
2000,74060,0
2009,74034,0
2010,74028,0
2026,74011,0
2036,73970,0
2040,74040,0
2020,74021,0
2024,74021,0
2034,74037,0
2040,74018,0
2044,74019,0
2044,74047,0
2044,74018,0
2047,74009,0
2047,74056,0
2044,74027,0
2138,73975,0
2056,74078,0
2064,74018,0
2065,74036,0
2064,74023,0
2064,74011,0
2064,74051,0
2062,74018,0
2082,73984,0
2084,74058,0
2080,74015,0
2076,74032,0
2081,74016,0
2084,74001,0
2068,74047,0
2074,74022,0
2084,74001,0
2080,74030,0
2088,74008,0
2097,74045,0
2094,74021,0
2088,74003,0
2076,74021,0
2072,74005,0
2070,74045,0
2076,74042,0
2081,73994,0
2084,74048,0
2086,74001,0
2092,74006,0
2088,74056,0
2092,74037,0
2096,73981,0
2100,74069,0
2096,74007,0
2101,74059,0
2094,74019,0
2108,73996,0
2104,74059,0
2104,74016,0
2112,74010,0
2144,74047,0
2152,74023,0
2148,74040,0
2149,74007,0
2156,74002,0
2136,74065,0
2156,74012,0
2152,74043,0
2148,74015,0
2148,74014,0
2152,74044,0
2156,74023,0
2160,73988,0
2136,73988,0
2144,74047,0
2156,74021,0
2154,74033,0
2152,74024,0
2152,73997,0
2152,74058,0
2238,74021,0
2152,74013,0
2158,74034,0
2176,74022,0
2172,74046,0
2176,74029,0
2170,73976,0
2172,74068,0
2180,74014,0
2188,74035,0
2184,74015,0
2192,74014,0
2212,74041,0
2218,74022,0
2216,73986,0
2210,74064,0
2218,74015,0
2200,74036,0
2197,74010,0
2192,73998,0
2198,74044,0
2208,74011,0
2202,73993,0
2192,74030,0
2188,74010,0
2156,73993,0
2108,74011,0
2156,74026,0
2160,73993,0
2156,74044,0
2152,74033,0
2152,73998,0
2160,73999,0
2160,74044,0
2168,74006,0
2176,73979,0
2176,74029,0
2176,74009,0
2184,74023,0
2188,73993,0
2188,73966,0
2194,74041,0
2196,73992,0
2192,74010,0
2216,73977,0
2220,73968,0
2232,74014,0
2230,73979,0
2232,73938,0
2226,74001,0
2224,73971,0
2228,73989,0
2240,73961,0
2248,73910,0
2236,74014,0
2242,73950,0
2240,73955,0
2208,73920,0
2209,73948,0
2208,73936,0
2208,73898,0
2208,73945,0
2209,73940,0
2208,73927,0
2208,73948,0
2212,73939,0
2210,73945,0
2208,73928,0
2210,73880,0
2213,73953,0
2216,73911,0
2228,73926,0
2226,73891,0
2224,73901,0
2236,73923,0
2248,73883,0
2260,73839,0
2256,73934,0
2276,73878,0
2257,73904,0
2256,73866,0
2242,73845,0
2252,73897,0
2240,73865,0
2236,73833,0
2244,73883,0
2232,73844,0
2235,73872,0
2226,73859,0
2204,73860,0
2210,73843,0
2200,73834,0
2206,73808,0
2196,73809,0
2204,73804,0
2198,73827,0
2208,73810,0
2200,73791,0
2210,73825,0
2220,73776,0
2204,73749,0
2208,73812,0
2209,73772,0
2212,73792,0
2224,73784,0
2213,73712,0
2216,73803,0
2218,73752,0
2244,73773,0
2246,73760,0
2246,73763,0
2250,73789,0
2248,73749,0
2233,73684,0
2249,73776,0
2240,73740,0
2232,73753,0
2244,73726,0
2248,73723,0
2228,73750,0
2232,73728,0
2208,73758,0
2208,73727,0
2208,73674,0
2200,73702,0
2196,73706,0
2188,73658,0
2188,73762,0
2192,73707,0
2184,73724,0
2196,73697,0
2188,73699,0
2196,73714,0
2200,73685,0
2200,73677,0
2196,73696,0
2196,73693,0
2192,73710,0
2200,73675,0
2196,73609,0
2228,73720,0
2220,73675,0
2224,73717,0
2220,73665,0
2232,73656,0
2216,73715,0
2222,73667,0
2220,73671,0
2216,73678,0
2232,73677,0
2232,73698,0
2240,73663,0
2236,73626,0
2216,73685,0
2210,73640,0
2217,73652,0
2221,73664,0
2216,73698,0
2218,73667,0
2224,73669,0
2216,73652,0
2210,73620,0
2210,73687,0
2216,73652,0
2202,73691,0
2212,73662,0
2202,73650,0
2202,73677,0
2204,73646,0
2194,73614,0
2196,73695,0
2204,73655,0
2232,73678,0
2228,73663,0
2229,73627,0
2240,73699,0
2230,73655,0
2216,73629,0
2216,73689,0
2214,73654,0
2196,73674,0
2208,73659,0
2216,73617,0
2210,73692,0
2228,73641,0
2184,73682,0
2184,73641,0
2186,73656,0
2188,73653,0
2186,73675,0
2184,73655,0
2178,73647,0
2185,73690,0
2194,73654,0
2188,73623,0
2192,73676,0
2188,73649,0
2180,73678,0
2176,73650,0
2166,73611,0
2170,73686,0
2166,73659,0
2164,73675,0
2164,73633,0
2192,73650,0
2208,73678,0
2208,73646,0
2208,73625,0
2202,73669,0
2192,73657,0
2200,73675,0
2189,73646,0
2180,73610,0
2192,73684,0
2188,73652,0
2188,73659,0
2152,73680,0
2154,73652,0
2136,73671,0
2144,73635,0
2138,73642,0
2140,73681,0
2152,73634,0
2144,73609,0
2160,73697,0
2168,73648,0
2184,73670,0
2184,73635,0
2188,73636,0
2196,73702,0
2194,73644,0
2200,73670,0
2208,73663,0
2208,73674,0
2232,73680,0
2224,73672,0
2234,73597,0
2224,73718,0
2220,73662,0
2218,73689,0
2208,73660,0
2208,73650,0
2200,73713,0
2200,73665,0
2218,73677,0
2220,73653,0
2224,73647,0
2228,73682,0
2196,73650,0
2194,73666,0
2182,73677,0
2198,73663,0
2186,73660,0
2185,73633,0
2184,73684,0
2178,73650,0
2180,73692,0
2176,73651,0
2172,73636,0
2176,73710,0
2172,73662,0
2180,73694,0
2178,73658,0
2196,73635,0
2178,73710,0
2176,73675,0
2180,73659,0
2212,73674,0
2216,73650,0
2224,73713,0
2209,73666,0
2208,73616,0
2193,73710,0
2192,73669,0
2198,73679,0
2194,73672,0
2208,73631,0
2210,73727,0
2210,73680,0
2208,73681,0
2178,73650,0
2180,73674,0
2180,73660,0
2192,73691,0
2184,73613,0
2190,73675,0
2130,73699,0
2188,73667,0
2194,73635,0
2184,73718,0
2188,73682,0
2172,73676,0
2172,73686,0
2172,73668,0
2165,73708,0
2160,73660,0
2160,73630,0
2162,73706,0
2168,73673,0
2192,73680,0
2196,73667,0
2201,73658,0
2208,73707,0
2200,73664,0
2196,73657,0
2208,73681,0
2206,73666,0
2198,73696,0
2200,73656,0
2196,73622,0
2224,73695,0
2208,73682,0
2180,73655,0
2178,73694,0
2184,73684,0
2176,73670,0
2192,73656,0
2176,73646,0
2172,73648,0
2180,73694,0
2173,73666,0
2180,73654,0
2184,73672,0
2176,73660,0
2176,73691,0
2176,73663,0
2188,73607,0
2176,73707,0
2181,73653,0
2186,73688,0
2184,73663,0
2208,73639,0
2220,73685,0
2208,73669,0
2208,73645,0
2216,73652,0
2192,73667,0
2200,73679,0
2200,73658,0
2182,73595,0
2208,73684,0
2200,73659,0
2210,73694,0
2196,73655,0
2168,73665,0
2156,73666,0
2160,73632,0
2166,73621,0
2156,73626,0
2160,73645,0
2156,73603,0
2154,73690,0
2152,73654,0
2156,73680,0
2152,73642,0
2168,73635,0
2156,73669,0
2162,73649,0
2148,73621,0
2160,73667,0
2162,73644,0
2162,73673,0
2160,73646,0
2176,73603,0
2192,73704,0
2188,73646,0
2189,73661,0
2188,73656,0
2176,73651,0
2196,73678,0
2180,73651,0
2176,73617,0
2192,73673,0
2192,73681,0
2189,73675,0
2188,73638,0
2162,73654,0
2160,73688,0
2164,73638,0
2152,73651,0
2148,73650,0
2152,73673,0
2146,73659,0
2156,73622,0
2146,73708,0
2140,73658,0
2146,73672,0
2148,73635,0
2149,73631,0
2146,73676,0
2152,73644,0
2153,73621,0
2152,73682,0
2146,73655,0
2164,73685,0
2176,73644,0
2182,73629,0
2170,73677,0
2176,73660,0
2168,73641,0
2160,73674,0
2160,73650,0
2168,73680,0
2157,73645,0
2170,73611,0
2172,73700,0
2172,73640,0
2168,73688,0
2150,73654,0
2144,73669,0
2152,73653,0
2144,73667,0
2144,73674,0
2144,73614,0
2133,73705,0
2133,73648,0
2132,73680,0
2140,73658,0
2128,73666,0
2120,73695,0
2128,73652,0
2124,73649,0
2126,73687,0
2122,73640,0
2124,73669,0
2122,73648,0
2120,73613,0
2144,73689,0
2144,73668,0
2138,73656,0
