ECG,IR,PCG
2472,38589,0
2450,38589,0
2436,38598,0
2421,38590,0
2388,38580,0
2376,38624,0
2368,38596,0
2352,38576,0
2356,38597,0
2368,38572,0
2372,38600,0
2384,38609,0
2404,38585,0
2418,38574,0
2440,38605,0
2450,38624,0
2456,38584,0
2476,38575,0
2464,38609,0
2458,38603,0
2464,38586,0
2448,38605,0
2432,38585,0
2425,38582,0
2416,38632,0
2400,38603,0
2388,38594,0
2393,38587,0
2384,38616,0
2388,38606,0
2398,38577,0
2393,38621,0
2416,38592,0
2420,38622,0
2436,38629,0
2442,38592,0
2436,38604,0
2436,38595,0
2424,38617,0
2416,38618,0
2404,38621,0
2386,38603,0
2376,38585,0
2368,38643,0
2356,38605,0
2356,38610,0
2348,38625,0
2336,38601,0
2340,38622,0
2352,38624,0
2370,38608,0
2380,38600,0
2410,38620,0
2416,38643,0
2440,38608,0
2448,38591,0
2448,38621,0
2452,38617,0
2460,38602,0
2448,38641,0
2440,38609,0
2426,38608,0
2424,38651,0
2398,38626,0
2384,38631,0
2368,38614,0
2368,38619,0
2360,38624,0
2360,38603,0
2360,38613,0
2376,38617,0
2376,38659,0
2384,38633,0
2396,38620,0
2420,38618,0
2424,38636,0
2448,38635,0
2448,38612,0
2448,38646,0
2440,38625,0
2433,38620,0
2424,38656,0
2412,38626,0
2400,38619,0
2392,38627,0
2376,38652,0
2368,38629,0
2362,38615,0
2372,38637,0
2362,38608,0
2378,38625,0
2378,38648,0
2400,38627,0
2410,38617,0
2416,38648,0
2428,38634,0
2436,38611,0
2416,38615,0
2416,38610,0
2394,38612,0
2368,38641,0
2354,38630,0
2344,38605,0
2320,38637,0
2312,38633,0
2304,38624,0
2288,38638,0
2292,38615,0
2304,38614,0
2312,38655,0
2320,38633,0
2348,38611,0
2354,38613,0
2376,38648,0
2384,38627,0
2400,38609,0
2410,38638,0
2416,38602,0
2417,38628,0
2408,38655,0
2400,38623,0
2389,38620,0
2380,38633,0
2356,38642,0
2354,38625,0
2336,38623,0
2336,38632,0
2330,38623,0
2328,38629,0
2336,38622,0
2344,38638,0
2368,38613,0
2376,38625,0
2380,38636,0
2405,38628,0
2408,38634,0
2322,38600,0
2424,38617,0
2416,38658,0
2408,38619,0
2392,38610,0
2392,38632,0
2370,38629,0
2368,38627,0
2344,38640,0
2336,38612,0
2336,38619,0
2332,38646,0
2336,38646,0
2340,38618,0
2352,38604,0
2369,38646,0
2370,38630,0
2386,38619,0
2401,38635,0
2405,38610,0
2409,38642,0
2416,38648,0
2408,38626,0
2404,38624,0
2388,38610,0
2372,38642,0
2340,38620,0
2336,38617,0
2320,38623,0
2312,38615,0
2296,38633,0
2288,38647,0
2296,38613,0
2308,38581,0
2320,38649,0
2340,38633,0
2352,38610,0
2368,38649,0
2400,38613,0
2408,38631,0
2408,38653,0
2424,38627,0
2432,38630,0
2416,38617,0
2412,38658,0
2401,38615,0
2394,38603,0
2378,38635,0
2376,38619,0
2354,38633,0
2348,38640,0
2345,38639,0
2352,38619,0
2364,38629,0
2358,38661,0
2366,38627,0
2388,38634,0
2396,38620,0
2404,38637,0
2409,38628,0
2396,38625,0
2392,38617,0
2384,38639,0
2368,38631,0
2360,38615,0
2344,38645,0
2336,38616,0
2314,38637,0
2296,38657,0
2296,38641,0
2292,38628,0
2300,38604,0
2314,38657,0
2320,38638,0
2344,38611,0
2354,38640,0
2368,38605,0
2392,38637,0
2404,38639,0
2404,38617,0
2412,38617,0
2416,38649,0
2416,38647,0
2408,38624,0
2400,38620,0
2384,38634,0
2364,38638,0
2344,38638,0
2336,38633,0
2320,38624,0
2320,38628,0
2328,38648,0
2340,38627,0
2336,38629,0
2352,38637,0
2368,38635,0
2380,38648,0
2386,38616,0
2400,38656,0
2400,38621,0
2408,38621,0
2392,38661,0
2386,38626,0
2376,38628,0
2376,38642,0
2368,38637,0
2346,38638,0
2336,38653,0
2328,38654,0
2328,38627,0
2320,38634,0
2321,38662,0
2330,38622,0
2345,38606,0
2352,38654,0
2368,38648,0
2384,38633,0
2400,38651,0
2389,38614,0
2392,38649,0
2384,38653,0
2372,38661,0
2352,38653,0
2328,38647,0
2312,38634,0
2288,38671,0
2272,38624,0
2252,38625,0
2244,38648,0
2240,38649,0
2240,38633,0
2248,38634,0
2264,38661,0
2272,38634,0
2288,38628,0
2314,38669,0
2338,38634,0
2344,38625,0
2360,38665,0
2368,38640,0
2376,38637,0
2384,38667,0
2372,38636,0
2372,38646,0
2348,38643,0
2340,38672,0
2324,38629,0
2314,38620,0
2304,38675,0
2302,38656,0
2300,38639,0
2304,38649,0
2306,38651,0
2324,38662,0
2338,38647,0
2352,38634,0
2360,38664,0
2372,38649,0
2380,38651,0
2384,38667,0
2372,38635,0
2368,38636,0
2368,38680,0
2344,38668,0
2336,38643,0
2320,38630,0
2304,38667,0
2296,38656,0
2296,38646,0
2292,38670,0
2288,38630,0
2289,38654,0
2304,38684,0
2313,38654,0
2326,38637,0
2330,38645,0
2348,38675,0
2356,38656,0
2368,38629,0
2368,38666,0
2356,38641,0
2352,38666,0
2338,38674,0
2338,38635,0
2304,38652,0
2304,38666,0
2282,38667,0
2265,38674,0
2252,38660,0
2260,38659,0
2249,38655,0
2260,38651,0
2276,38683,0
2292,38647,0
2320,38640,0
2344,38681,0
2368,38650,0
2400,38657,0
2424,38669,0
2464,38660,0
2472,38666,0
2516,38645,0
2532,38681,0
2564,38647,0
2596,38650,0
2624,38687,0
2658,38653,0
2692,38649,0
2728,38668,0
2776,38662,0
2824,38664,0
2856,38672,0
2920,38669,0
2960,38642,0
3004,38660,0
3040,38679,0
3064,38668,0
3088,38659,0
3080,38674,0
3040,38658,0
2992,38667,0
2948,38654,0
2880,38632,0
2820,38689,0
2744,38665,0
2668,38659,0
2608,38675,0
2532,38648,0
2468,38673,0
2412,38688,0
2352,38682,0
2312,38667,0
2264,38647,0
2232,38708,0
2208,38660,0
2196,38650,0
2180,38677,0
2168,38665,0
2160,38673,0
2152,38690,0
2144,38669,0
2129,38656,0
2116,38668,0
2097,38703,0
2085,38664,0
2064,38647,0
2050,38683,0
2042,38697,0
2034,38684,0
2032,38690,0
2048,38686,0
2056,38663,0
2080,38694,0
2096,38671,0
2104,38669,0
2128,38690,0
2144,38666,0
2152,38656,0
2164,38686,0
2168,38662,0
2176,38662,0
2168,38702,0
2176,38681,0
2152,38675,0
2160,38682,0
2148,38688,0
2144,38681,0
2144,38655,0
2148,38693,0
2144,38659,0
2160,38668,0
2180,38711,0
2196,38671,0
2208,38677,0
2224,38690,0
2240,38693,0
2256,38679,0
2276,38657,0
2280,38696,0
2276,38663,0
2272,38683,0
2258,38684,0
2244,38667,0
2218,38673,0
2208,38699,0
2192,38687,0
2184,38678,0
2172,38683,0
2164,38687,0
2168,38667,0
2184,38676,0
2184,38698,0
2200,38663,0
2228,38663,0
2242,38706,0
2264,38686,0
2288,38679,0
2292,38696,0
2304,38680,0
2308,38688,0
2306,38666,0
2304,38697,0
2290,38663,0
2288,38652,0
2280,38707,0
2260,38675,0
2257,38674,0
2232,38680,0
2234,38677,0
2244,38692,0
2236,38700,0
2244,38701,0
2248,38661,0
2272,38677,0
2288,38697,0
2292,38679,0
2312,38701,0
2320,38688,0
2308,38694,0
2316,38680,0
2312,38706,0
2304,38673,0
2288,38655,0
2276,38713,0
2264,38670,0
2260,38675,0
2244,38690,0
2240,38689,0
2232,38696,0
2224,38680,0
2232,38693,0
2248,38680,0
2260,38677,0
2280,38711,0
2288,38677,0
2304,38680,0
2328,38697,0
2328,38684,0
2338,38697,0
2336,38702,0
2337,38680,0
2336,38674,0
2314,38690,0
2312,38690,0
2296,38697,0
2288,38687,0
2265,38699,0
2392,38693,0
2252,38699,0
2256,38702,0
2264,38694,0
2264,38684,0
2276,38721,0
2284,38674,0
2308,38666,0
2322,38701,0
2336,38696,0
2344,38687,0
2344,38709,0
2344,38676,0
2340,38697,0
2328,38719,0
2320,38691,0
2306,38685,0
2296,38693,0
2280,38720,0
2265,38686,0
2256,38671,0
2256,38699,0
2244,38671,0
2256,38705,0
2264,38709,0
2264,38673,0
2272,38685,0
2280,38708,0
2300,38718,0
2308,38715,0
2314,38684,0
2312,38706,0
2296,38696,0
2292,38720,0
2272,38677,0
2256,38675,0
2241,38688,0
2228,38699,0
2224,38694,0
2200,38714,0
2200,38683,0
2196,38675,0
2200,38708,0
2201,38714,0
2216,38691,0
2241,38657,0
2248,38711,0
2272,38700,0
2292,38680,0
2308,38705,0
2324,38673,0
2320,38690,0
2328,38706,0
2320,38688,0
2320,38673,0
2312,38680,0
2312,38725,0
2296,38694,0
2276,38655,0
2256,38707,0
2250,38695,0
2256,38702,0
2260,38695,0
2274,38704,0
2284,38680,0
2296,38690,0
2304,38691,0
2320,38710,0
2336,38671,0
2340,38662,0
2344,38719,0
2344,38688,0
2346,38682,0
2328,38707,0
2321,38674,0
2308,38698,0
2296,38715,0
2288,38688,0
2272,38682,0
2264,38679,0
2260,38715,0
2264,38675,0
2272,38671,0
2272,38699,0
2280,38675,0
2292,38696,0
2305,38710,0
2320,38679,0
2336,38675,0
2340,38710,0
2340,38703,0
2330,38707,0
2320,38668,0
2296,38677,0
2274,38714,0
2256,38672,0
2244,38697,0
2224,38667,0
2204,38682,0
2192,38701,0
2192,38700,0
2192,38669,0
2208,38646,0
2208,38705,0
2224,38684,0
2252,38672,0
2256,38690,0
2290,38667,0
2312,38682,0
2320,38681,0
2316,38688,0
2320,38664,0
2316,38643,0
2320,38698,0
2304,38664,0
2288,38654,0
2280,38681,0
2264,38657,0
2248,38675,0
2232,38679,0
2230,38671,0
2245,38647,0
2252,38653,0
2250,38668,0
2268,38660,0
2284,38646,0
2308,38664,0
2288,38679,0
2304,38652,0
2308,38666,0
2304,38635,0
2292,38649,0
2282,38683,0
2260,38650,0
2264,38643,0
2248,38636,0
2248,38666,0
2224,38650,0
2228,38622,0
2208,38661,0
2210,38625,0
2216,38650,0
2232,38667,0
2248,38632,0
2264,38632,0
2280,38650,0
2304,38663,0
2320,38633,0
2336,38614,0
2352,38643,0
2344,38628,0
2344,38626,0
2340,38645,0
2330,38608,0
2321,38619,0
2296,38630,0
2276,38620,0
2252,38629,0
2232,38634,0
2212,38629,0
2208,38654,0
2208,38622,0
2208,38608,0
2220,38624,0
2240,38604,0
2248,38617,0
2260,38631,0
2288,38605,0
2296,38605,0
2292,38623,0
2296,38645,0
2288,38607,0
2292,38594,0
2192,38609,0
2256,38605,0
2248,38606,0
2226,38618,0
2218,38589,0
2202,38587,0
2192,38628,0
2192,38614,0
2196,38593,0
2202,38580,0
2202,38613,0
2224,38615,0
2242,38586,0
2246,38613,0
2256,38591,0
2266,38594,0
2256,38618,0
2260,38620,0
2242,38585,0
2232,38608,0
2216,38598,0
2200,38580,0
2192,38615,0
2176,38577,0
2154,38580,0
2160,38632,0
2176,38587,0
2148,38577,0
2156,38599,0
2164,38574,0
2176,38602,0
2192,38609,0
2208,38603,0
2224,38572,0
2240,38576,0
2256,38610,0
2264,38573,0
2276,38570,0
2278,38596,0
2272,38598,0
2266,38587,0
2252,38603,0
2240,38571,0
2228,38568,0
2216,38623,0
2204,38587,0
2208,38570,0
2208,38584,0
2208,38607,0
2222,38586,0
2224,38610,0
2236,38594,0
2256,38565,0
2266,38559,0
2280,38603,0
2288,38573,0
2296,38566,0
2288,38582,0
2280,38584,0
2280,38574,0
2272,38557,0
2260,38584,0
2248,38558,0
2242,38574,0
2224,38591,0
2212,38557,0
2224,38564,0
2216,38583,0
2218,38585,0
2225,38581,0
2248,38571,0
2249,38587,0
2272,38569,0
2284,38560,0
2296,38583,0
2312,38565,0
2314,38557,0
2314,38596,0
2304,38565,0
2280,38558,0
2266,38551,0
2248,38566,0
2224,38585,0
2210,38572,0
2192,38578,0
2180,38546,0
2176,38543,0
2308,38586,0
2184,38554,0
2196,38547,0
2208,38572,0
2228,38565,0
2232,38579,0
2252,38574,0
2272,38573,0
2284,38545,0
2289,38554,0
2292,38579,0
2290,38562,0
2304,38530,0
2274,38575,0
2280,38574,0
2264,38560,0
2252,38580,0
2230,38556,0
2232,38555,0
2216,38590,0
2228,38551,0
2240,38558,0
2236,38547,0
2252,38583,0
2261,38553,0
2264,38563,0
2272,38580,0
2281,38556,0
2288,38564,0
2280,38588,0
2268,38546,0
2265,38550,0
2256,38566,0
2240,38579,0
2228,38549,0
2216,38533,0
2212,38558,0
2208,38553,0
2200,38542,0
2200,38571,0
2204,38543,0
2212,38541,0
2220,38579,0
2248,38556,0
2272,38555,0
2272,38550,0
2296,38566,0
2304,38561,0
2312,38533,0
2320,38570,0
2328,38535,0
2312,38540,0
2324,38579,0
2304,38544,0
2292,38538,0
2288,38539,0
2268,38568,0
2258,38559,0
2256,38543,0
2248,38563,0
2244,38532,0
2252,38558,0
2256,38569,0
2280,38545,0
2288,38543,0
2298,38544,0
2312,38583,0
2324,38536,0
2328,38520,0
2336,38571,0
2336,38541,0
2329,38570,0
2322,38573,0
2308,38547,0
2296,38532,0
2280,38566,0
2276,38580,0
2257,38544,0
2260,38522,0
2244,38567,0
2248,38558,0
2249,38540,0
2252,38567,0
2272,38542,0
2273,38541,0
2294,38591,0
2304,38570,0
2312,38546,0
2304,38540,0
2312,38582,0
2288,38568,0
2272,38546,0
2256,38545,0
2228,38550,0
2216,38569,0
2200,38549,0
2178,38538,0
2184,38576,0
2192,38545,0
2184,38557,0
2208,38564,0
2208,38533,0
2228,38536,0
2248,38560,0
2264,38577,0
2280,38551,0
2296,38524,0
2304,38552,0
2324,38558,0
2316,38544,0
2320,38570,0
2308,38551,0
2304,38546,0
2290,38576,0
2274,38586,0
2260,38558,0
2256,38529,0
2246,38566,0
2250,38570,0
2240,38552,0
2248,38536,0
2272,38551,0
2272,38570,0
2284,38586,0
2304,38539,0
2312,38532,0
2322,38568,0
2324,38561,0
2328,38547,0
2324,38567,0
2320,38544,0
2304,38541,0
2296,38592,0
2280,38555,0
2256,38552,0
2248,38565,0
2240,38585,0
2236,38564,0
2240,38544,0
2240,38573,0
2240,38527,0
2250,38543,0
2272,38582,0
2272,38547,0
2292,38555,0
2304,38569,0
2314,38562,0
2320,38562,0
2320,38569,0
2315,38573,0
2300,38533,0
2280,38574,0
2252,38560,0
2242,38550,0
2212,38558,0
2200,38574,0
2184,38561,0
2176,38543,0
2169,38545,0
2176,38568,0
2176,38555,0
2208,38538,0
2212,38564,0
2224,38538,0
2252,38540,0
2260,38588,0
2276,38551,0
2292,38546,0
2296,38560,0
2296,38558,0
2296,38555,0
2288,38540,0
2276,38561,0
2272,38535,0
2248,38547,0
2240,38566,0
2224,38535,0
2220,38539,0
2228,38554,0
2240,38567,0
2240,38547,0
2232,38544,0
2256,38537,0
2264,38544,0
2280,38557,0
2292,38528,0
2284,38545,0
2296,38529,0
2284,38567,0
2280,38558,0
2258,38541,0
2256,38563,0
2232,38541,0
2220,38561,0
2208,38552,0
2208,38563,0
2200,38538,0
2192,38512,0
2186,38571,0
2200,38544,0
2216,38540,0
2216,38565,0
2248,38540,0
2249,38547,0
2277,38555,0
2289,38569,0
2304,38542,0
2312,38522,0
2312,38587,0
2312,38541,0
2312,38541,0
2296,38547,0
2290,38552,0
2280,38551,0
2272,38541,0
2242,38539,0
2240,38544,0
2236,38576,0
2228,38570,0
2228,38534,0
2240,38528,0
2248,38561,0
2272,38550,0
2272,38545,0
2292,38545,0
2308,38552,0
2312,38537,0
2312,38527,0
2320,38560,0
2316,38541,0
2304,38518,0
2292,38574,0
2280,38550,0
2272,38540,0
2260,38546,0
2252,38556,0
2232,38550,0
2232,38526,0
2228,38559,0
2232,38525,0
2252,38532,0
2256,38570,0
2264,38531,0
2272,38539,0
2288,38555,0
2296,38561,0
2302,38547,0
2298,38550,0
2292,38523,0
2284,38532,0
2256,38554,0
2244,38540,0
2224,38535,0
2208,38549,0
2188,38535,0
2176,38544,0
2176,38541,0
2168,38561,0
2162,38523,0
2176,38526,0
2090,38568,0
2200,38529,0
2224,38534,0
2244,38548,0
2256,38530,0
2272,38547,0
2292,38553,0
2296,38552,0
2296,38527,0
2288,38538,0
2284,38559,0
2282,38527,0
2264,38518,0
2244,38545,0
2240,38554,0
2240,38539,0
2224,38563,0
2210,38538,0
2216,38532,0
2218,38549,0
2228,38541,0
2240,38529,0
2248,38531,0
2266,38575,0
2272,38541,0
2284,38518,0
2296,38549,0
2292,38528,0
2304,38555,0
2288,38562,0
2276,38540,0
2260,38527,0
2256,38517,0
2244,38582,0
2224,38537,0
2228,38521,0
2208,38545,0
2208,38537,0
2208,38544,0
2212,38553,0
2228,38541,0
2240,38529,0
2248,38547,0
2264,38560,0
2280,38539,0
2296,38528,0
2300,38549,0
2306,38550,0
2316,38535,0
2300,38561,0
2288,38531,0
2264,38555,0
2256,38551,0
2229,38530,0
2202,38542,0
2185,38554,0
2176,38573,0
2164,38546,0
2160,38534,0
2164,38553,0
2178,38521,0
2188,38537,0
2200,38552,0
2216,38542,0
2240,38539,0
2248,38568,0
2256,38551,0
2272,38543,0
2272,38552,0
2280,38549,0
2276,38545,0
2264,38533,0
2256,38561,0
2248,38537,0
2240,38513,0
2232,38572,0
2240,38542,0
2218,38541,0
2232,38559,0
2228,38539,0
2248,38556,0
2252,38560,0
2264,38536,0
2274,38543,0
2288,38544,0
2300,38546,0
2300,38544,0
2296,38538,0
2296,38555,0
2272,38556,0
2260,38551,0
2244,38568,0
2232,38554,0
2217,38527,0
2200,38536,0
2192,38571,0
2188,38538,0
2180,38526,0
2184,38560,0
2192,38566,0
2200,38544,0
2216,38553,0
2232,38541,0
2256,38555,0
2266,38591,0
2288,38550,0
2292,38546,0
2296,38558,0
2304,38581,0
2304,38559,0
2280,38537,0
2268,38577,0
2266,38545,0
2242,38555,0
2224,38557,0
2216,38547,0
2212,38550,0
2224,38556,0
2226,38559,0
2233,38568,0
2240,38543,0
2260,38528,0
2264,38586,0
2288,38555,0
2296,38539,0
2304,38569,0
2308,38537,0
2304,38561,0
2296,38579,0
2288,38565,0
2281,38556,0
2272,38530,0
2248,38594,0
2256,38565,0
2224,38549,0
2218,38571,0
2216,38555,0
2216,38560,0
2224,38574,0
2232,38557,0
2248,38547,0
2248,38563,0
2268,38588,0
2284,38552,0
2294,38531,0
2296,38555,0
2276,38576,0
2276,38577,0
2256,38546,0
2242,38565,0
2220,38544,0
2196,38561,0
2192,38578,0
2164,38547,0
2156,38541,0
2148,38579,0
2148,38560,0
2160,38559,0
2164,38591,0
2178,38550,0
2208,38570,0
2218,38581,0
2240,38576,0
2260,38559,0
2260,38543,0
2272,38602,0
2272,38559,0
2272,38545,0
2264,38574,0
2256,38548,0
2242,38580,0
2233,38582,0
2218,38566,0
2208,38551,0
2201,38576,0
2212,38607,0
2204,38569,0
2216,38557,0
2216,38566,0
2232,38585,0
2244,38570,0
2248,38576,0
2262,38558,0
2276,38540,0
2284,38617,0
2288,38565,0
2288,38560,0
2282,38576,0
2280,38567,0
2260,38578,0
2248,38584,0
2248,38578,0
2226,38553,0
2224,38562,0
2208,38614,0
2200,38556,0
2204,38548,0
2210,38586,0
2220,38581,0
2228,38570,0
2248,38583,0
2274,38560,0
2280,38565,0
2288,38603,0
2306,38588,0
2320,38562,0
2313,38558,0
2309,38588,0
2296,38581,0
2274,38581,0
2248,38579,0
2225,38566,0
2196,38586,0
2176,38570,0
2160,38566,0
2132,38577,0
2148,38575,0
2144,38577,0
2136,38557,0
2144,38592,0
2156,38566,0
2176,38566,0
2188,38606,0
2196,38574,0
2216,38562,0
2220,38586,0
2232,38580,0
2240,38580,0
2240,38566,0
2256,38583,0
2256,38564,0
2256,38580,0
2268,38597,0
2288,38564,0
2312,38576,0
2344,38591,0
2386,38597,0
2432,38568,0
2480,38560,0
2536,38593,0
2596,38565,0
2656,38610,0
2714,38596,0
2768,38560,0
2816,38574,0
2872,38572,0
2912,38575,0
2944,38581,0
2948,38594,0
2960,38577,0
2948,38593,0
2936,38570,0
2912,38602,0
2864,38569,0
2816,38554,0
2768,38596,0
2728,38572,0
2680,38572,0
2648,38583,0
2592,38556,0
2674,38583,0
2520,38583,0
2473,38601,0
2424,38561,0
2384,38581,0
2324,38599,0
2276,38557,0
2224,38567,0
2176,38581,0
2132,38577,0
2092,38583,0
2056,38585,0
2024,38590,0
1992,38553,0
1964,38602,0
1952,38583,0
1948,38569,0
1940,38578,0
1956,38569,0
1952,38590,0
1964,38565,0
1988,38589,0
2000,38559,0
2012,38562,0
2032,38596,0
2024,38576,0
2028,38568,0
2032,38576,0
2032,38586,0
2020,38572,0
2024,38571,0
2008,38583,0
2004,38569,0
2001,38558,0
2000,38592,0
2009,38554,0
2016,38550,0
2032,38596,0
2050,38586,0
2066,38569,0
2100,38578,0
2105,38565,0
2136,38575,0
2154,38554,0
2156,38594,0
2172,38583,0
2224,38576,0
2240,38549,0
2256,38542,0
2272,38588,0
2288,38557,0
2304,38560,0
2320,38570,0
2328,38588,0
2340,38567,0
2328,38541,0
2336,38583,0
2326,38553,0
2329,38544,0
2290,38585,0
2280,38550,0
2272,38559,0
2264,38563,0
2258,38559,0
2256,38562,0
2256,38554,0
2266,38574,0
2280,38550,0
2284,38559,0
2308,38585,0
2320,38563,0
2340,38552,0
2346,38579,0
2360,38569,0
2364,38552,0
2372,38555,0
2360,38569,0
2348,38553,0
2336,38567,0
2312,38567,0
2300,38567,0
2268,38567,0
2266,38567,0
2240,38567,0
2228,38567,0
2232,38575,0
2234,38575,0
2248,38575,0
2260,38575,0
2272,38575,0
2288,38575,0
2308,38575,0
2320,38545,0
2328,38545,0
2328,38545,0
2328,38545,0
2329,38545,0
2320,38545,0
2304,38545,0
2305,38547,0
2304,38553,0
2280,38553,0
2272,38553,0
2265,38553,0
2282,38553,0
2276,38553,0
2280,38558,0
2304,38583,0
2312,38583,0
2341,38543,0
2352,38556,0
2356,38584,0
2364,38545,0
2356,38549,0
2344,38569,0
2336,38566,0
2320,38550,0
2304,38558,0
2292,38563,0
2288,38551,0
2264,38540,0
2260,38571,0
2260,38547,0
2266,38518,0
2268,38580,0
2280,38549,0
2304,38555,0
2324,38565,0
2340,38539,0
2356,38569,0
2376,38547,0
2400,38569,0
2404,38546,0
2408,38522,0
2400,38577,0
2400,38542,0
2336,38544,0
2316,38528,0
2308,38569,0
2314,38572,0
2320,38574,0
2324,38540,0
2348,38546,0
2356,38568,0
2368,38570,0
2384,38536,0
2388,38533,0
2400,38566,0
2400,38563,0
2400,38548,0
2384,38560,0
2378,38532,0
2356,38546,0
2346,38578,0
2336,38554,0
2320,38539,0
2320,38520,0
2312,38575,0
2306,38554,0
2316,38539,0
2328,38560,0
2336,38531,0
2344,38550,0
2368,38567,0
2376,38555,0
2390,38535,0
2400,38517,0
2412,38579,0
2408,38545,0
2400,38542,0
2372,38521,0
2353,38533,0
2338,38544,0
2320,38534,0
2304,38535,0
2290,38540,0
2284,38559,0
2272,38539,0
2264,38515,0
2288,38551,0
2288,38519,0
2312,38548,0
2320,38546,0
2344,38519,0
2368,38522,0
2378,38539,0
2386,38547,0
2392,38520,0
2400,38508,0
2400,38538,0
2392,38523,0
2384,38521,0
2368,38537,0
2356,38519,0
2344,38507,0
2337,38549,0
2328,38525,0
2328,38515,0
2332,38503,0
2336,38535,0
2356,38538,0
2360,38491,0
2380,38520,0
2392,38496,0
2394,38520,0
2408,38512,0
2408,38511,0
2408,38511,0
2408,38499,0
2404,38515,0
2384,38497,0
2376,38524,0
2378,38504,0
2352,38474,0
2336,38533,0
2336,38500,0
2330,38492,0
2328,38504,0
2328,38488,0
2340,38502,0
2360,38491,0
2372,38509,0
2392,38472,0
2408,38475,0
2424,38520,0
2436,38478,0
2448,38476,0
2456,38494,0
2452,38484,0
2448,38491,0
2436,38499,0
2414,38492,0
2402,38481,0
2376,38496,0
2354,38476,0
2336,38474,0
2320,38474,0
2312,38466,0
2304,38486,0
2312,38491,0
2312,38485,0
2313,38454,0
2344,38459,0
2348,38499,0
2360,38462,0
2384,38457,0
2400,38476,0
2400,38473,0
2400,38469,0
2392,38469,0
2368,38475,0
2372,38455,0
2368,38452,0
2352,38471,0
2336,38440,0
2322,38436,0
2320,38474,0
2325,38463,0
2328,38452,0
2320,38464,0
2328,38444,0
2346,38448,0
2352,38450,0
2364,38479,0
2372,38439,0
2372,38444,0
2372,38472,0
2370,38446,0
2368,38460,0
2344,38460,0
2336,38431,0
2312,38461,0
2296,38467,0
2284,38429,0
2272,38435,0
2260,38448,0
2256,38470,0
2264,38429,0
2264,38405,0
2272,38445,0
2280,38433,0
2304,38449,0
2312,38457,0
2332,38427,0
2352,38431,0
2368,38448,0
2392,38462,0
2400,38437,0
2404,38407,0
2388,38443,0
2384,38445,0
2376,38433,0
2368,38440,0
2352,38436,0
2338,38437,0
2332,38427,0
2328,38431,0
2328,38422,0
2330,38426,0
2342,38429,0
2344,38438,0
2352,38431,0
2384,38442,0
2376,38421,0
2404,38442,0
2404,38419,0
2408,38439,0
2416,38418,0
2416,38400,0
2400,38459,0
2388,38418,0
2384,38422,0
2368,38428,0
2346,38423,0
2340,38426,0
2328,38427,0
2320,38438,0
2324,38404,0
2322,38409,0
2336,38445,0
2340,38406,0
2360,38404,0
2360,38424,0
2376,38428,0
2392,38407,0
2416,38415,0
2412,38434,0
2406,38409,0
2400,38412,0
2384,38414,0
2370,38433,0
2352,38422,0
2328,38433,0
2304,38443,0
2304,38410,0
2268,38381,0
2264,38415,0
2272,38420,0
2264,38403,0
2284,38436,0
2292,38399,0
2308,38405,0
2328,38435,0
2368,38436,0
2360,38409,0
2388,38393,0
2388,38441,0
2394,38412,0
2400,38409,0
2400,38419,0
2388,38403,0
2376,38411,0
2369,38416,0
2352,38428,0
2336,38395,0
2330,38374,0
2312,38440,0
2320,38407,0
2326,38400,0
2336,38415,0
2336,38414,0
2344,38413,0
2360,38388,0
2368,38392,0
2376,38386,0
2384,38390,0
2392,38433,0
2376,38395,0
2384,38386,0
2356,38406,0
2344,38409,0
2338,38406,0
2322,38413,0
2308,38395,0
2296,38387,0
2290,38412,0
2289,38422,0
2292,38395,0
2304,38380,0
2300,38404,0
2328,38395,0
2344,38384,0
2360,38397,0
2372,38374,0
2386,38400,0
2400,38410,0
2416,38403,0
2416,38383,0
2408,38361,0
2404,38422,0
2400,38386,0
2376,38389,0
2368,38382,0
2340,38403,0
2344,38402,0
2328,38383,0
2336,38387,0
2252,38399,0
2352,38391,0
2360,38371,0
2384,38409,0
2392,38377,0
2400,38361,0
2416,38408,0
2424,38383,0
2426,38390,0
2432,38385,0
2420,38389,0
2408,38395,0
2392,38368,0
2376,38405,0
2360,38375,0
2352,38389,0
2336,38407,0
2328,38373,0
2320,38373,0
2328,38383,0
2336,38390,0
2336,38380,0
2352,38371,0
2364,38403,0
2376,38367,0
2384,38379,0
2392,38389,0
2394,38374,0
2384,38385,0
2376,38386,0
2368,38394,0
2352,38393,0
2336,38370,0
2320,38365,0
2304,38408,0
2296,38388,0
2288,38374,0
2288,38356,0
2272,38386,0
2272,38380,0
2288,38370,0
2300,38389,0
2312,38377,0
2337,38368,0
2356,38409,0
2368,38391,0
2384,38372,0
2400,38350,0
2400,38391,0
2402,38381,0
2408,38366,0
2388,38390,0
2380,38364,0
2360,38390,0
2352,38400,0
2336,38389,0
2324,38375,0
2309,38358,0
2328,38383,0
2312,38409,0
2312,38379,0
2328,38381,0
2336,38390,0
2356,38407,0
2368,38399,0
2384,38364,0
2400,38357,0
2402,38399,0
2408,38392,0
2408,38362,0
2388,38392,0
2384,38367,0
2372,38383,0
2364,38403,0
2348,38400,0
2336,38372,0
2336,38346,0
2320,38413,0
2320,38390,0
2320,38359,0
2328,38396,0
2336,38361,0
2352,38395,0
2368,38402,0
2378,38374,0
2392,38379,0
2400,38371,0
2416,38412,0
2412,38376,0
2397,38361,0
2400,38366,0
2376,38387,0
2352,38385,0
2336,38352,0
2312,38384,0
2282,38381,0
2272,38406,0
2260,38390,0
2258,38354,0
2256,38396,0
2272,38371,0
2282,38397,0
2296,38400,0
2304,38381,0
2324,38362,0
2352,38384,0
2368,38410,0
2388,38369,0
2380,38360,0
2392,38377,0
2384,38380,0
2376,38383,0
2377,38390,0
2356,38367,0
2348,38368,0
2340,38391,0
2328,38396,0
2320,38369,0
2320,38351,0
2330,38381,0
2328,38377,0
2325,38362,0
2344,38372,0
2352,38384,0
2360,38399,0
2368,38378,0
2368,38395,0
2370,38351,0
2364,38378,0
2352,38377,0
2344,38387,0
2328,38392,0
2314,38361,0
2312,38366,0
2296,38408,0
2288,38378,0
2284,38370,0
2280,38336,0
2280,38390,0
2288,38382,0
2296,38358,0
2312,38385,0
2328,38354,0
2352,38371,0
2372,38399,0
2380,38359,0
2400,38362,0
2416,38369,0
2416,38408,0
2416,38377,0
2408,38340,0
2408,38383,0
2396,38361,0
2374,38392,0
2360,38385,0
2336,38370,0
2320,38361,0
2308,38385,0
2304,38390,0
2304,38372,0
2306,38381,0
2308,38373,0
2320,38374,0
2340,38361,0
2344,38395,0
2368,38366,0
2372,38352,0
2372,38406,0
2392,38370,0
2384,38369,0
2376,38381,0
2368,38395,0
2356,38391,0
2340,38349,0
2336,38388,0
2320,38359,0
2316,38360,0
2312,38397,0
2306,38362,0
2320,38366,0
2324,38380,0
2328,38389,0
2344,38377,0
2352,38365,0
2374,38386,0
2381,38358,0
2388,38385,0
2400,38377,0
2377,38392,0
2384,38363,0
2360,38376,0
2340,38383,0
2328,38396,0
2304,38366,0
2288,38357,0
2280,38391,0
2272,38404,0
2272,38366,0
2264,38356,0
2264,38395,0
2280,38386,0
2292,38374,0
2320,38395,0
2324,38356,0
2340,38374,0
2356,38392,0
2376,38394,0
2385,38365,0
2388,38343,0
2384,38396,0
2378,38382,0
2368,38365,0
2360,38394,0
2356,38358,0
2328,38380,0
2328,38387,0
2308,38389,0
2305,38383,0
2308,38376,0
2304,38395,0
2324,38389,0
2332,38363,0
2336,38392,0
2352,38374,0
2360,38378,0
2384,38386,0
2384,38377,0
2388,38367,0
2384,38399,0
2392,38384,0
2377,38374,0
2372,38352,0
2360,38393,0
2348,38391,0
2338,38366,0
2322,38403,0
2312,38359,0
2320,38367,0
2304,38414,0
2314,38376,0
2324,38367,0
2336,38360,0
2336,38397,0
2360,38388,0
2360,38360,0
2384,38381,0
2384,38364,0
2388,38379,0
2392,38406,0
2380,38377,0
2368,38366,0
2352,38383,0
2328,38390,0
2304,38381,0
2288,38392,0
2274,38357,0
2272,38373,0
2256,38410,0
2248,38379,0
2250,38376,0
2264,38355,0
2288,38402,0
2300,38374,0
2320,38371,0
2344,38394,0
2356,38361,0
2372,38385,0
2380,38419,0
2380,38377,0
2376,38366,0
2384,38353,0
2368,38424,0
2352,38379,0
2348,38370,0
2336,38394,0
2326,38377,0
2320,38388,0
2314,38394,0
2308,38402,0
2304,38366,0
2320,38371,0
2340,38389,0
2344,38400,0
2360,38373,0
2376,38385,0
2370,38402,0
2368,38414,0
2360,38372,0
2352,38369,0
2344,38404,0
2329,38397,0
2320,38388,0
2304,38399,0
2300,38375,0
2280,38386,0
2272,38401,0
2276,38401,0
2280,38387,0
2288,38357,0
2304,38419,0
2308,38383,0
2336,38382,0
2344,38405,0
2352,38373,0
2368,38395,0
2386,38413,0
2388,38388,0
2392,38381,0
2392,38363,0
2384,38416,0
2376,38373,0
2368,38376,0
2338,38399,0
2340,38389,0
2320,38392,0
2316,38376,0
2314,38385,0
2308,38377,0
2304,38424,0
2308,38395,0
2320,38368,0
2336,38399,0
2344,38384,0
2362,38394,0
2384,38419,0
2384,38397,0
2384,38386,0
2392,38410,0
2384,38427,0
2376,38397,0
2376,38376,0
2368,38399,0
2344,38392,0
2336,38395,0
2320,38411,0
2320,38387,0
2314,38384,0
2320,38410,0
2324,38423,0
2324,38388,0
2336,38367,0
2352,38399,0
2368,38399,0
2368,38398,0
2376,38409,0
2380,38380,0
2368,38401,0
2272,38415,0
2348,38393,0
2332,38413,0
2312,38397,0
2292,38414,0
2276,38404,0
2272,38366,0
2252,38417,0
2240,38378,0
2244,38391,0
2244,38421,0
2264,38391,0
2280,38392,0
2288,38414,0
2312,38423,0
2328,38398,0
2348,38378,0
2360,38405,0
2384,38402,0
2394,38401,0
2388,38420,0
2380,38389,0
2372,38395,0
2368,38434,0
2342,38418,0
2336,38398,0
2320,38381,0
2316,38417,0
2304,38403,0
2292,38393,0
2296,38381,0
2308,38394,0
2308,38398,0
2322,38437,0
2344,38423,0
2356,38426,0
2368,38389,0
2384,38404,0
2392,38434,0
2392,38408,0
2392,38399,0
2384,38395,0
2368,38436,0
2360,38415,0
2352,38392,0
2336,38428,0
2314,38402,0
2320,38425,0
2296,38428,0
2304,38412,0
2296,38400,0
2308,38413,0
2316,38439,0
2324,38400,0
2337,38386,0
2352,38425,0
2352,38415,0
2360,38408,0
2352,38438,0
2356,38392,0
2354,38399,0
2336,38446,0
2312,38422,0
2292,38409,0
2274,38412,0
2256,38413,0
2224,38434,0
2208,38388,0
2192,38426,0
2188,38404,0
2192,38419,0
2200,38440,0
2208,38406,0
2228,38411,0
2250,38412,0
2296,38444,0
2316,38416,0
2344,38401,0
2372,38436,0
2388,38410,0
2416,38424,0
2436,38436,0
2464,38419,0
2484,38407,0
2498,38436,0
2532,38449,0
2560,38420,0
2596,38391,0
2636,38421,0
2672,38413,0
2714,38420,0
2762,38436,0
2816,38405,0
2856,38411,0
2920,38408,0
2960,38432,0
2996,38429,0
3016,38430,0
3024,38428,0
3026,38438,0
3008,38423,0
2956,38423,0
2916,38432,0
2842,38414,0
2784,38420,0
2720,38439,0
2656,38417,0
2586,38401,0
2536,38456,0
2468,38424,0
2416,38422,0
2368,38433,0
2320,38410,0
2296,38433,0
2260,38408,0
2240,38445,0
2224,38421,0
2212,38414,0
2208,38463,0
2192,38418,0
2177,38424,0
2160,38440,0
2144,38433,0
2128,38430,0
2116,38430,0
2106,38443,0
2088,38435,0
2072,38441,0
2066,38419,0
2064,38449,0
2072,38419,0
2080,38438,0
2088,38434,0
2096,38430,0
2134,38450,0
2136,38421,0
2154,38422,0
2170,38434,0
2180,38447,0
2184,38416,0
2184,38404,0
2184,38454,0
2184,38433,0
2168,38421,0
2160,38444,0
2152,38410,0
2144,38428,0
2156,38445,0
2148,38445,0
2156,38410,0
2160,38405,0
2178,38465,0
2192,38417,0
2217,38417,0
2232,38438,0
2256,38427,0
2268,38442,0
2282,38436,0
2288,38412,0
2280,38430,0
2280,38442,0
2260,38427,0
2252,38418,0
2224,38414,0
2216,38432,0
2192,38440,0
2184,38427,0
2176,38444,0
2168,38425,0
2180,38419,0
2184,38414,0
2202,38449,0
2212,38419,0
2240,38415,0
2386,38452,0
2276,38432,0
2298,38421,0
2312,38437,0
2320,38436,0
2332,38435,0
2320,38411,0
2316,38451,0
2308,38409,0
2304,38426,0
2289,38450,0
2280,38420,0
2264,38413,0
2252,38421,0
2252,38443,0
2264,38431,0
2256,38421,0
2260,38435,0
2272,38435,0
2296,38427,0
2296,38448,0
2308,38423,0
2320,38416,0
2328,38430,0
2320,38468,0
2320,38423,0
2328,38402,0
2304,38442,0
2300,38414,0
2292,38435,0
2280,38445,0
2260,38412,0
2256,38407,0
2244,38423,0
2256,38461,0
2252,38415,0
2272,38396,0
2276,38434,0
2289,38429,0
2312,38419,0
2336,38438,0
2336,38409,0
2352,38411,0
2368,38459,0
2372,38437,0
2370,38420,0
2362,38395,0
2344,38424,0
2316,38455,0
2292,38415,0
2420,38429,0
2264,38417,0
2240,38451,0
2232,38427,0
2225,38414,0
2232,38441,0
2240,38420,0
2248,38433,0
2272,38416,0
2288,38446,0
2308,38409,0
2320,38401,0
2332,38458,0
2330,38422,0
2340,38414,0
2328,38447,0
2336,38433,0
2320,38435,0
2308,38420,0
2304,38435,0
2288,38408,0
2280,38418,0
2272,38445,0
2266,38415,0
2264,38417,0
2272,38434,0
2282,38435,0
2296,38429,0
2308,38424,0
2320,38424,0
2324,38418,0
2330,38452,0
2336,38426,0
2322,38435,0
2320,38423,0
2304,38454,0
2416,38439,0
2272,38433,0
2256,38452,0
2242,38428,0
2240,38449,0
2232,38423,0
2216,38449,0
2224,38414,0
2240,38411,0
2242,38456,0
2256,38434,0
2280,38429,0
2292,38428,0
2320,38449,0
2330,38440,0
2352,38411,0
2368,38458,0
2368,38421,0
2368,38423,0
2361,38455,0
2362,38426,0
2344,38437,0
2336,38449,0
2320,38475,0
2300,38443,0
2296,38450,0
2296,38426,0
2280,38442,0
2277,38468,0
2280,38454,0
2300,38437,0
2305,38413,0
2328,38461,0
2336,38438,0
2352,38419,0
2384,38449,0
2376,38411,0
2392,38450,0
2384,38465,0
2368,38436,0
2360,38437,0
2344,38440,0
2332,38478,0
2324,38450,0
2314,38431,0
2312,38453,0
2296,38435,0
2304,38464,0
2304,38461,0
2308,38436,0
2324,38431,0
2336,38431,0
2344,38474,0
2360,38426,0
2376,38432,0
2388,38451,0
2388,38454,0
2384,38449,0
2368,38420,0
2352,38429,0
2336,38426,0
2312,38460,0
2304,38454,0
2288,38446,0
2260,38435,0
2252,38434,0
2242,38463,0
2244,38429,0
2248,38408,0
2256,38442,0
2280,38441,0
2288,38438,0
2316,38448,0
2328,38431,0
2346,38421,0
2368,38453,0
2372,38448,0
2376,38433,0
2388,38397,0
2372,38437,0
2360,38436,0
2344,38419,0
2338,38446,0
2320,38419,0
2312,38436,0
2308,38419,0
2297,38435,0
2296,38414,0
2304,38397,0
2312,38422,0
2324,38431,0
2336,38411,0
2344,38415,0
2372,38421,0
2362,38430,0
2372,38392,0
2372,38432,0
2376,38402,0
2368,38407,0
2352,38437,0
2340,38404,0
2328,38402,0
2312,38408,0
2304,38430,0
2288,38429,0
2282,38387,0
2282,38420,0
2288,38386,0
2288,38410,0
2296,38423,0
2316,38391,0
2344,38399,0
2352,38409,0
2368,38436,0
2378,38391,0
2400,38380,0
2400,38411,0
2408,38394,0
2410,38396,0
2405,38409,0
2384,38388,0
2368,38387,0
2348,38412,0
2328,38408,0
2304,38404,0
2288,38397,0
2272,38390,0
2264,38411,0
2272,38388,0
2272,38412,0
2288,38375,0
2298,38387,0
2308,38409,0
2324,38395,0
2340,38386,0
2352,38356,0
2360,38415,0
2352,38393,0
2356,38372,0
2348,38403,0
2332,38372,0
2320,38398,0
2304,38411,0
2288,38388,0
2288,38384,0
2272,38364,0
2256,38424,0
2272,38383,0
2264,38357,0
2274,38389,0
2284,38370,0
2296,38383,0
2317,38401,0
2324,38373,0
2288,38381,0
2282,38389,0
2284,38372,0
2280,38379,0
2292,38384,0
2309,38397,0
2312,38360,0
2322,38347,0
2336,38397,0
2368,38382,0
2368,38361,0
2360,38389,0
2368,38378,0
2368,38392,0
2360,38397,0
2338,38372,0
2340,38357,0
2312,38379,0
2296,38407,0
2288,38367,0
2276,38348,0
2274,38382,0
2272,38378,0
2289,38370,0
2288,38385,0
2304,38371,0
2312,38370,0
2337,38414,0
2344,38378,0
2360,38366,0
2368,38355,0
2364,38399,0
2356,38393,0
2346,38393,0
2320,38393,0
2300,38393,0
2272,38393,0
2256,38393,0
2228,38393,0
2216,38384,0
2200,38384,0
2192,38384,0
2200,38384,0
2208,38384,0
2216,38384,0
2228,38384,0
2256,38376,0
2268,38376,0
2284,38376,0
2312,38376,0
2320,38376,0
2316,38376,0
2328,38376,0
2308,38377,0
2308,38381,0
2288,38381,0
2272,38381,0
2258,38381,0
2248,38381,0
2232,38381,0
2224,38352,0
2228,38361,0
2245,38361,0
2272,38355,0
2273,38347,0
2288,38402,0
2314,38355,0
2320,38357,0
2324,38378,0
2336,38383,0
2336,38355,0
2324,38360,0
2316,38377,0
2296,38342,0
2288,38362,0
2176,38375,0
2250,38351,0
2240,38359,0
2232,38377,0
2224,38374,0
2226,38359,0
2232,38349,0
2240,38377,0
2258,38373,0
2272,38350,0
2292,38373,0
2312,38351,0
2336,38356,0
2344,38391,0
2356,38367,0
2324,38367,0
2304,38346,0
2276,38365,0
2272,38388,0
2244,38363,0
2242,38373,0
2248,38369,0
2256,38369,0
2260,38348,0
2272,38391,0
2284,38363,0
2300,38347,0
2320,38384,0
2328,38358,0
2348,38350,0
2340,38366,0
2336,38377,0
2320,38374,0
2308,38345,0
2297,38386,0
2280,38359,0
2272,38350,0
2260,38398,0
2256,38358,0
2244,38368,0
2242,38368,0
2244,38370,0
2256,38374,0
2272,38351,0
2274,38395,0
2292,38363,0
2304,38371,0
2312,38376,0
2324,38355,0
2324,38368,0
2320,38367,0
2304,38374,0
2292,38354,0
2272,38383,0
2256,38367,0
2252,38376,0
2224,38406,0
2212,38370,0
2200,38373,0
2200,38368,0
2196,38402,0
2216,38372,0
2226,38360,0
2240,38384,0
2252,38354,0
2280,38389,0
2288,38399,0
2312,38374,0
2322,38368,0
2336,38369,0
2340,38418,0
2340,38373,0
2346,38364,0
2329,38383,0
2320,38383,0
2312,38376,0
2294,38396,0
2294,38393,0
2276,38362,0
2272,38391,0
2266,38368,0
2272,38385,0
2276,38382,0
2288,38359,0
2300,38380,0
2308,38407,0
2322,38377,0
2340,38371,0
2346,38395,0
2362,38400,0
2352,38380,0
2340,38359,0
2328,38396,0
2328,38385,0
2304,38394,0
2288,38397,0
2280,38376,0
2264,38363,0
2248,38414,0
2252,38393,0
2256,38377,0
2248,38371,0
2258,38405,0
2282,38397,0
2292,38381,0
2304,38402,0
2336,38370,0
2336,38383,0
2346,38406,0
2356,38397,0
2352,38371,0
2348,38381,0
2328,38387,0
2320,38376,0
2288,38393,0
2264,38373,0
2248,38368,0
2232,38374,0
2216,38412,0
2220,38381,0
2208,38377,0
2208,38392,0
2216,38411,0
2232,38379,0
2244,38357,0
2272,38387,0
2288,38367,0
2312,38392,0
2328,38398,0
2344,38373,0
2336,38377,0
2344,38408,0
2336,38397,0
2328,38371,0
2320,38370,0
2312,38389,0
2304,38395,0
2276,38361,0
2273,38397,0
2268,38370,0
2272,38378,0
2276,38410,0
2272,38371,0
2288,38377,0
2304,38373,0
2316,38405,0
2320,38402,0
2320,38380,0
2324,38388,0
2320,38352,0
2312,38411,0
2304,38379,0
2288,38366,0
2288,38384,0
2272,38368,0
2248,38396,0
2240,38401,0
2240,38392,0
2220,38375,0
2220,38375,0
2240,38416,0
2248,38383,0
2248,38367,0
2264,38401,0
2288,38391,0
2304,38396,0
2320,38400,0
2336,38378,0
2356,38379,0
2368,38391,0
2354,38409,0
2360,38379,0
2354,38360,0
2350,38401,0
2332,38384,0
2336,38396,0
2304,38383,0
2289,38385,0
2276,38393,0
2272,38397,0
2276,38387,0
2272,38394,0
2284,38399,0
2288,38396,0
2298,38373,0
2320,38405,0
2330,38384,0
2348,38383,0
2354,38415,0
2360,38397,0
2352,38384,0
2344,38378,0
2336,38407,0
2320,38390,0
2304,38373,0
2308,38403,0
2280,38369,0
2260,38391,0
2256,38421,0
2240,38384,0
2256,38377,0
2256,38397,0
2264,38418,0
2284,38388,0
2288,38372,0
2310,38403,0
2314,38380,0
2336,38392,0
2344,38400,0
2340,38395,0
2320,38389,0
2308,38395,0
2296,38424,0
2273,38392,0
2249,38376,0
2240,38399,0
2218,38406,0
2200,38394,0
2200,38400,0
2196,38385,0
2200,38381,0
2194,38408,0
2216,38410,0
2228,38385,0
2250,38365,0
2272,38408,0
2292,38402,0
2306,38387,0
2314,38415,0
2336,38374,0
2328,38402,0
2328,38413,0
2324,38407,0
2312,38391,0
2290,38366,0
2288,38427,0
2272,38393,0
2264,38394,0
2256,38417,0
2250,38397,0
2248,38415,0
2252,38394,0
2264,38403,0
2276,38407,0
2292,38390,0
2312,38403,0
2328,38406,0
2328,38418,0
2340,38386,0
2352,38384,0
2336,38424,0
2328,38389,0
2320,38385,0
2304,38409,0
2292,38412,0
2272,38397,0
2260,38388,0
2244,38406,0
2232,38389,0
2232,38406,0
2240,38407,0
2245,38393,0
2252,38383,0
2264,38426,0
2282,38423,0
2292,38402,0
2312,38372,0
2316,38412,0
2336,38413,0
2336,38403,0
2306,38409,0
2304,38412,0
2276,38387,0
2252,38409,0
2244,38393,0
2224,38426,0
2216,38405,0
2200,38407,0
2194,38411,0
2212,38426,0
2212,38401,0
2232,38389,0
2248,38439,0
2272,38414,0
2282,38406,0
2304,38430,0
2320,38403,0
2328,38421,0
2340,38392,0
2336,38428,0
2320,38398,0
2308,38389,0
2296,38449,0
2284,38408,0
2272,38404,0
2256,38419,0
2240,38418,0
2240,38413,0
2240,38393,0
2242,38427,0
2248,38404,0
2256,38417,0
2272,38409,0
2268,38419,0
2280,38397,0
2298,38422,0
2288,38421,0
2296,38412,0
2296,38398,0
2280,38426,0
2264,38410,0
2256,38431,0
2242,38409,0
2224,38435,0
2216,38397,0
2192,38407,0
2192,38443,0
2194,38401,0
2192,38416,0
2208,38410,0
2216,38450,0
2224,38408,0
2240,38386,0
2264,38429,0
2288,38415,0
2304,38433,0
2322,38438,0
2332,38432,0
2346,38408,0
2336,38402,0
2336,38459,0
2328,38411,0
2320,38410,0
2320,38425,0
2308,38416,0
2280,38429,0
2268,38421,0
2264,38428,0
2250,38415,0
2256,38427,0
2258,38402,0
2272,38431,0
2200,38406,0
2296,38418,0
2308,38457,0
2328,38414,0
2338,38418,0
2344,38413,0
2340,38455,0
2332,38430,0
2324,38402,0
2316,38434,0
2304,38415,0
2284,38438,0
2264,38442,0
2256,38428,0
2252,38409,0
2250,38391,0
2244,38453,0
2246,38411,0
2256,38419,0
2264,38442,0
2272,38415,0
2300,38438,0
2312,38441,0
2312,38443,0
2336,38411,0
2336,38425,0
2304,38429,0
2320,38440,0
2304,38420,0
2272,38425,0
2256,38469,0
2232,38421,0
2224,38392,0
2200,38436,0
2192,38414,0
2192,38449,0
2192,38446,0
2200,38432,0
2208,38420,0
2232,38408,0
2256,38462,0
2261,38421,0
2284,38403,0
2304,38429,0
2320,38428,0
2320,38440,0
2320,38434,0
2324,38444,0
2312,38408,0
2304,38410,0
2304,38461,0
2273,38425,0
2260,38426,0
2248,38441,0
2244,38453,0
2232,38431,0
2240,38440,0
2240,38421,0
2248,38432,0
2252,38461,0
2264,38426,0
2272,38418,0
2288,38419,0
2293,38453,0
2306,38456,0
2306,38423,0
2304,38411,0
2296,38439,0
2288,38445,0
2266,38420,0
2248,38447,0
2228,38420,0
2224,38420,0
2208,38429,0
2184,38459,0
2196,38428,0
2184,38415,0
2192,38451,0
2208,38435,0
2213,38442,0
2232,38442,0
2244,38428,0
2248,38435,0
2272,38436,0
2272,38452,0
2282,38427,0
2282,38404,0
2274,38472,0
2264,38428,0
2244,38416,0
2228,38436,0
2210,38422,0
2194,38457,0
2186,38450,0
2184,38464,0
2196,38428,0
2224,38438,0
2224,38439,0
2264,38454,0
2304,38437,0
2356,38432,0
2408,38470,0
2473,38428,0
2530,38440,0
2592,38430,0
2648,38454,0
2704,38448,0
2732,38419,0
2784,38462,0
2816,38423,0
2860,38438,0
2888,38469,0
2912,38447,0
2952,38438,0
2964,38405,0
2980,38479,0
2984,38441,0
2984,38428,0
2980,38463,0
2948,38431,0
2912,38462,0
2872,38437,0
2840,38430,0
2792,38459,0
2736,38433,0
2668,38468,0
2608,38454,0
2520,38429,0
2448,38415,0
2368,38468,0
2284,38447,0
2212,38432,0
2156,38456,0
2100,38431,0
2058,38438,0
2024,38460,0
2000,38452,0
2000,38430,0
1973,38405,0
1978,38478,0
1984,38442,0
1989,38436,0
2000,38457,0
2012,38440,0
2025,38454,0
2033,38435,0
2040,38474,0
2041,38430,0
2044,38429,0
2040,38472,0
2040,38439,0
2030,38441,0
2020,38460,0
2016,38466,0
2020,38452,0
2024,38435,0
2032,38457,0
2042,38439,0
2056,38446,0
2068,38459,0
2100,38436,0
2116,38441,0
2136,38460,0
2156,38469,0
2170,38450,0
2176,38425,0
2184,38459,0
2180,38439,0
2168,38449,0
2176,38450,0
2164,38433,0
2154,38437,0
2144,38477,0
2145,38466,0
2144,38450,0
2144,38416,0
2152,38457,0
2152,38455,0
2168,38441,0
2176,38467,0
2192,38439,0
2214,38455,0
2220,38455,0
2238,38470,0
2240,38451,0
2244,38435,0
2236,38452,0
2224,38458,0
2204,38463,0
2184,38441,0
2176,38444,0
2160,38451,0
2145,38478,0
2144,38440,0
2130,38428,0
2136,38457,0
2144,38460,0
2160,38448,0
2176,38464,0
2192,38441,0
2226,38450,0
2240,38446,0
2252,38470,0
2264,38436,0
2280,38431,0
2288,38475,0
2292,38446,0
2288,38447,0
2274,38454,0
2266,38453,0
2256,38457,0
2244,38438,0
2232,38478,0
2224,38437,0
2212,38433,0
2212,38472,0
2216,38445,0
2234,38478,0
2248,38456,0
2256,38470,0
2280,38452,0
2288,38473,0
2296,38449,0
2304,38447,0
2298,38447,0
2304,38471,0
2284,38446,0
2280,38435,0
2272,38467,0
2248,38455,0
2240,38453,0
2232,38466,0
2212,38463,0
2208,38455,0
2216,38455,0
2218,38475,0
2220,38448,0
2244,38438,0
2256,38491,0
2264,38459,0
2281,38456,0
2304,38469,0
2312,38480,0
2320,38468,0
2328,38442,0
2325,38476,0
2305,38455,0
2304,38472,0
2276,38462,0
2244,38453,0
2232,38468,0
2212,38460,0
2196,38475,0
2176,38470,0
2172,38455,0
2176,38485,0
2184,38451,0
2192,38458,0
2208,38484,0
2216,38459,0
2240,38457,0
2256,38468,0
2272,38505,0
2272,38463,0
2276,38445,0
2274,38475,0
2264,38459,0
2256,38475,0
2256,38491,0
2240,38461,0
2216,38460,0
2216,38469,0
2208,38502,0
2200,38463,0
2192,38465,0
2200,38481,0
2210,38478,0
2220,38474,0
2236,38479,0
2244,38452,0
2256,38464,0
2256,38499,0
2280,38477,0
2266,38484,0
2260,38467,0
2244,38486,0
2236,38466,0
2224,38440,0
2202,38482,0
2196,38457,0
2184,38474,0
2176,38492,0
2168,38467,0
2168,38470,0
2160,38470,0
2176,38507,0
2196,38471,0
2212,38453,0
2224,38479,0
2241,38462,0
2272,38481,0
2288,38490,0
2304,38468,0
2312,38455,0
2326,38485,0
2322,38497,0
2314,38469,0
2304,38471,0
2296,38488,0
2280,38478,0
2264,38471,0
2250,38464,0
2224,38471,0
2224,38485,0
2224,38511,0
2220,38460,0
2228,38468,0
2242,38484,0
2264,38464,0
2272,38482,0
2288,38480,0
2288,38493,0
2300,38449,0
2312,38455,0
2308,38500,0
2300,38470,0
2288,38473,0
2280,38487,0
2264,38483,0
2256,38478,0
2240,38469,0
2228,38485,0
2228,38462,0
2216,38469,0
2228,38502,0
2228,38464,0
2240,38462,0
2249,38483,0
2260,38482,0
2272,38470,0
2296,38476,0
2308,38477,0
2304,38469,0
2316,38488,0
2304,38467,0
2284,38459,0
2272,38439,0
2384,38479,0
2236,38454,0
2224,38467,0
2192,38480,0
2180,38469,0
2176,38479,0
2176,38438,0
2176,38477,0
2188,38439,0
2194,38444,0
2210,38484,0
2228,38456,0
2248,38445,0
2272,38467,0
2292,38464,0
2292,38465,0
2312,38447,0
2304,38476,0
2304,38443,0
2294,38446,0
2288,38475,0
2272,38440,0
2272,38445,0
2256,38472,0
2240,38465,0
2240,38446,0
2232,38435,0
2232,38461,0
2236,38470,0
2244,38452,0
2256,38451,0
2264,38431,0
2276,38428,0
2284,38476,0
2304,38445,0
2298,38429,0
2312,38448,0
2290,38427,0
2288,38450,0
2280,38463,0
2280,38441,0
2256,38426,0
2244,38425,0
2240,38474,0
2226,38441,0
2224,38428,0
2224,38435,0
2224,38440,0
2232,38442,0
2240,38441,0
2257,38450,0
2276,38429,0
2282,38419,0
2306,38456,0
2320,38423,0
2328,38422,0
2336,38436,0
2336,38438,0
2330,38432,0
2314,38444,0
2304,38424,0
2274,38439,0
2248,38421,0
2228,38435,0
2200,38421,0
2184,38420,0
2180,38457,0
2170,38432,0
2176,38424,0
2176,38393,0
2192,38430,0
2208,38428,0
2228,38408,0
2232,38438,0
2249,38408,0
2260,38417,0
2256,38453,0
2256,38410,0
2264,38415,0
2256,38429,0
2240,38441,0
2224,38409,0
2212,38404,0
2200,38432,0
2194,38399,0
2178,38419,0
2176,38438,0
2180,38409,0
2184,38402,0
2196,38416,0
2208,38440,0
2217,38412,0
2220,38422,0
2232,38394,0
2232,38423,0
2242,38436,0
2240,38441,0
2232,38404,0
2224,38411,0
2200,38434,0
2192,38441,0
2176,38409,0
2168,38386,0
2156,38428,0
2144,38417,0
2152,38404,0
2144,38435,0
2144,38393,0
2156,38414,0
2168,38442,0
2184,38428,0
2208,38411,0
2224,38379,0
2244,38435,0
2257,38409,0
2272,38399,0
2280,38418,0
2288,38392,0
2280,38414,0
2272,38431,0
2250,38418,0
2264,38404,0
2232,38384,0
2228,38441,0
2220,38384,0
2208,38398,0
2208,38419,0
2216,38419,0
2216,38412,0
2226,38412,0
2240,38420,0
2248,38396,0
2256,38397,0
2272,38430,0
2276,38397,0
2284,38389,0
2284,38416,0
2276,38421,0
2272,38405,0
2256,38398,0
2252,38410,0
2240,38383,0
2224,38400,0
2212,38426,0
2208,38390,0
2200,38383,0
2192,38416,0
2200,38422,0
2208,38397,0
2212,38381,0
2224,38409,0
2248,38405,0
2256,38392,0
2274,38421,0
2278,38396,0
2272,38394,0
2264,38422,0
2248,38423,0
2240,38400,0
2218,38402,0
2196,38391,0
2176,38429,0
2168,38387,0
2148,38396,0
2160,38409,0
2152,38407,0
2152,38405,0
2168,38393,0
2176,38415,0
2192,38382,0
2210,38388,0
2226,38420,0
2248,38396,0
2265,38387,0
2264,38412,0
2264,38411,0
2264,38391,0
2260,38385,0
2256,38414,0
2240,38404,0
2232,38398,0
2220,38411,0
2216,38386,0
2200,38381,0
2200,38426,0
2200,38413,0
2202,38385,0
2208,38394,0
2216,38411,0
2226,38424,0
2250,38394,0
2248,38406,0
2264,38388,0
2264,38411,0
2272,38398,0
2264,38391,0
2260,38407,0
2248,38407,0
2232,38390,0
2240,38386,0
2212,38405,0
2201,38385,0
2194,38367,0
2184,38420,0
2178,38396,0
2176,38390,0
2192,38408,0
2192,38389,0
2210,38397,0
2226,38405,0
2240,38399,0
2252,38375,0
2272,38388,0
2296,38425,0
2294,38399,0
2296,38367,0
2304,38400,0
2288,38397,0
2276,38398,0
2268,38394,0
2256,38410,0
2240,38387,0
2229,38426,0
2210,38406,0
2216,38386,0
2208,38399,0
2208,38387,0
2212,38406,0
2216,38410,0
2228,38406,0
2248,38373,0
2256,38378,0
2272,38429,0
2296,38392,0
2292,38382,0
2304,38399,0
2296,38398,0
2280,38397,0
2280,38408,0
2272,38393,0
2252,38387,0
2240,38389,0
2228,38409,0
2232,38386,0
2224,38370,0
2216,38417,0
2232,38400,0
2232,38390,0
2248,38405,0
2266,38393,0
2268,38402,0
2280,38399,0
2288,38393,0
2288,38379,0
2292,38391,0
2288,38429,0
2272,38394,0
2256,38380,0
2232,38404,0
2212,38387,0
2328,38401,0
2178,38416,0
2168,38383,0
2156,38397,0
2164,38421,0
2160,38419,0
2168,38380,0
2196,38377,0
2196,38406,0
2224,38405,0
2240,38388,0
2264,38423,0
2276,38387,0
2290,38380,0
2288,38426,0
2304,38405,0
2284,38391,0
2284,38389,0
2276,38413,0
2264,38415,0
2256,38381,0
2250,38413,0
2224,38387,0
2224,38402,0
2210,38409,0
2220,38387,0
2232,38415,0
2228,38374,0
2242,38411,0
2272,38424,0
2272,38389,0
2292,38408,0
2304,38381,0
2308,38437,0
2312,38394,0
2312,38381,0
2296,38403,0
2288,38396,0
2280,38410,0
2264,38410,0
2248,38409,0
2232,38388,0
2216,38387,0
2210,38427,0
2216,38387,0
2209,38367,0
2224,38411,0
2228,38399,0
2248,38381,0
2256,38402,0
2272,38386,0
2288,38385,0
2306,38428,0
2306,38409,0
2304,38386,0
2304,38390,0
2288,38400,0
2272,38433,0
2248,38407,0
2224,38395,0
2216,38388,0
2208,38416,0
2188,38423,0
2172,38389,0
2168,38377,0
2176,38397,0
2184,38393,0
2188,38398,0
2202,38413,0
2218,38393,0
2240,38387,0
2260,38410,0
2277,38412,0
2288,38391,0
2296,38372,0
2292,38412,0
2304,38401,0
2274,38391,0
2272,38417,0
2264,38383,0
2256,38407,0
2240,38384,0
2224,38405,0
2224,38392,0
2224,38379,0
2220,38438,0
2234,38398,0
2244,38404,0
2256,38396,0
2260,38392,0
2274,38419,0
2280,38397,0
2288,38410,0
2288,38381,0
2288,38385,0
2268,38422,0
2256,38381,0
2256,38387,0
2232,38412,0
2216,38404,0
2208,38392,0
2192,38391,0
2188,38404,0
2184,38388,0
2186,38400,0
2194,38409,0
2208,38387,0
2224,38379,0
2240,38425,0
2248,38406,0
2276,38397,0
2284,38376,0
2304,38407,0
2312,38393,0
2320,38389,0
2312,38409,0
2312,38379,0
2304,38381,0
2284,38423,0
2282,38402,0
2264,38402,0
2248,38398,0
2244,38394,0
2240,38401,0
2228,38378,0
2240,38408,0
2232,38389,0
2252,38389,0
2248,38426,0
2272,38384,0
2288,38395,0
2296,38406,0
2312,38412,0
2312,38403,0
2320,38388,0
2308,38419,0
2300,38397,0
2296,38385,0
2273,38422,0
2272,38381,0
2248,38398,0
2245,38421,0
2224,38418,0
2216,38392,0
2210,38388,0
2216,38422,0
2224,38399,0
2240,38405,0
2252,38413,0
2268,38393,0
2274,38388,0
2280,38415,0
2180,38402,0
2288,38400,0
2284,38400,0
2260,38399,0
2256,38419,0
2232,38423,0
2218,38410,0
2204,38397,0
2184,38387,0
2178,38438,0
2172,38396,0
2164,38377,0
2178,38406,0
2188,38404,0
2192,38400,0
2216,38421,0
2232,38397,0
2240,38390,0
2272,38420,0
2292,38431,0
2304,38393,0
2306,38389,0
2314,38416,0
2314,38404,0
2312,38400,0
2316,38406,0
2296,38413,0
2276,38413,0
2273,38398,0
2256,38418,0
2240,38437,0
2240,38410,0
2232,38428,0
2244,38395,0
2258,38392,0
2264,38398,0
2280,38375,0
2288,38438,0
2296,38397,0
2308,38395,0
2314,38423,0
2320,38401,0
2312,38415,0
2304,38423,0
2300,38418,0
2288,38406,0
2288,38387,0
2284,38433,0
2256,38388,0
2240,38404,0
2240,38418,0
2240,38421,0
2241,38411,0
2244,38400,0
2256,38423,0
2272,38408,0
2281,38407,0
2290,38427,0
2316,38391,0
2320,38390,0
2324,38434,0
2320,38407,0
2320,38437,0
2296,38408,0
2276,38392,0
2264,38402,0
2242,38419,0
2224,38417,0
2208,38401,0
2194,38399,0
2196,38447,0
2188,38413,0
2200,38412,0
2216,38385,0
2218,38427,0
2240,38415,0
2256,38390,0
2280,38436,0
2304,38398,0
2316,38413,0
2313,38451,0
2328,38415,0
2320,38412,0
2320,38406,0
2306,38450,0
2304,38417,0
2293,38384,0
2272,38428,0
2264,38401,0
2260,38414,0
2248,38435,0
2250,38401,0
2264,38401,0
2268,38415,0
2276,38418,0
2288,38404,0
2296,38409,0
2308,38427,0
2304,38419,0
2312,38418,0
2308,38405,0
2296,38440,0
2288,38412,0
2276,38420,0
2264,38444,0
2260,38410,0
2232,38404,0
2228,38429,0
2224,38436,0
2208,38411,0
2200,38401,0
2208,38428,0
2212,38412,0
2224,38415,0
2252,38433,0
2256,38414,0
2273,38400,0
2288,38445,0
2304,38436,0
2316,38403,0
2320,38408,0
2324,38451,0
2320,38430,0
2322,38415,0
2324,38441,0
2298,38413,0
2292,38412,0
2272,38446,0
2248,38420,0
2248,38436,0
2232,38420,0
2232,38449,0
2240,38426,0
2244,38415,0
2264,38430,0
2276,38438,0
2292,38429,0
2316,38407,0
2336,38439,0
2336,38418,0
2348,38400,0
2348,38453,0
2338,38419,0
2344,38418,0
2320,38438,0
2296,38424,0
2304,38432,0
2292,38417,0
2276,38446,0
2257,38411,0
2260,38414,0
2256,38450,0
2262,38429,0
2272,38416,0
2280,38434,0
2298,38429,0
2313,38442,0
2308,38443,0
2330,38431,0
2328,38410,0
2324,38425,0
2320,38449,0
2296,38444,0
2280,38421,0
2272,38427,0
2240,38461,0
2228,38428,0
2209,38431,0
2208,38430,0
2200,38460,0
2193,38430,0
2196,38397,0
2212,38439,0
2228,38411,0
2248,38450,0
2256,38451,0
2282,38426,0
2304,38424,0
2312,38444,0
2336,38464,0
2328,38428,0
2336,38423,0
2328,38450,0
2320,38441,0
2320,38424,0
2304,38451,0
2288,38424,0
2277,38420,0
2268,38453,0
2258,38442,0
2252,38429,0
2250,38448,0
2256,38457,0
2268,38440,0
2272,38456,0
2288,38454,0
2312,38418,0
2320,38430,0
2340,38464,0
2344,38438,0
2344,38434,0
2338,38446,0
2336,38454,0
2330,38443,0
2322,38430,0
2304,38459,0
2300,38421,0
2276,38435,0
2272,38465,0
2256,38438,0
2256,38429,0
2272,38461,0
2272,38452,0
2282,38446,0
2292,38452,0
2308,38441,0
2322,38443,0
2337,38431,0
2346,38464,0
2364,38441,0
2356,38429,0
2340,38474,0
2336,38476,0
2320,38432,0
2296,38459,0
2276,38433,0
2248,38448,0
2228,38428,0
2224,38454,0
2208,38432,0
2200,38434,0
2208,38478,0
2210,38442,0
2218,38433,0
2240,38450,0
2250,38469,0
2266,38442,0
2280,38426,0
2298,38459,0
2308,38423,0
2314,38446,0
2308,38472,0
2312,38427,0
2304,38438,0
2288,38454,0
2280,38457,0
2266,38444,0
2252,38436,0
2252,38454,0
2260,38443,0
2240,38445,0
2248,38456,0
2257,38434,0
2264,38430,0
2276,38480,0
2288,38481,0
2312,38442,0
2320,38413,0
2308,38451,0
2320,38447,0
2312,38457,0
2298,38469,0
2288,38445,0
2272,38449,0
2252,38465,0
2234,38474,0
2228,38440,0
2224,38434,0
2210,38472,0
2192,38464,0
2212,38451,0
2196,38469,0
2212,38461,0
2201,38460,0
2228,38434,0
2240,38475,0
2264,38441,0
2272,38445,0
2280,38489,0
2304,38454,0
2293,38456,0
2292,38465,0
2292,38481,0
2288,38471,0
2274,38432,0
2274,38467,0
2265,38451,0
2266,38470,0
2266,38456,0
2272,38481,0
2298,38454,0
2312,38472,0
2360,38468,0
2372,38459,0
2428,38473,0
2465,38448,0
2536,38452,0
2576,38469,0
2628,38476,0
2688,38449,0
2720,38434,0
2760,38476,0
2792,38466,0
2832,38462,0
2864,38478,0
2888,38442,0
2920,38458,0
2952,38483,0
2960,38475,0
2976,38441,0
2976,38436,0
2962,38494,0
2944,38462,0
2928,38456,0
2880,38472,0
2864,38467,0
2832,38470,0
2736,38475,0
2688,38456,0
2612,38417,0
2552,38465,0
2464,38470,0
2384,38437,0
2306,38482,0
2240,38444,0
2184,38480,0
2144,38487,0
2080,38460,0
2044,38455,0
2032,38445,0
2012,38496,0
2008,38460,0
2004,38444,0
2008,38486,0
2020,38463,0
2032,38481,0
2048,38477,0
2058,38463,0
2056,38445,0
2057,38468,0
2060,38496,0
2052,38456,0
2052,38448,0
2056,38481,0
2040,38473,0
2032,38474,0
2032,38479,0
2034,38466,0
2037,38458,0
2040,38475,0
2056,38467,0
2074,38449,0
2080,38466,0
2100,38476,0
2120,38475,0
2144,38457,0
2154,38477,0
2180,38476,0
2184,38481,0
2192,38453,0
2200,38487,0
2186,38459,0
2180,38446,0
2180,38510,0
2176,38475,0
2168,38468,0
2168,38483,0
2164,38478,0
2312,38475,0
2176,38445,0
2180,38492,0
2193,38450,0
2210,38465,0
2244,38500,0
2248,38465,0
2260,38467,0
2280,38484,0
2288,38493,0
2300,38468,0
2300,38444,0
2296,38481,0
2290,38445,0
2272,38493,0
2256,38492,0
2224,38466,0
2208,38476,0
2200,38487,0
2180,38504,0
2176,38464,0
2178,38456,0
2184,38486,0
2194,38481,0
2218,38479,0
2224,38497,0
2252,38469,0
2268,38461,0
2288,38491,0
2304,38503,0
2304,38467,0
2304,38454,0
2300,38494,0
2292,38481,0
2288,38477,0
2272,38492,0
2264,38476,0
2244,38480,0
2240,38480,0
2240,38500,0
2232,38471,0
2232,38451,0
2236,38499,0
2252,38485,0
2256,38475,0
2272,38475,0
2288,38470,0
2296,38504,0
2304,38488,0
2304,38477,0
2304,38478,0
2292,38503,0
2280,38499,0
2272,38475,0
2256,38502,0
2242,38481,0
2228,38475,0
2216,38485,0
2208,38507,0
2214,38481,0
2202,38463,0
2216,38516,0
2224,38489,0
2320,38487,0
2250,38501,0
2248,38486,0
2288,38502,0
2309,38494,0
2324,38506,0
2336,38478,0
2348,38461,0
2340,38527,0
2341,38479,0
2344,38477,0
2336,38497,0
2330,38485,0
2314,38505,0
2304,38494,0
2292,38464,0
2280,38474,0
2272,38511,0
2272,38486,0
2280,38488,0
2288,38497,0
2304,38503,0
2312,38495,0
2336,38472,0
2472,38513,0
2352,38481,0
2354,38493,0
2360,38528,0
2360,38497,0
2340,38496,0
2336,38484,0
2324,38527,0
2312,38509,0
2304,38475,0
2290,38517,0
2276,38487,0
2272,38505,0
2274,38515,0
2276,38498,0
2282,38486,0
2296,38505,0
2308,38514,0
2320,38504,0
2338,38502,0
2354,38521,0
2364,38492,0
2356,38514,0
2352,38506,0
2336,38478,0
2320,38501,0
2320,38511,0
2288,38513,0
2272,38502,0
2248,38525,0
2240,38488,0
2224,38502,0
2224,38526,0
2216,38496,0
2220,38491,0
2226,38517,0
2240,38516,0
2264,38502,0
2272,38520,0
2284,38510,0
2304,38506,0
2312,38500,0
2328,38543,0
2325,38503,0
2324,38492,0
2308,38535,0
2306,38513,0
2290,38505,0
2280,38521,0
2280,38510,0
2252,38517,0
2251,38481,0
2256,38517,0
2248,38496,0
2252,38499,0
2264,38501,0
2274,38510,0
2288,38500,0
2304,38506,0
2320,38506,0
2344,38490,0
2346,38521,0
2352,38490,0
2356,38485,0
2348,38532,0
2344,38499,0
2336,38492,0
2320,38514,0
2312,38508,0
2312,38515,0
2288,38479,0
2280,38523,0
2272,38484,0
2280,38491,0
2288,38525,0
2304,38490,0
2304,38491,0
2316,38488,0
2328,38527,0
2344,38501,0
2368,38483,0
2368,38507,0
2376,38478,0
2378,38504,0
2384,38523,0
2368,38491,0
2352,38495,0
2456,38470,0
2312,38515,0
2292,38488,0
2276,38479,0
2256,38477,0
2244,38506,0
2248,38501,0
2244,38481,0
2256,38463,0
2260,38491,0
2280,38491,0
2296,38474,0
2305,38504,0
2324,38465,0
2336,38478,0
2348,38513,0
2346,38485,0
2344,38473,0
2340,38456,0
2336,38492,0
2320,38477,0
2308,38452,0
2296,38487,0
2280,38460,0
2272,38477,0
2264,38500,0
2268,38478,0
2266,38468,0
2276,38425,0
2289,38496,0
2304,38466,0
2312,38460,0
2324,38473,0
2328,38471,0
2344,38463,0
2336,38486,0
2340,38452,0
2336,38458,0
2312,38484,0
2298,38484,0
2282,38458,0
2264,38445,0
2256,38461,0
2240,38462,0
2240,38451,0
2240,38467,0
2258,38436,0
2256,38451,0
2276,38475,0
2288,38455,0
2312,38450,0
2340,38447,0
2352,38472,0
2384,38454,0
2384,38433,0
2392,38462,0
2400,38426,0
2388,38446,0
2384,38469,0
2368,38447,0
2356,38433,0
2346,38439,0
2314,38418,0
2320,38467,0
2298,38436,0
2292,38425,0
2292,38432,0
2304,38469,0
2312,38445,0
2320,38420,0
2336,38452,0
2344,38432,0
2352,38445,0
2360,38453,0
2372,38414,0
2360,38423,0
2352,38461,0
2344,38449,0
2328,38432,0
2320,38410,0
2300,38446,0
2292,38442,0
2284,38425,0
2264,38440,0
2256,38421,0
2248,38420,0
2256,38465,0
2264,38441,0
2276,38434,0
2282,38426,0
2288,38439,0
2320,38438,0
2320,38419,0
2320,38459,0
2328,38418,0
2312,38435,0
2304,38447,0
2288,38450,0
2265,38427,0
2248,38447,0
2228,38448,0
2216,38437,0
2204,38419,0
2192,38456,0
2196,38419,0
2202,38428,0
2208,38449,0
2216,38425,0
2234,38425,0
2252,38441,0
2264,38464,0
2296,38424,0
2288,38402,0
2320,38432,0
2320,38442,0
2336,38436,0
2321,38454,0
2312,38424,0
2304,38425,0
2296,38434,0
2282,38455,0
2272,38426,0
2256,38411,0
2260,38449,0
2256,38431,0
2250,38425,0
2258,38407,0
2272,38429,0
2276,38455,0
2292,38448,0
2304,38434,0
2312,38449,0
2336,38418,0
2322,38426,0
2332,38444,0
2314,38417,0
2308,38429,0
2293,38419,0
2288,38460,0
2276,38439,0
2264,38416,0
2264,38440,0
2240,38424,0
2240,38444,0
2226,38450,0
2232,38429,0
2244,38414,0
2250,38446,0
2264,38451,0
2293,38426,0
2304,38399,0
2312,38435,0
2336,38433,0
2336,38433,0
2356,38446,0
2344,38430,0
2338,38417,0
2332,38415,0
2336,38423,0
2304,38425,0
2300,38435,0
2271,38453,0
2240,38430,0
2232,38409,0
2248,38440,0
2236,38413,0
2249,38434,0
2248,38446,0
2272,38434,0
2280,38422,0
2312,38400,0
2312,38453,0
2328,38426,0
2336,38409,0
2340,38444,0
2336,38423,0
2320,38442,0
2312,38436,0
2312,38440,0
2288,38416,0
2276,38409,0
2268,38452,0
2256,38425,0
2250,38423,0
2260,38430,0
2256,38458,0
2264,38431,0
2282,38405,0
2288,38439,0
2294,38413,0
2308,38420,0
2328,38421,0
2328,38418,0
2328,38443,0
2328,38418,0
2312,38456,0
2304,38423,0
2290,38420,0
2274,38439,0
2280,38432,0
2250,38425,0
2232,38404,0
2228,38445,0
2224,38409,0
2212,38430,0
2224,38442,0
2228,38417,0
2240,38424,0
2256,38424,0
2276,38455,0
2292,38417,0
2312,38394,0
2336,38433,0
2336,38417,0
2344,38438,0
2348,38452,0
2336,38416,0
2328,38409,0
2322,38431,0
2309,38456,0
2300,38419,0
2288,38400,0
2288,38427,0
2266,38450,0
2272,38423,0
2268,38417,0
2276,38411,0
2300,38422,0
2304,38446,0
2320,38442,0
2330,38426,0
2336,38400,0
2356,38438,0
2356,38437,0
2352,38412,0
2352,38432,0
2340,38417,0
2332,38433,0
2324,38450,0
2304,38423,0
2289,38417,0
2276,38409,0
2264,38455,0
2260,38417,0
2264,38411,0
2272,38433,0
2276,38428,0
2292,38443,0
2304,38449,0
2312,38425,0
2322,38423,0
2336,38437,0
2346,38455,0
2352,38426,0
2346,38418,0
2328,38430,0
2312,38434,0
2303,38447,0
2272,38466,0
2256,38418,0
2248,38415,0
2226,38438,0
2218,38456,0
2220,38424,0
2212,38395,0
2218,38442,0
2224,38427,0
2240,38435,0
2256,38448,0
2280,38410,0
2292,38426,0
2312,38439,0
2322,38445,0
2328,38413,0
2336,38403,0
2337,38458,0
2336,38423,0
2322,38422,0
2304,38447,0
2304,38421,0
2292,38432,0
2280,38418,0
2272,38442,0
2272,38419,0
2268,38415,0
2272,38460,0
2280,38419,0
2288,38443,0
2300,38429,0
2314,38447,0
2320,38428,0
2328,38421,0
2352,38439,0
2336,38421,0
2320,38436,0
2252,38419,0
2288,38450,0
2284,38422,0
2272,38398,0
2256,38461,0
2240,38410,0
2226,38427,0
2218,38442,0
2216,38429,0
2212,38439,0
2220,38413,0
2240,38443,0
2240,38411,0
2249,38423,0
2272,38466,0
2274,38434,0
2288,38421,0
2304,38446,0
2312,38442,0
2296,38426,0
2300,38428,0
2288,38440,0
2264,38423,0
2248,38439,0
2224,38449,0
2208,38436,0
2196,38417,0
2196,38432,0
2184,38413,0
2178,38450,0
2192,38415,0
2208,38408,0
2204,38452,0
2216,38425,0
2228,38429,0
2248,38439,0
2248,38444,0
2248,38434,0
2242,38415,0
2236,38443,0
2224,38408,0
2212,38418,0
2200,38468,0
2182,38431,0
2164,38413,0
2160,38397,0
2132,38453,0
2132,38437,0
2128,38416,0
2124,38448,0
2124,38413,0
2144,38434,0
2150,38446,0
2160,38427,0
2168,38415,0
2164,38439,0
2160,38452,0
2168,38422,0
2144,38439,0
2120,38412,0
2098,38448,0
2088,38435,0
2064,38414,0
2050,38440,0
2034,38411,0
2016,38437,0
2004,38445,0
1996,38437,0
2000,38415,0
2008,38407,0
2008,38459,0
2032,38427,0
2032,38418,0
2044,38447,0
2064,38417,0
2080,38446,0
2080,38449,0
2084,38427,0
2084,38419,0
2066,38414,0
2064,38466,0
2052,38419,0
2048,38414,0
2032,38433,0
2018,38423,0
2016,38424,0
2000,38415,0
1996,38435,0
2000,38424,0
2000,38452,0
1996,38433,0
2008,38434,0
2020,38404,0
2024,38399,0
2032,38453,0
2036,38404,0
2032,38428,0
2032,38424,0
2024,38435,0
2016,38431,0
2000,38419,0
1984,38439,0
1968,38410,0
1945,38432,0
1940,38449,0
1920,38414,0
1908,38413,0
1908,38438,0
1904,38465,0
1912,38423,0
1920,38406,0
1937,38441,0
1940,38414,0
1944,38440,0
1960,38447,0
1976,38438,0
1988,38409,0
1982,38430,0
1972,38426,0
1956,38445,0
1936,38428,0
1920,38423,0
1890,38436,0
1872,38420,0
1848,38431,0
1828,38450,0
1826,38432,0
1824,38443,0
1824,38403,0
1832,38446,0
1836,38415,0
1850,38422,0
1868,38457,0
1884,38436,0
1892,38425,0
1912,38431,0
1920,38458,0
1916,38438,0
1920,38413,0
1908,38438,0
1896,38429,0
1888,38448,0
1866,38452,0
1868,38421,0
1850,38431,0
1836,38439,0
1832,38465,0
1828,38422,0
1834,38412,0
1834,38441,0
1850,38452,0
1856,38444,0
1848,38421,0
1864,38419,0
1864,38425,0
1865,38454,0
1868,38457,0
1864,38433,0
1856,38402,0
1840,38436,0
1820,38439,0
1812,38437,0
1792,38451,0
1786,38438,0
1772,38428,0
1760,38415,0
1752,38454,0
1768,38424,0
1752,38414,0
1756,38455,0
1760,38443,0
1777,38420,0
1781,38419,0
1794,38446,0
1812,38437,0
1816,38439,0
1828,38450,0
1828,38419,0
1832,38429,0
1818,38463,0
1816,38451,0
1788,38430,0
1784,38447,0
1764,38453,0
1744,38437,0
1740,38450,0
1720,38438,0
1716,38434,0
1715,38447,0
1721,38440,0
1728,38456,0
1728,38435,0
1740,38409,0
1746,38471,0
1752,38438,0
1760,38424,0
1748,38461,0
1740,38437,0
1730,38453,0
1720,38444,0
1696,38469,0
1672,38428,0
1644,38430,0
1632,38463,0
1600,38441,0
1580,38441,0
1564,38446,0
1549,38457,0
1552,38444,0
1537,38422,0
1536,38453,0
1548,38427,0
1552,38450,0
1538,38466,0
1544,38452,0
1538,38444,0
1508,38438,0
1506,38457,0
1480,38457,0
1457,38426,0
1424,38458,0
1408,38454,0
1372,38438,0
1340,38458,0
1320,38432,0
1304,38425,0
1286,38469,0
1273,38451,0
1274,38439,0
1264,38421,0
1270,38458,0
1272,38441,0
1272,38423,0
1282,38460,0
1268,38425,0
1286,38441,0
1268,38475,0
1273,38444,0
1264,38440,0
1240,38421,0
1232,38484,0
1210,38453,0
1192,38433,0
1172,38465,0
1139,38424,0
1118,38460,0
1096,38462,0
1084,38454,0
1075,38432,0
1057,38445,0
1056,38475,0
1058,38440,0
1062,38439,0
1065,38448,0
1061,38450,0
1056,38453,0
1040,38456,0
1028,38461,0
1008,38431,0
992,38432,0
966,38477,0
942,38439,0
932,38439,0
900,38454,0
872,38452,0
856,38447,0
842,38445,0
819,38464,0
810,38446,0
818,38445,0
819,38467,0
832,38445,0
832,38443,0
818,38478,0
833,38464,0
840,38449,0
836,38455,0
820,38458,0
804,38445,0
781,38480,0
760,38451,0
728,38461,0
704,38445,0
680,38468,0
646,38469,0
640,38448,0
624,38428,0
610,38464,0
614,38460,0
618,38455,0
624,38457,0
632,38434,0
640,38455,0
652,38466,0
662,38474,0
664,38438,0
661,38419,0
652,38483,0
636,38460,0
622,38459,0
614,38467,0
598,38447,0
587,38474,0
576,38459,0
563,38468,0
557,38446,0
568,38442,0
568,38490,0
585,38446,0
589,38458,0
597,38448,0
738,38461,0
616,38448,0
619,38449,0
629,38441,0
616,38454,0
620,38468,0
596,38455,0
592,38473,0
576,38457,0
556,38440,0
550,38474,0
538,38487,0
534,38450,0
520,38437,0
528,38479,0
526,38454,0
521,38463,0
536,38473,0
548,38444,0
562,38465,0
580,38452,0
610,38482,0
612,38454,0
624,38442,0
648,38494,0
640,38457,0
650,38459,0
652,38471,0
652,38463,0
632,38473,0
624,38506,0
629,38451,0
610,38446,0
609,38457,0
612,38478,0
614,38459,0
625,38457,0
654,38481,0
664,38468,0
676,38468,0
700,38492,0
712,38469,0
728,38453,0
734,38476,0
740,38505,0
739,38459,0
743,38449,0
731,38480,0
710,38476,0
704,38464,0
693,38480,0
680,38463,0
673,38461,0
672,38472,0
668,38480,0
672,38457,0
680,38448,0
691,38497,0
716,38468,0
744,38471,0
740,38471,0
740,38474,0
774,38506,0
760,38490,0
760,38455,0
752,38487,0
741,38487,0
728,38491,0
714,38480,0
704,38471,0
704,38491,0
688,38471,0
688,38457,0
696,38490,0
714,38473,0
732,38460,0
752,38506,0
793,38483,0
837,38469,0
866,38454,0
908,38492,0
961,38475,0
1013,38464,0
1072,38491,0
1128,38454,0
1176,38469,0
1237,38509,0
1280,38489,0
1328,38466,0
1368,38447,0
1436,38494,0
1480,38472,0
1536,38460,0
1588,38498,0
1628,38454,0
1688,38487,0
1728,38491,0
1768,38471,0
1794,38471,0
1821,38485,0
1824,38485,0
1828,38485,0
1825,38488,0
1808,38477,0
1794,38466,0
1762,38466,0
1720,38488,0
1684,38469,0
1624,38458,0
1576,38505,0
1532,38482,0
1480,38473,0
1440,38486,0
1400,38475,0
1376,38486,0
1348,38471,0
1337,38493,0
1328,38457,0
1317,38461,0
1304,38517,0
1308,38466,0
1304,38478,0
1304,38486,0
1296,38475,0
1278,38487,0
1260,38495,0
1236,38501,0
1224,38474,0
1188,38500,0
1170,38493,0
1136,38468,0
1114,38464,0
1089,38490,0
1081,38490,0
1080,38473,0
1080,38502,0
1084,38471,0
1098,38481,0
1120,38517,0
1132,38483,0
1162,38475,0
1184,38469,0
1208,38512,0
1220,38477,0
1218,38467,0
1229,38501,0
1222,38464,0
1228,38494,0
1225,38501,0
1216,38485,0
1218,38479,0
1218,38497,0
1228,38513,0
1245,38482,0
1256,38458,0
1273,38506,0
1288,38482,0
1312,38500,0
1344,38480,0
1354,38473,0
1372,38478,0
1408,38520,0
1404,38468,0
1410,38471,0
1408,38498,0
1408,38480,0
1414,38501,0
1412,38482,0
1400,38507,0
1392,38477,0
1388,38459,0
1386,38524,0
1392,38489,0
1398,38477,0
1552,38500,0
1436,38490,0
1448,38497,0
1476,38504,0
1490,38487,0
1516,38483,0
1544,38504,0
1568,38510,0
1592,38489,0
1610,38470,0
1625,38498,0
1632,38498,0
1644,38479,0
1654,38502,0
1654,38478,0
1636,38482,0
1634,38515,0
1634,38483,0
1624,38503,0
1620,38484,0
1628,38511,0
1648,38498,0
1648,38493,0
1664,38513,0
1686,38481,0
1704,38482,0
1764,38517,0
1752,38475,0
1780,38481,0
1784,38506,0
1785,38516,0
1786,38493,0
1786,38475,0
1786,38494,0
1776,38491,0
1772,38490,0
1764,38513,0
1762,38480,0
1760,38482,0
1766,38520,0
1776,38492,0
1800,38497,0
1808,38498,0
1824,38510,0
1850,38494,0
1880,38478,0
1894,38503,0
1905,38484,0
1920,38510,0
1922,38523,0
1921,38478,0
1920,38497,0
1906,38521,0
1892,38491,0
1880,38509,0
1880,38522,0
1860,38487,0
1864,38489,0
1868,38517,0
1864,38537,0
1880,38492,0
1896,38474,0
1920,38507,0
1936,38515,0
1968,38507,0
1992,38518,0
2012,38492,0
2036,38498,0
2048,38537,0
2056,38514,0
2069,38497,0
2069,38491,0
2064,38529,0
2074,38511,0
2068,38485,0
2065,38518,0
2056,38494,0
2056,38514,0
2060,38531,0
2058,38508,0
2064,38493,0
2074,38501,0
2092,38522,0
2112,38522,0
2120,38504,0
2148,38525,0
2176,38505,0
2320,38522,0
2202,38512,0
2202,38529,0
2200,38502,0
2192,38495,0
2188,38536,0
2170,38501,0
2164,38503,0
2154,38520,0
2144,38517,0
2136,38513,0
2144,38512,0
2100,38528,0
2148,38498,0
2156,38507,0
2180,38525,0
2196,38520,0
2216,38505,0
2232,38529,0
2258,38517,0
2272,38514,0
2284,38529,0
2294,38504,0
2288,38523,0
2272,38509,0
2256,38523,0
2234,38505,0
2232,38487,0
2208,38526,0
2192,38539,0
2192,38518,0
2184,38500,0
2178,38506,0
2192,38553,0
2208,38519,0
2224,38485,0
2240,38523,0
2256,38513,0
2284,38520,0
2296,38525,0
2304,38509,0
2312,38499,0
2320,38547,0
2304,38522,0
2296,38509,0
2280,38517,0
2272,38513,0
2258,38532,0
2261,38500,0
2248,38541,0
2240,38509,0
2233,38509,0
2244,38545,0
2260,38517,0
2264,38516,0
2280,38519,0
2296,38482,0
2304,38524,0
2308,38511,0
2320,38533,0
2324,38528,0
2320,38543,0
2320,38523,0
2296,38510,0
2288,38508,0
2272,38533,0
2260,38521,0
2256,38502,0
2240,38516,0
2240,38501,0
2248,38502,0
2244,38538,0
2264,38506,0
2268,38500,0
2304,38495,0
2312,38536,0
2336,38517,0
2348,38490,0
2372,38528,0
2380,38495,0
2393,38514,0
2404,38533,0
2400,38508,0
2408,38499,0
2392,38485,0
2394,38539,0
2378,38501,0
2374,38487,0
2372,38482,0
2354,38526,0
2344,38508,0
2368,38491,0
2360,38507,0
2368,38495,0
2380,38511,0
2408,38525,0
2408,38487,0
2424,38468,0
2444,38504,0
2452,38497,0
2464,38487,0
2450,38508,0
2440,38485,0
2432,38476,0
2424,38510,0
2404,38507,0
2392,38479,0
2388,38452,0
2368,38508,0
2368,38489,0
2362,38473,0
2360,38494,0
2356,38459,0
2372,38498,0
2378,38495,0
2392,38501,0
2408,38472,0
2416,38461,0
2432,38502,0
2436,38474,0
2436,38461,0
2432,38470,0
2428,38499,0
2416,38495,0
2384,38467,0
2364,38467,0
2342,38461,0
2322,38487,0
2314,38505,0
2304,38467,0
2296,38448,0
2304,38476,0
2308,38483,0
2322,38467,0
2336,38494,0
2352,38465,0
2372,38457,0
2392,38503,0
2416,38486,0
2416,38470,0
2432,38456,0
2432,38494,0
2432,38470,0
2416,38444,0
2408,38475,0
2392,38450,0
2384,38463,0
2372,38491,0
2360,38470,0
2346,38459,0
2354,38450,0
2348,38492,0
2352,38476,0
2360,38474,0
2372,38455,0
2384,38454,0
2392,38470,0
2408,38451,0
2432,38482,0
2424,38454,0
2432,38441,0
2432,38499,0
2420,38463,0
2416,38463,0
2408,38475,0
2388,38471,0
2376,38463,0
2368,38451,0
2360,38488,0
2352,38455,0
2348,38457,0
2360,38479,0
2368,38463,0
2384,38457,0
2400,38479,0
2416,38466,0
2440,38459,0
2456,38482,0
2473,38471,0
2488,38460,0
2496,38448,0
2500,38481,0
2496,38456,0
2482,38446,0
2480,38462,0
2456,38491,0
2432,38467,0
2413,38450,0
2388,38471,0
2384,38461,0
2368,38482,0
2368,38453,0
2380,38445,0
2378,38479,0
2404,38458,0
2416,38464,0
2432,38480,0
2452,38471,0
2458,38473,0
2472,38450,0
2472,38477,0
2480,38454,0
2468,38428,0
2472,38498,0
2452,38451,0
2448,38455,0
2436,38473,0
2432,38462,0
2412,38470,0
2409,38443,0
2408,38477,0
2412,38441,0
2416,38451,0
2420,38487,0
2442,38455,0
2453,38460,0
2468,38458,0
2472,38476,0
2482,38449,0
2480,38448,0
2472,38465,0
2480,38451,0
2464,38469,0
2444,38452,0
2432,38486,0
2408,38448,0
2404,38441,0
2394,38487,0
2384,38457,0
2384,38456,0
2380,38476,0
2388,38469,0
2402,38475,0
2424,38447,0
2432,38477,0
2448,38443,0
2468,38456,0
2484,38477,0
2504,38450,0
2520,38450,0
2528,38462,0
2536,38486,0
2532,38457,0
2520,38431,0
2520,38478,0
2508,38451,0
2500,38460,0
2490,38476,0
2484,38449,0
2476,38441,0
2472,38488,0
2476,38474,0
2480,38453,0
2496,38439,0
2512,38466,0
2522,38470,0
2536,38460,0
2552,38469,0
2564,38471,0
2568,38441,0
2704,38451,0
2560,38467,0
2556,38447,0
2536,38437,0
2536,38474,0
2512,38465,0
2496,38462,0
2480,38475,0
2480,38455,0
2468,38463,0
2464,38449,0
2464,38470,0
2468,38444,0
2480,38435,0
2489,38483,0
2516,38450,0
2528,38447,0
2537,38467,0
2544,38468,0
2542,38464,0
2545,38473,0
2538,38443,0
2528,38447,0
2511,38468,0
2484,38452,0
2466,38473,0
2452,38445,0
2432,38437,0
2416,38483,0
2408,38448,0
2408,38445,0
2416,38470,0
2432,38455,0
2444,38461,0
2464,38455,0
2480,38474,0
2500,38442,0
2520,38435,0
2536,38496,0
2552,38447,0
2548,38448,0
2560,38463,0
2552,38476,0
2538,38456,0
2532,38441,0
2520,38469,0
2516,38440,0
2500,38454,0
2496,38480,0
2480,38449,0
2480,38452,0
2490,38447,0
2496,38492,0
2512,38441,0
2524,38466,0
2536,38461,0
2544,38473,0
2552,38468,0
2553,38451,0
2560,38441,0
2556,38472,0
2544,38467,0
2532,38447,0
2516,38473,0
2512,38455,0
2496,38439,0
2480,38489,0
2472,38452,0
2468,38452,0
2480,38452,0
2480,38471,0
2496,38469,0
2504,38441,0
2520,38477,0
2532,38440,0
2549,38457,0
2564,38483,0
2578,38448,0
2584,38452,0
2588,38443,0
2592,38484,0
2586,38448,0
2572,38447,0
2546,38459,0
2536,38449,0
2512,38477,0
2506,38459,0
2484,38447,0
2472,38433,0
2468,38468,0
2480,38460,0
2480,38453,0
2489,38474,0
2512,38452,0
2520,38468,0
2536,38455,0
2552,38473,0
2569,38451,0
2576,38437,0
2576,38497,0
2586,38465,0
2568,38465,0
2564,38465,0
2560,38465,0
2544,38466,0
2532,38441,0
2522,38473,0
2512,38454,0
2506,38461,0
2506,38480,0
2504,38461,0
2520,38452,0
2528,38467,0
2544,38469,0
2544,38474,0
2568,38459,0
2576,38456,0
2580,38448,0
2580,38501,0
2568,38475,0
2564,38489,0
2560,38446,0
2536,38439,0
2516,38492,0
2512,38454,0
2484,38457,0
2476,38464,0
2472,38460,0
2472,38470,0
2472,38466,0
2472,38475,0
2496,38447,0
2506,38449,0
2520,38472,0
2544,38449,0
2576,38453,0
2584,38472,0
2608,38467,0
2608,38460,0
2616,38487,0
2625,38462,0
2616,38454,0
2608,38462,0
2592,38490,0
2586,38458,0
2580,38440,0
2556,38480,0
2552,38464,0
2548,38473,0
2556,38455,0
2548,38457,0
2544,38498,0
2556,38449,0
2584,38473,0
2584,38448,0
2596,38455,0
2616,38492,0
2624,38479,0
2624,38465,0
2632,38453,0
2624,38486,0
2616,38471,0
2602,38440,0
2586,38476,0
2584,38451,0
2560,38467,0
2564,38483,0
2548,38467,0
2544,38461,0
2546,38440,0
2562,38489,0
2562,38454,0
2580,38447,0
2594,38483,0
2612,38447,0
2624,38470,0
2632,38479,0
2640,38455,0
2628,38449,0
2632,38462,0
2624,38474,0
2596,38484,0
2584,38447,0
2560,38463,0
2544,38471,0
2528,38449,0
2504,38479,0
2496,38454,0
2488,38451,0
2496,38486,0
2508,38453,0
2512,38453,0
2536,38472,0
2552,38463,0
2576,38471,0
2592,38448,0
2610,38479,0
2628,38444,0
2632,38449,0
2632,38481,0
2633,38456,0
2632,38469,0
2624,38477,0
2608,38462,0
2600,38461,0
2592,38467,0
2576,38483,0
2554,38452,0
2560,38459,0
2564,38493,0
2560,38460,0
2584,38423,0
2584,38453,0
2592,38480,0
2616,38485,0
2600,38455,0
2608,38478,0
2616,38465,0
2612,38448,0
2608,38481,0
2597,38452,0
2584,38457,0
2580,38492,0
2564,38463,0
2552,38462,0
2552,38467,0
2532,38476,0
2528,38475,0
2540,38437,0
2536,38483,0
2544,38448,0
2576,38474,0
2584,38489,0
2600,38468,0
2624,38458,0
2636,38466,0
2664,38500,0
2672,38473,0
2672,38457,0
2672,38481,0
2672,38451,0
2668,38472,0
2645,38491,0
2648,38471,0
2624,38468,0
2610,38468,0
2600,38477,0
2580,38473,0
2584,38462,0
2580,38474,0
2576,38474,0
2596,38471,0
2608,38479,0
2616,38489,0
2632,38451,0
2644,38471,0
2656,38492,0
2672,38469,0
2664,38461,0
2656,38484,0
2660,38472,0
2640,38475,0
2632,38475,0
2624,38484,0
2616,38476,0
2608,38458,0
2594,38493,0
2584,38469,0
2584,38456,0
2596,38498,0
2600,38491,0
2604,38475,0
2616,38466,0
2630,38492,0
2632,38485,0
2656,38488,0
2660,38484,0
2656,38474,0
2656,38493,0
2640,38517,0
2632,38477,0
2624,38464,0
2596,38466,0
2584,38513,0
2564,38483,0
2560,38463,0
2552,38490,0
2552,38466,0
2544,38483,0
2554,38503,0
2564,38476,0
2584,38474,0
2596,38459,0
2624,38518,0
2632,38476,0
2656,38474,0
2672,38493,0
2688,38478,0
2692,38488,0
2704,38499,0
2688,38481,0
2688,38472,0
2664,38475,0
2644,38507,0
2642,38472,0
2624,38474,0
2608,38495,0
2608,38474,0
2616,38461,0
2604,38473,0
2612,38488,0
2616,38481,0
2636,38478,0
2648,38496,0
2656,38469,0
2672,38472,0
2682,38501,0
2688,38485,0
2688,38482,0
2680,38493,0
2672,38502,0
2658,38478,0
2648,38467,0
2632,38509,0
2624,38470,0
2608,38465,0
2592,38507,0
2608,38482,0
2601,38486,0
2608,38488,0
2609,38502,0
2624,38491,0
2640,38465,0
2664,38500,0
2672,38464,0
2680,38484,0
2700,38512,0
2704,38475,0
2700,38496,0
2688,38483,0
2666,38493,0
2648,38504,0
2624,38499,0
2600,38493,0
2586,38501,0
2570,38505,0
2472,38473,0
2562,38508,0
2564,38468,0
2580,38481,0
2592,38521,0
2608,38480,0
2628,38481,0
2644,38485,0
2664,38496,0
2680,38488,0
2696,38458,0
2696,38495,0
2708,38468,0
2700,38488,0
2688,38513,0
2688,38476,0
2664,38478,0
2656,38488,0
2640,38522,0
2626,38488,0
2624,38466,0
2618,38505,0
2612,38490,0
2624,38501,0
2640,38500,0
2632,38476,0
2640,38498,0
2668,38494,0
2672,38508,0
2680,38478,0
2680,38484,0
2672,38496,0
2656,38501,0
2640,38492,0
2640,38493,0
2624,38507,0
2608,38484,0
2596,38487,0
2578,38509,0
2568,38486,0
2564,38478,0
2576,38517,0
2584,38499,0
2592,38486,0
2624,38496,0
2632,38503,0
2648,38505,0
2672,38486,0
2688,38514,0
2696,38488,0
2704,38487,0
2714,38533,0
2704,38509,0
2700,38496,0
2688,38492,0
2676,38512,0
2656,38500,0
2632,38490,0
2624,38492,0
2604,38484,0
2592,38493,0
2600,38528,0
2600,38511,0
2608,38495,0
2626,38472,0
2632,38528,0
2648,38500,0
2664,38490,0
2696,38517,0
2688,38476,0
2696,38516,0
2698,38518,0
2704,38512,0
2688,38482,0
2674,38486,0
2668,38538,0
2664,38490,0
2648,38486,0
2640,38504,0
2632,38506,0
2640,38509,0
2632,38517,0
2632,38501,0
2640,38496,0
2656,38509,0
2656,38527,0
2676,38491,0
2682,38471,0
2696,38503,0
2688,38521,0
2696,38503,0
2680,38525,0
2672,38506,0
2652,38515,0
2640,38516,0
2616,38522,0
2610,38491,0
2592,38475,0
2584,38529,0
2584,38509,0
2576,38488,0
2580,38525,0
2592,38490,0
2608,38520,0
2624,38521,0
2642,38515,0
2656,38499,0
2680,38493,0
2696,38538,0
2712,38497,0
2720,38495,0
2721,38507,0
2724,38506,0
2712,38519,0
2697,38517,0
2688,38507,0
2688,38497,0
2652,38503,0
2640,38530,0
2632,38499,0
2632,38500,0
2624,38511,0
2624,38526,0
2624,38510,0
2632,38503,0
2644,38525,0
2656,38502,0
2664,38498,0
2680,38529,0
2672,38502,0
2672,38500,0
2674,38540,0
2664,38518,0
2656,38507,0
2640,38524,0
2628,38508,0
2644,38529,0
2624,38531,0
2616,38514,0
2616,38510,0
2640,38494,0
2656,38541,0
2676,38506,0
2704,38488,0
2740,38523,0
2784,38500,0
2832,38515,0
2888,38522,0
2936,38509,0
2986,38497,0
3024,38526,0
3050,38539,0
3082,38522,0
3106,38507,0
3136,38522,0
3160,38553,0
3184,38493,0
3200,38522,0
3232,38501,0
3240,38485,0
3264,38541,0
3280,38512,0
3284,38497,0
3288,38531,0
3272,38508,0
3268,38517,0
3232,38546,0
3216,38517,0
3172,38504,0
3128,38516,0
3080,38536,0
3028,38503,0
2976,38508,0
2904,38523,0
2826,38520,0
2768,38515,0
2688,38526,0
2628,38509,0
2572,38518,0
2530,38518,0
2496,38539,0
2464,38511,0
2448,38491,0
2433,38547,0
2432,38530,0
2434,38525,0
2432,38523,0
2436,38511,0
2440,38554,0
2448,38538,0
2448,38514,0
2432,38515,0
2424,38519,0
2416,38553,0
2408,38512,0
2416,38504,0
2412,38535,0
2408,38522,0
2416,38529,0
2410,38532,0
2432,38524,0
2432,38497,0
2448,38543,0
2480,38551,0
2500,38515,0
2528,38498,0
2548,38532,0
2570,38536,0
2592,38536,0
2608,38537,0
2624,38508,0
2624,38513,0
2624,38530,0
2628,38551,0
2619,38525,0
2604,38496,0
2602,38534,0
2592,38533,0
2580,38520,0
2584,38515,0
2568,38520,0
2584,38531,0
2592,38543,0
2600,38534,0
2612,38514,0
2612,38514,0
2624,38566,0
2650,38531,0
2668,38527,0
2674,38537,0
2674,38520,0
2676,38534,0
2680,38532,0
2668,38537,0
2644,38506,0
2644,38517,0
2628,38554,0
2628,38517,0
2624,38513,0
2608,38541,0
2612,38536,0
2612,38532,0
2624,38550,0
2640,38531,0
2648,38527,0
2656,38543,0
2672,38560,0
2682,38533,0
2692,38527,0
2688,38528,0
2676,38551,0
2680,38524,0
2664,38529,0
2633,38519,0
2624,38538,0
2608,38560,0
2584,38521,0
2568,38514,0
2560,38538,0
2556,38541,0
2552,38526,0
2680,38544,0
2576,38538,0
2592,38535,0
2608,38519,0
2624,38553,0
2640,38527,0
2664,38513,0
2688,38558,0
2696,38545,0
2690,38531,0
2696,38520,0
2688,38540,0
2688,38540,0
2672,38526,0
2668,38547,0
2640,38514,0
2628,38520,0
2628,38572,0
2616,38541,0
2616,38523,0
2616,38543,0
2628,38523,0
2634,38554,0
2648,38517,0
2664,38551,0
2680,38522,0
2692,38539,0
2704,38573,0
2712,38534,0
2716,38531,0
2708,38525,0
2704,38561,0
2688,38527,0
2672,38525,0
2660,38550,0
2648,38524,0
2644,38549,0
2628,38557,0
2624,38531,0
2632,38532,0
2633,38533,0
2649,38573,0
2656,38535,0
2672,38525,0
2692,38548,0
2692,38542,0
2708,38542,0
2712,38557,0
2724,38521,0
2720,38535,0
2696,38559,0
2676,38544,0
2656,38547,0
2640,38545,0
2616,38542,0
2592,38572,0
2584,38539,0
2576,38522,0
2576,38550,0
2584,38544,0
2592,38544,0
2600,38563,0
2616,38539,0
2640,38542,0
2648,38576,0
2672,38557,0
2680,38545,0
2688,38541,0
2690,38565,0
2692,38557,0
2692,38538,0
2676,38567,0
2674,38540,0
2664,38559,0
2648,38574,0
2632,38555,0
2624,38539,0
2616,38536,0
2616,38585,0
2620,38558,0
2640,38531,0
2640,38566,0
2664,38559,0
2672,38563,0
2684,38562,0
2684,38537,0
2808,38551,0
2688,38569,0
2688,38562,0
2672,38563,0
2660,38573,0
2648,38556,0
2632,38561,0
2616,38582,0
2616,38573,0
2596,38557,0
2592,38531,0
2592,38596,0
2592,38566,0
2600,38549,0
2612,38568,0
2628,38550,0
2644,38577,0
2660,38585,0
2676,38561,0
2692,38560,0
2704,38554,0
2720,38604,0
2720,38559,0
2728,38546,0
2712,38576,0
2708,38561,0
2696,38563,0
2680,38581,0
2672,38563,0
2656,38542,0
2652,38560,0
2648,38579,0
2640,38585,0
2644,38565,0
2656,38571,0
2668,38573,0
2688,38563,0
2696,38552,0
2720,38576,0
2736,38554,0
2736,38553,0
2736,38578,0
2744,38549,0
2732,38561,0
2724,38590,0
2720,38571,0
2704,38557,0
2692,38554,0
2688,38577,0
2676,38566,0
2672,38542,0
2656,38583,0
2660,38550,0
2664,38543,0
2666,38587,0
2676,38565,0
2688,38557,0
2696,38564,0
2716,38567,0
2720,38569,0
2728,38545,0
2720,38561,0
2712,38554,0
2696,38559,0
2676,38567,0
2656,38542,0
2636,38537,0
2624,38559,0
2616,38549,0
2596,38555,0
2584,38543,0
2592,38560,0
2602,38534,0
2608,38542,0
2624,38559,0
2636,38533,0
2656,38524,0
2680,38561,0
2688,38545,0
2704,38532,0
2720,38529,0
2722,38557,0
2720,38547,0
2720,38514,0
2712,38554,0
2700,38512,0
2696,38509,0
2676,38562,0
2652,38522,0
2650,38525,0
2640,38550,0
2633,38531,0
2640,38552,0
2640,38525,0
2656,38542,0
2672,38520,0
2688,38524,0
2692,38538,0
2712,38513,0
2712,38509,0
2728,38532,0
2720,38530,0
2724,38506,0
2712,38540,0
2704,38508,0
2688,38510,0
2674,38553,0
2672,38515,0
2640,38513,0
2628,38510,0
2624,38548,0
2624,38532,0
2624,38512,0
2624,38543,0
2634,38513,0
2656,38521,0
2664,38540,0
2664,38532,0
2688,38504,0
2692,38499,0
2688,38546,0
2688,38513,0
2690,38495,0
2680,38523,0
2672,38499,0
2648,38515,0
2624,38506,0
2608,38502,0
2584,38531,0
2572,38539,0
2552,38521,0
2552,38500,0
2552,38522,0
2560,38490,0
2568,38527,0
2592,38546,0
2596,38524,0
2608,38502,0
2628,38503,0
2640,38543,0
2648,38513,0
2664,38487,0
2660,38524,0
2660,38489,0
2666,38518,0
2648,38523,0
2640,38495,0
2636,38503,0
2624,38534,0
2612,38533,0
2602,38501,0
2592,38496,0
2600,38530,0
2600,38512,0
2624,38503,0
2624,38530,0
2640,38529,0
2648,38502,0
2656,38539,0
2672,38514,0
2660,38514,0
2656,38503,0
2648,38521,0
2632,38523,0
2624,38490,0
2604,38529,0
2596,38498,0
2578,38507,0
2568,38532,0
2560,38499,0
2576,38495,0
2568,38520,0
2576,38509,0
2588,38504,0
2516,38521,0
2624,38528,0
2648,38504,0
2624,38502,0
2668,38518,0
2688,38495,0
2696,38506,0
2704,38522,0
2698,38520,0
2696,38502,0
2681,38505,0
2668,38521,0
2664,38520,0
2636,38494,0
2632,38513,0
2616,38497,0
2608,38493,0
2608,38525,0
2624,38500,0
2628,38496,0
2640,38516,0
2648,38501,0
2672,38515,0
2676,38518,0
2696,38517,0
2704,38492,0
2712,38493,0
2712,38529,0
2716,38493,0
2712,38485,0
2696,38514,0
2688,38510,0
2672,38507,0
2656,38517,0
2648,38507,0
2640,38491,0
2624,38496,0
2626,38527,0
2632,38498,0
2636,38476,0
2642,38510,0
2656,38507,0
2656,38497,0
2672,38521,0
2684,38486,0
2677,38501,0
2676,38505,0
2660,38500,0
2648,38494,0
2651,38481,0
2612,38513,0
2596,38500,0
2584,38488,0
2568,38511,0
2556,38487,0
2544,38491,0
2548,38520,0
2548,38479,0
2568,38474,0
2568,38524,0
2580,38493,0
2600,38487,0
2624,38508,0
2640,38487,0
2656,38496,0
2672,38492,0
2688,38504,0
2690,38485,0
2688,38474,0
2688,38518,0
2672,38485,0
2664,38483,0
2648,38507,0
2644,38483,0
2624,38496,0
2613,38500,0
2608,38504,0
2602,38482,0
2624,38496,0
2640,38520,0
2644,38495,0
2640,38503,0
2664,38480,0
2674,38518,0
2680,38502,0
2688,38485,0
2810,38475,0
2696,38518,0
2692,38502,0
2676,38482,0
2656,38494,0
2648,38475,0
2632,38489,0
2624,38516,0
2624,38486,0
2608,38474,0
2608,38458,0
2616,38502,0
2612,38489,0
2628,38472,0
2644,38500,0
2656,38471,0
2664,38493,0
2676,38520,0
2692,38491,0
2688,38486,0
2692,38476,0
2688,38518,0
2682,38479,0
2672,38482,0
2644,38490,0
2640,38495,0
2612,38511,0
2600,38482,0
2592,38483,0
2592,38473,0
2592,38480,0
2592,38515,0
2596,38481,0
2608,38463,0
2624,38499,0
2644,38495,0
2666,38496,0
2672,38503,0
2680,38477,0
2688,38481,0
2688,38512,0
2676,38497,0
2664,38477,0
2672,38457,0
2656,38509,0
2648,38493,0
2624,38473,0
2613,38510,0
2600,38472,0
2600,38500,0
2600,38510,0
2592,38478,0
2604,38482,0
2616,38479,0
2632,38521,0
2648,38480,0
2649,38483,0
2664,38490,0
2672,38492,0
2664,38497,0
2660,38481,0
2656,38491,0
2632,38496,0
2612,38496,0
2600,38501,0
2584,38495,0
2572,38505,0
2560,38471,0
2552,38479,0
2552,38513,0
2556,38493,0
2576,38477,0
2584,38498,0
2608,38502,0
2624,38481,0
2632,38482,0
2656,38503,0
2674,38483,0
2690,38484,0
2692,38508,0
2694,38473,0
2688,38479,0
2688,38521,0
2664,38513,0
2656,38487,0
2640,38478,0
2624,38506,0
2612,38512,0
2608,38516,0
2600,38481,0
2608,38505,0
2604,38508,0
2616,38525,0
2628,38484,0
2640,38478,0
2652,38495,0
2664,38493,0
2672,38498,0
2680,38473,0
2692,38509,0
2688,38472,0
2684,38497,0
2668,38519,0
2650,38486,0
2640,38489,0
2640,38501,0
2616,38512,0
2616,38490,0
2604,38477,0
2608,38503,0
2596,38486,0
2616,38484,0
2616,38502,0
2632,38469,0
2648,38469,0
2648,38503,0
2676,38492,0
2676,38475,0
2672,38474,0
2672,38477,0
2656,38504,0
2640,38517,0
2616,38475,0
2608,38476,0
2576,38478,0
2568,38490,0
2544,38510,0
2532,38482,0
2520,38468,0
2528,38510,0
2530,38482,0
2548,38483,0
2546,38502,0
2570,38494,0
2586,38491,0
2612,38470,0
2624,38503,0
2640,38479,0
2644,38462,0
2656,38516,0
2657,38486,0
2664,38481,0
2656,38499,0
2640,38483,0
2628,38498,0
2624,38460,0
2602,38496,0
2586,38474,0
2586,38468,0
2584,38516,0
2580,38489,0
2592,38471,0
2600,38482,0
2608,38515,0
2624,38489,0
2616,38495,0
2632,38502,0
2644,38471,0
2640,38504,0
2640,38506,0
2632,38480,0
2632,38471,0
2616,38496,0
2612,38524,0
2593,38483,0
2592,38470,0
2576,38496,0
2568,38480,0
2564,38493,0
2560,38503,0
2576,38477,0
2584,38488,0
2608,38513,0
2624,38517,0
2626,38472,0
2640,38474,0
2656,38505,0
2672,38494,0
2676,38465,0
2676,38511,0
2676,38486,0
2666,38490,0
2648,38517,0
2644,38512,0
2624,38474,0
2612,38464,0
2596,38502,0
2584,38498,0
2584,38477,0
2580,38513,0
2576,38467,0
2596,38505,0
2592,38517,0
2604,38481,0
2624,38483,0
2636,38516,0
2648,38514,0
2660,38496,0
2660,38472,0
2664,38505,0
2668,38501,0
2664,38490,0
2648,38500,0
2640,38479,0
2632,38476,0
2624,38524,0
2604,38497,0
2600,38489,0
2585,38481,0
2586,38507,0
2592,38497,0
2600,38473,0
2608,38510,0
2610,38471,0
2626,38482,0
2640,38520,0
2632,38496,0
2640,38484,0
2640,38473,0
2628,38517,0
2616,38495,0
2608,38489,0
2594,38511,0
2576,38476,0
2552,38506,0
2544,38503,0
2536,38508,0
2528,38480,0
2520,38472,0
2528,38528,0
2528,38476,0
2544,38493,0
2568,38509,0
2576,38482,0
2584,38503,0
2612,38512,0
2626,38504,0
2640,38482,0
2656,38491,0
2656,38520,0
2650,38486,0
2650,38473,0
2640,38509,0
2626,38505,0
2612,38496,0
2600,38509,0
2584,38489,0
2576,38504,0
2576,38516,0
2568,38494,0
2576,38501,0
2568,38514,0
2592,38512,0
2592,38507,0
2608,38481,0
2629,38518,0
2640,38474,0
2640,38504,0
2652,38521,0
2656,38494,0
2656,38490,0
2768,38496,0
2632,38531,0
2596,38496,0
2602,38484,0
2592,38516,0
2580,38496,0
2584,38513,0
2576,38509,0
2572,38495,0
2580,38487,0
2592,38507,0
2596,38531,0
2608,38486,0
2624,38472,0
2628,38508,0
2640,38503,0
2652,38505,0
2644,38509,0
2624,38486,0
2600,38510,0
2580,38528,0
2568,38498,0
2536,38522,0
2530,38492,0
2512,38499,0
2484,38513,0
2504,38517,0
2500,38494,0
2504,38475,0
2528,38541,0
2536,38512,0
2554,38499,0
2580,38521,0
2600,38491,0
2624,38522,0
2624,38527,0
2648,38517,0
2640,38512,0
2642,38480,0
2628,38536,0
2616,38498,0
2610,38495,0
2596,38507,0
2586,38504,0
2576,38519,0
2568,38532,0
2570,38497,0
2568,38501,0
2562,38506,0
2584,38509,0
2584,38500,0
2596,38517,0
2618,38517,0
2610,38513,0
2624,38497,0
2628,38526,0
2616,38505,0
2616,38501,0
2604,38541,0
2592,38498,0
2580,38511,0
2576,38517,0
2552,38534,0
2548,38513,0
2536,38500,0
2536,38531,0
2540,38491,0
2544,38504,0
2544,38539,0
2560,38506,0
2580,38493,0
2596,38521,0
2604,38518,0
2624,38517,0
2640,38532,0
2650,38499,0
2644,38512,0
2656,38532,0
2636,38534,0
2628,38493,0
2610,38475,0
2596,38532,0
2576,38545,0
2556,38522,0
2540,38507,0
2520,38500,0
2520,38527,0
2520,38527,0
2528,38533,0
2536,38493,0
2552,38499,0
2568,38542,0
2584,38510,0
2596,38509,0
2616,38520,0
2636,38517,0
2636,38523,0
2648,38541,0
2648,38518,0
2640,38506,0
2640,38534,0
2632,38547,0
2632,38514,0
2624,38492,0
2600,38533,0
2600,38534,0
2600,38516,0
2608,38529,0
2594,38519,0
2602,38514,0
2618,38525,0
2634,38544,0
2630,38512,0
2640,38504,0
2660,38546,0
2648,38549,0
2640,38510,0
2616,38537,0
2608,38513,0
2592,38533,0
2568,38532,0
2554,38544,0
2540,38515,0
2520,38510,0
2516,38558,0
2512,38514,0
2512,38527,0
2514,38544,0
2528,38537,0
2528,38541,0
2554,38531,0
2576,38549,0
2586,38510,0
2612,38518,0
2624,38547,0
2626,38521,0
2628,38528,0
2628,38539,0
2616,38543,0
2612,38534,0
2608,38539,0
2584,38537,0
2584,38531,0
2560,38524,0
2546,38547,0
2548,38536,0
2532,38521,0
2544,38550,0
2545,38534,0
2560,38537,0
2578,38522,0
2581,38551,0
2592,38534,0
2608,38528,0
2616,38551,0
2624,38521,0
2620,38528,0
2624,38552,0
2612,38555,0
2600,38531,0
2584,38515,0
2576,38563,0
2562,38545,0
2544,38521,0
2528,38552,0
2530,38520,0
2528,38541,0
2532,38551,0
2540,38546,0
2560,38524,0
2564,38502,0
2578,38574,0
2600,38537,0
2608,38528,0
2624,38551,0
2628,38531,0
2620,38547,0
2616,38531,0
2608,38536,0
2584,38550,0
2552,38556,0
2528,38551,0
2512,38524,0
2504,38543,0
2480,38535,0
2480,38564,0
2472,38543,0
2496,38513,0
2496,38557,0
2500,38524,0
2528,38550,0
2546,38557,0
2564,38539,0
2576,38534,0
2600,38560,0
2600,38552,0
2600,38531,0
2600,38512,0
2600,38547,0
2596,38551,0
2580,38542,0
2564,38556,0
2560,38540,0
2545,38538,0
2537,38581,0
2528,38569,0
2528,38543,0
2548,38520,0
2545,38566,0
2562,38578,0
2564,38555,0
2576,38545,0
2586,38536,0
2584,38600,0
2600,38567,0
2592,38545,0
2592,38537,0
2576,38558,0
2568,38557,0
2552,38534,0
2544,38565,0
2528,38536,0
2516,38533,0
2498,38569,0
2496,38566,0
2484,38528,0
2496,38525,0
2500,38560,0
2512,38547,0
2536,38549,0
2560,38559,0
2560,38549,0
2576,38551,0
2585,38532,0
2594,38554,0
2592,38535,0
2594,38535,0
2584,38579,0
2578,38552,0
2564,38530,0
2552,38548,0
2540,38534,0
2516,38572,0
2512,38545,0
2500,38547,0
2488,38535,0
2504,38537,0
2504,38568,0
2522,38539,0
2548,38541,0
2564,38551,0
2600,38575,0
2624,38551,0
2656,38528,0
2688,38565,0
2720,38524,0
2744,38563,0
2768,38573,0
2796,38556,0
2816,38545,0
2976,38539,0
2880,38585,0
2904,38548,0
2930,38540,0
2968,38567,0
3008,38547,0
3040,38565,0
3088,38567,0
3136,38567,0
3172,38549,0
3224,38537,0
3242,38588,0
3244,38548,0
3264,38551,0
3242,38540,0
3208,38565,0
3160,38565,0
3092,38574,0
3040,38546,0
2968,38552,0
2888,38564,0
2824,38581,0
2752,38558,0
2688,38532,0
2616,38581,0
2548,38570,0
2514,38556,0
2464,38580,0
2432,38558,0
2404,38579,0
2386,38549,0
2376,38585,0
2378,38553,0
2368,38547,0
2356,38587,0
2352,38553,0
2336,38562,0
2322,38546,0
2312,38579,0
2312,38571,0
2296,38539,0
2280,38576,0
2266,38548,0
2264,38563,0
2272,38580,0
2272,38573,0
2284,38564,0
2306,38538,0
2328,38582,0
2344,38588,0
2368,38556,0
2380,38538,0
2404,38575,0
2424,38572,0
2432,38569,0
2436,38579,0
2440,38557,0
2436,38569,0
2432,38572,0
2420,38580,0
2424,38561,0
2420,38539,0
2408,38603,0
2416,38574,0
2420,38567,0
2420,38586,0
2432,38566,0
2452,38577,0
2456,38549,0
2472,38578,0
2497,38557,0
2508,38560,0
2514,38600,0
2536,38559,0
2538,38568,0
2516,38574,0
2520,38580,0
2488,38570,0
2480,38588,0
2452,38580,0
2432,38548,0
2420,38583,0
2408,38592,0
2400,38588,0
2394,38560,0
2400,38550,0
2536,38606,0
2432,38563,0
2448,38576,0
2464,38579,0
2484,38570,0
2500,38586,0
2516,38569,0
2520,38591,0
2528,38565,0
2544,38564,0
2532,38598,0
2528,38564,0
2516,38586,0
2505,38589,0
2498,38614,0
2496,38570,0
2480,38557,0
2468,38591,0
2464,38570,0
2480,38588,0
2482,38597,0
2480,38579,0
2488,38576,0
2498,38585,0
2506,38598,0
2528,38586,0
2528,38568,0
2532,38560,0
2520,38582,0
2508,38581,0
2506,38594,0
2488,38565,0
2472,38552,0
2464,38625,0
2448,38574,0
2440,38568,0
2432,38590,0
2432,38582,0
2432,38594,0
2440,38579,0
2456,38601,0
2464,38563,0
2480,38559,0
2498,38614,0
2520,38578,0
2536,38577,0
2552,38582,0
2552,38602,0
2560,38588,0
2560,38563,0
2564,38595,0
2544,38579,0
2536,38592,0
2518,38598,0
2512,38596,0
2496,38592,0
2484,38580,0
2480,38607,0
2472,38580,0
2472,38573,0
2480,38594,0
2488,38596,0
2504,38586,0
2516,38604,0
2528,38610,0
2548,38581,0
2552,38580,0
2560,38604,0
2556,38576,0
2548,38569,0
2548,38613,0
2536,38597,0
2528,38580,0
2512,38589,0
2504,38614,0
2496,38589,0
2480,38586,0
2480,38612,0
2474,38586,0
2480,38576,0
2496,38619,0
2496,38595,0
2496,38587,0
2520,38594,0
2522,38599,0
2530,38603,0
2540,38600,0
2664,38602,0
2536,38580,0
2512,38604,0
2496,38608,0
2484,38585,0
2465,38592,0
2440,38597,0
2432,38612,0
2410,38603,0
2416,38572,0
2408,38611,0
2412,38581,0
2416,38593,0
2436,38618,0
2440,38577,0
2464,38579,0
2482,38605,0
2496,38604,0
2516,38591,0
2528,38584,0
2538,38602,0
2544,38593,0
2538,38583,0
2529,38617,0
2516,38581,0
2500,38580,0
2496,38618,0
2476,38596,0
2460,38588,0
2448,38613,0
2452,38608,0
2448,38611,0
2452,38605,0
2460,38593,0
2480,38583,0
2488,38611,0
2512,38630,0
2512,38589,0
2528,38584,0
2532,38588,0
2528,38634,0
2528,38607,0
2528,38578,0
2512,38607,0
2500,38590,0
2488,38607,0
2474,38625,0
2476,38590,0
2448,38589,0
2440,38585,0
2434,38638,0
2440,38586,0
2448,38576,0
2449,38610,0
2456,38590,0
2476,38605,0
2484,38609,0
2506,38609,0
2528,38570,0
2520,38587,0
2528,38626,0
2522,38587,0
2520,38564,0
2512,38585,0
2488,38610,0
2468,38613,0
2452,38589,0
2432,38594,0
2416,38568,0
2400,38618,0
2400,38578,0
2400,38570,0
2408,38594,0
2417,38593,0
2440,38588,0
2448,38574,0
2474,38599,0
2488,38561,0
2500,38579,0
2512,38603,0
2512,38568,0
2520,38568,0
2512,38590,0
2512,38581,0
2498,38580,0
2496,38573,0
2472,38589,0
2464,38562,0
2449,38568,0
2450,38586,0
2448,38554,0
2448,38558,0
2450,38598,0
2468,38586,0
2468,38564,0
2476,38584,0
2484,38582,0
2496,38566,0
2504,38598,0
2496,38582,0
2488,38561,0
2476,38541,0
2456,38600,0
2456,38560,0
2432,38546,0
2424,38575,0
2416,38561,0
2404,38570,0
2388,38573,0
2388,38580,0
2388,38547,0
2392,38548,0
2408,38585,0
2404,38554,0
2448,38547,0
2464,38570,0
2472,38577,0
2500,38552,0
2512,38567,0
2520,38571,0
2522,38550,0
2528,38541,0
2528,38574,0
2504,38548,0
2504,38525,0
2488,38573,0
2474,38558,0
2457,38545,0
2452,38552,0
2436,38549,0
2432,38561,0
2436,38541,0
2440,38573,0
2452,38532,0
2456,38532,0
2472,38587,0
2484,38544,0
2488,38539,0
2504,38553,0
2504,38544,0
2528,38557,0
2504,38532,0
2496,38552,0
2480,38520,0
2468,38527,0
2448,38564,0
2436,38529,0
2420,38534,0
2416,38546,0
2400,38548,0
2400,38542,0
2392,38548,0
2400,38544,0
2416,38537,0
2416,38531,0
2432,38561,0
2436,38528,0
2456,38522,0
2456,38528,0
2456,38555,0
2432,38529,0
2416,38518,0
2404,38518,0
2384,38530,0
2360,38563,0
2344,38533,0
2328,38533,0
2328,38549,0
2312,38547,0
2312,38537,0
2324,38529,0
2336,38552,0
2340,38530,0
2276,38527,0
2376,38556,0
2400,38523,0
2424,38523,0
2436,38555,0
2448,38552,0
2450,38533,0
2453,38507,0
2452,38539,0
2448,38540,0
2436,38536,0
2432,38546,0
2416,38522,0
2400,38532,0
2392,38568,0
2384,38558,0
2377,38532,0
2378,38528,0
2384,38550,0
2394,38548,0
2401,38521,0
2416,38529,0
2434,38531,0
2442,38542,0
2452,38533,0
2458,38559,0
2468,38524,0
2456,38516,0
2436,38565,0
2432,38531,0
2424,38531,0
2404,38529,0
2392,38544,0
2388,38535,0
2368,38515,0
2372,38551,0
2362,38514,0
2384,38528,0
2378,38562,0
2396,38532,0
2408,38530,0
2432,38538,0
2440,38552,0
2448,38540,0
2456,38508,0
2468,38548,0
2472,38520,0
2472,38538,0
2453,38557,0
2448,38533,0
2420,38527,0
2404,38516,0
2384,38539,0
2372,38523,0
2344,38527,0
2340,38537,0
2328,38551,0
2336,38540,0
2340,38504,0
2352,38550,0
2376,38523,0
2388,38530,0
2408,38560,0
2418,38522,0
2436,38523,0
2434,38541,0
2432,38555,0
2432,38521,0
2432,38512,0
2420,38541,0
2404,38523,0
2394,38529,0
2376,38548,0
2372,38527,0
2360,38521,0
2356,38527,0
2352,38560,0
2348,38519,0
2360,38506,0
2370,38544,0
2376,38539,0
2400,38522,0
2416,38533,0
2404,38506,0
2437,38522,0
2416,38553,0
2416,38525,0
2394,38519,0
2388,38517,0
2370,38552,0
2352,38531,0
2352,38509,0
2336,38545,0
2324,38511,0
2320,38527,0
2320,38550,0
2324,38524,0
2336,38521,0
2344,38503,0
2352,38563,0
2376,38523,0
2392,38527,0
2420,38548,0
2432,38525,0
2440,38534,0
2464,38531,0
2464,38547,0
2458,38505,0
2448,38517,0
2448,38552,0
2432,38523,0
2424,38523,0
2394,38538,0
2388,38541,0
2378,38530,0
2376,38539,0
2368,38533,0
2378,38521,0
2384,38551,0
2392,38524,0
2400,38517,0
2420,38512,0
2432,38560,0
2442,38531,0
2440,38507,0
2440,38544,0
2440,38517,0
2432,38529,0
2420,38559,0
2404,38532,0
2400,38525,0
2384,38530,0
2372,38568,0
2368,38534,0
2360,38512,0
2352,38535,0
2356,38518,0
2362,38545,0
2388,38546,0
2384,38538,0
2404,38518,0
2416,38533,0
2432,38562,0
2440,38521,0
2432,38510,0
2440,38525,0
2436,38528,0
2418,38533,0
2400,38529,0
2385,38521,0
2356,38518,0
2344,38567,0
2321,38533,0
2320,38537,0
2304,38539,0
2308,38549,0
2312,38549,0
2316,38518,0
2336,38549,0
2352,38517,0
2368,38544,0
2388,38562,0
2404,38532,0
2416,38532,0
2432,38536,0
2440,38552,0
2448,38536,0
2440,38519,0
2432,38548,0
2424,38531,0
2404,38551,0
2388,38551,0
2376,38553,0
2368,38527,0
2360,38515,0
2354,38565,0
2358,38538,0
2360,38524,0
2368,38549,0
2376,38573,0
2388,38543,0
2388,38570,0
2408,38523,0
2416,38529,0
2418,38571,0
2424,38558,0
2416,38537,0
2416,38518,0
2400,38544,0
2380,38554,0
2376,38539,0
2360,38547,0
2354,38536,0
2340,38534,0
2338,38536,0
2336,38552,0
2340,38532,0
2348,38530,0
2369,38571,0
2376,38535,0
2392,38535,0
2404,38553,0
2420,38544,0
2434,38552,0
2440,38515,0
2448,38557,0
2458,38525,0
2448,38533,0
2432,38570,0
2420,38540,0
2408,38535,0
2378,38539,0
2356,38552,0
2336,38545,0
2332,38540,0
2324,38552,0
2320,38524,0
2324,38546,0
2336,38568,0
2344,38548,0
2368,38530,0
2368,38514,0
2392,38572,0
2400,38537,0
2408,38541,0
2400,38558,0
2424,38544,0
2404,38555,0
2404,38517,0
2384,38559,0
2380,38545,0
2372,38549,0
2368,38567,0
2348,38529,0
2352,38541,0
2360,38551,0
2360,38568,0
2356,38550,0
2368,38528,0
2376,38557,0
2396,38529,0
2404,38548,0
2416,38547,0
2416,38556,0
2420,38525,0
2408,38559,0
2400,38574,0
2384,38543,0
2368,38516,0
2346,38554,0
2336,38542,0
2324,38551,0
2312,38557,0
2312,38540,0
2300,38532,0
2298,38574,0
2304,38563,0
2314,38544,0
2329,38524,0
2348,38560,0
2368,38550,0
2384,38532,0
2408,38560,0
2420,38530,0
2432,38547,0
2441,38570,0
2440,38551,0
2433,38537,0
2432,38518,0
2418,38576,0
2416,38544,0
2400,38540,0
2368,38556,0
2360,38530,0
2368,38553,0
2362,38568,0
2360,38560,0
2376,38556,0
2386,38540,0
2400,38554,0
2408,38550,0
2416,38551,0
2440,38529,0
2434,38524,0
2442,38580,0
2433,38534,0
2448,38524,0
2416,38562,0
2400,38552,0
2392,38547,0
2388,38561,0
2368,38550,0
2356,38545,0
2360,38546,0
2354,38567,0
2354,38546,0
2360,38541,0
2376,38567,0
2380,38558,0
2394,38550,0
2420,38558,0
2426,38552,0
2428,38562,0
2440,38529,0
2436,38556,0
2420,38546,0
2412,38554,0
2388,38575,0
2356,38557,0
2340,38535,0
2324,38520,0
2304,38558,0
2296,38560,0
2288,38543,0
2288,38565,0
2300,38546,0
2304,38545,0
2312,38546,0
2328,38569,0
2352,38546,0
2368,38535,0
2384,38575,0
2400,38551,0
2412,38545,0
2416,38556,0
2400,38546,0
2401,38555,0
2388,38529,0
2373,38570,0
2368,38543,0
2352,38537,0
2336,38580,0
2321,38544,0
2320,38545,0
2322,38557,0
2322,38581,0
2332,38553,0
2340,38544,0
2357,38561,0
2372,38556,0
2376,38563,0
2388,38576,0
2392,38542,0
2388,38536,0
2380,38561,0
2368,38578,0
2356,38548,0
2338,38531,0
2324,38572,0
2320,38541,0
2300,38550,0
2284,38574,0
2288,38550,0
2280,38538,0
2280,38573,0
2288,38587,0
2304,38556,0
2314,38532,0
2336,38566,0
2344,38556,0
2368,38558,0
2378,38577,0
2384,38553,0
2393,38547,0
2400,38554,0
2400,38573,0
2392,38553,0
2374,38536,0
2364,38550,0
2336,38577,0
2320,38559,0
2298,38557,0
2276,38551,0
2276,38569,0
2276,38548,0
2272,38584,0
2280,38555,0
2288,38540,0
2320,38580,0
2324,38541,0
2352,38555,0
2360,38569,0
2368,38562,0
2372,38576,0
2376,38539,0
2376,38572,0
2370,38553,0
2352,38559,0
2356,38590,0
2340,38558,0
2336,38559,0
2320,38564,0
2316,38596,0
2312,38558,0
2312,38549,0
2320,38565,0
2328,38555,0
2338,38575,0
2353,38590,0
2360,38558,0
2384,38577,0
2384,38571,0
2384,38574,0
2384,38574,0
2380,38566,0
2356,38574,0
2353,38574,0
2336,38560,0
2330,38583,0
2308,38550,0
2296,38560,0
2296,38595,0
2289,38574,0
2289,38551,0
2296,38553,0
2304,38584,0
2308,38574,0
2336,38550,0
2352,38591,0
2360,38559,0
2384,38569,0
2392,38594,0
2408,38556,0
2416,38556,0
2416,38549,0
2412,38608,0
2400,38570,0
2390,38562,0
2380,38580,0
2368,38549,0
2354,38577,0
2338,38577,0
2336,38571,0
2324,38558,0
2248,38553,0
2330,38582,0
2344,38566,0
2352,38562,0
2372,38580,0
2372,38581,0
2400,38571,0
2394,38544,0
2416,38590,0
2416,38556,0
2408,38567,0
2404,38591,0
2396,38559,0
2376,38564,0
2368,38578,0
2356,38591,0
2337,38569,0
2320,38537,0
2321,38587,0
2316,38563,0
2316,38582,0
2312,38596,0
2328,38566,0
2340,38556,0
2360,38570,0
2380,38604,0
2384,38564,0
2394,38563,0
2400,38576,0
2404,38567,0
2392,38577,0
2384,38549,0
2360,38557,0
2336,38573,0
2308,38601,0
2296,38586,0
2288,38570,0
2258,38561,0
2256,38591,0
2248,38581,0
2256,38563,0
2264,38566,0
2288,38585,0
2296,38571,0
2314,38560,0
2336,38582,0
2360,38566,0
2369,38563,0
2388,38596,0
2396,38585,0
2388,38567,0
2384,38548,0
2378,38585,0
2372,38587,0
2368,38573,0
2356,38585,0
2340,38554,0
2336,38573,0
2324,38578,0
2336,38591,0
2336,38574,0
2336,38555,0
2344,38580,0
2360,38592,0
2372,38594,0
2377,38574,0
2388,38557,0
2384,38589,0
2378,38603,0
2368,38578,0
2360,38548,0
2344,38596,0
2324,38587,0
2312,38573,0
2304,38595,0
2288,38566,0
2261,38580,0
2264,38581,0
2256,38601,0
2256,38569,0
2256,38555,0
2260,38612,0
2284,38587,0
2292,38567,0
2308,38594,0
2320,38570,0
2336,38599,0
2346,38589,0
2356,38606,0
2352,38561,0
2356,38565,0
2344,38610,0
2336,38570,0
2320,38574,0
2320,38594,0
2290,38590,0
2284,38604,0
2280,38572,0
2256,38588,0
2256,38573,0
2264,38570,0
2264,38605,0
2272,38570,0
2280,38565,0
2288,38588,0
2312,38604,0
2324,38581,0
2336,38560,0
2336,38595,0
2336,38579,0
2332,38583,0
2312,38601,0
2288,38573,0
2296,38569,0
2280,38619,0
2250,38604,0
2244,38580,0
2232,38553,0
2224,38598,0
2224,38588,0
2230,38582,0
2241,38607,0
2252,38584,0
2260,38583,0
2270,38592,0
2289,38600,0
2296,38587,0
2292,38580,0
2284,38591,0
2276,38585,0
2260,38578,0
2244,38584,0
2228,38589,0
2208,38613,0
2194,38588,0
2176,38567,0
2168,38608,0
2156,38582,0
2168,38585,0
2184,38611,0
2184,38575,0
2200,38585,0
2216,38606,0
2244,38631,0
2256,38581,0
2280,38574,0
2288,38608,0
2304,38593,0
2304,38589,0
2296,38615,0
2290,38585,0
2281,38579,0
2276,38617,0
2264,38594,0
2245,38604,0
2228,38598,0
2212,38621,0
2216,38586,0
2208,38615,0
2212,38610,0
2230,38583,0
2232,38617,0
2244,38615,0
2256,38595,0
2264,38578,0
2280,38612,0
2280,38602,0
2280,38598,0
2281,38611,0
2272,38587,0
2276,38591,0
2256,38625,0
2242,38595,0
2376,38588,0
2220,38609,0
2216,38617,0
2208,38606,0
2208,38579,0
2208,38616,0
2208,38585,0
2212,38601,0
2224,38637,0
2240,38593,0
2252,38589,0
2256,38613,0
2265,38635,0
2284,38603,0
2264,38578,0
2256,38614,0
2248,38586,0
2232,38616,0
2200,38617,0
2176,38576,0
2154,38603,0
2136,38620,0
2120,38607,0
2116,38591,0
2108,38610,0
2116,38586,0
2152,38612,0
2144,38632,0
2176,38595,0
2200,38592,0
2226,38619,0
2272,38623,0
2300,38602,0
2324,38589,0
2352,38625,0
2384,38591,0
2416,38601,0
2448,38622,0
2480,38600,0
2504,38595,0
2536,38631,0
2568,38614,0
2600,38594,0
2632,38601,0
2668,38618,0
2720,38605,0
2757,38592,0
2796,38625,0
2842,38593,0
2874,38611,0
2890,38648,0
2912,38601,0
2896,38615,0
2890,38615,0
2848,38619,0
2800,38611,0
2752,38581,0
2688,38635,0
2624,38601,0
2564,38609,0
2496,38632,0
2432,38600,0
2370,38602,0
2320,38610,0
2264,38618,0
2216,38607,0
2184,38593,0
2152,38617,0
2138,38592,0
2128,38604,0
2122,38632,0
2128,38600,0
2128,38594,0
2120,38628,0
2112,38620,0
2112,38599,0
2098,38587,0
2088,38620,0
2066,38614,0
2057,38604,0
2036,38611,0
2010,38603,0
2002,38602,0
1984,38614,0
1984,38604,0
1980,38621,0
1992,38611,0
2000,38600,0
2012,38609,0
2020,38632,0
2036,38602,0
2056,38580,0
2064,38638,0
2080,38618,0
2080,38602,0
2088,38632,0
2088,38608,0
2074,38618,0
2080,38622,0
2060,38636,0
2056,38599,0
2052,38592,0
2052,38647,0
2048,38591,0
2048,38600,0
2068,38621,0
2065,38610,0
2088,38609,0
2100,38635,0
2124,38615,0
2148,38605,0
2144,38600,0
2160,38619,0
2184,38620,0
2164,38616,0
2146,38601,0
2144,38630,0
2130,38646,0
2128,38609,0
2104,38590,0
2096,38631,0
2081,38625,0
2068,38604,0
2076,38626,0
2072,38606,0
2080,38618,0
2100,38652,0
2112,38628,0
2120,38614,0
2144,38597,0
2176,38643,0
2184,38623,0
2208,38597,0
2208,38628,0
2228,38596,0
2212,38635,0
2210,38642,0
2200,38613,0
2192,38611,0
2176,38610,0
2180,38652,0
2172,38613,0
2160,38595,0
2156,38633,0
2152,38630,0
2160,38652,0
2172,38621,0
2180,38624,0
2196,38603,0
2216,38644,0
2224,38623,0
2240,38604,0
2248,38638,0
2248,38611,0
2249,38639,0
2244,38640,0
2228,38617,0
2218,38611,0
2209,38626,0
2200,38651,0
2184,38615,0
2176,38591,0
2160,38633,0
2160,38629,0
2160,38628,0
2160,38638,0
2162,38617,0
2176,38608,0
2192,38664,0
2210,38629,0
2220,38618,0
2226,38626,0
2240,38634,0
2245,38633,0
2248,38612,0
2236,38645,0
2224,38624,0
2202,38640,0
2180,38633,0
2168,38640,0
2144,38648,0
2128,38609,0
2116,38635,0
2100,38649,0
2104,38619,0
2104,38610,0
2112,38633,0
2128,38656,0
2136,38635,0
2152,38602,0
2168,38640,0
2180,38620,0
2188,38619,0
2200,38650,0
2196,38614,0
2194,38613,0
2184,38651,0
2168,38627,0
2156,38618,0
2146,38629,0
2136,38623,0
2124,38640,0
2120,38614,0
2112,38645,0
2112,38617,0
2122,38608,0
2130,38664,0
2144,38630,0
2160,38642,0
2164,38621,0
2176,38633,0
2184,38621,0
2184,38620,0
2178,38622,0
2161,38620,0
2152,38661,0
2146,38625,0
2130,38610,0
2120,38646,0
2104,38611,0
2092,38631,0
2082,38649,0
2074,38623,0
2074,38628,0
2082,38649,0
2088,38645,0
2104,38632,0
2116,38641,0
2136,38642,0
2153,38631,0
2156,38617,0
2168,38659,0
2200,38631,0
2192,38619,0
2201,38670,0
2192,38631,0
2176,38632,0
2172,38648,0
2160,38646,0
2149,38640,0
2132,38631,0
2128,38636,0
2120,38639,0
2112,38655,0
2104,38632,0
2106,38636,0
2120,38652,0
2128,38613,0
2140,38635,0
2152,38656,0
2160,38635,0
2176,38631,0
2188,38625,0
2186,38676,0
2196,38631,0
2184,38613,0
2176,38656,0
2162,38625,0
2146,38643,0
2144,38659,0
2128,38632,0
2113,38615,0
2104,38665,0
2101,38659,0
2101,38631,0
2112,38627,0
2120,38650,0
2124,38642,0
2136,38623,0
2162,38659,0
2164,38625,0
2176,38615,0
2170,38643,0
2164,38656,0
2160,38643,0
2136,38618,0
2104,38648,0
2088,38649,0
2080,38620,0
2064,38651,0
2046,38606,0
2040,38638,0
2036,38657,0
2040,38650,0
2048,38616,0
2060,38603,0
2052,38659,0
2089,38632,0
2106,38621,0
2124,38634,0
2128,38615,0
2146,38634,0
2152,38645,0
2146,38632,0
2136,38615,0
2132,38607,0
2112,38660,0
2112,38618,0
2100,38593,0
2080,38630,0
2064,38625,0
2064,38621,0
2060,38632,0
2056,38615,0
2064,38594,0
2068,38616,0
2080,38642,0
2088,38608,0
2098,38632,0
2112,38611,0
2114,38619,0
2120,38615,0
2128,38631,0
2116,38599,0
2112,38593,0
2096,38633,0
2084,38598,0
2080,38597,0
2064,38620,0
2056,38601,0
2036,38611,0
2033,38613,0
2032,38612,0
2040,38586,0
2048,38592,0
2052,38627,0
2056,38597,0
2080,38581,0
2082,38607,0
2112,38607,0
2117,38592,0
2128,38615,0
2130,38607,0
2124,38599,0
2116,38585,0
2104,38588,0
2080,38575,0
2058,38584,0
2033,38621,0
2016,38576,0
2000,38577,0
1986,38605,0
1976,38578,0
1980,38602,0
1976,38614,0
2000,38602,0
2008,38587,0
2148,38569,0
2024,38624,0
2036,38580,0
2044,38579,0
2064,38588,0
2052,38592,0
2056,38590,0
2041,38601,0
2032,38590,0
2017,38574,0
2006,38578,0
1990,38603,0
1988,38574,0
1968,38569,0
1958,38596,0
1952,38588,0
1954,38580,0
1972,38601,0
1962,38572,0
1972,38590,0
1976,38600,0
1984,38584,0
1996,38583,0
2003,38573,0
2006,38599,0
1996,38584,0
1984,38590,0
1980,38578,0
1968,38581,0
1948,38605,0
1932,38613,0
1920,38582,0
1916,38547,0
1904,38606,0
1896,38602,0
1904,38572,0
1898,38607,0
1900,38570,0
1912,38584,0
1936,38598,0
1938,38590,0
1964,38565,0
1968,38551,0
1984,38603,0
1992,38580,0
2002,38572,0
2002,38594,0
2000,38571,0
1996,38593,0
1992,38604,0
1984,38581,0
1980,38567,0
1962,38592,0
1952,38586,0
1952,38591,0
1952,38578,0
1952,38590,0
1952,38590,0
1960,38565,0
1984,38598,0
1992,38562,0
2010,38575,0
2018,38604,0
2040,38594,0
2040,38585,0
2040,38548,0
2048,38604,0
2036,38588,0
2020,38565,0
2016,38600,0
2001,38561,0
1988,38587,0
1978,38617,0
1970,38594,0
1962,38571,0
1972,38557,0
1964,38607,0
1973,38585,0
1988,38571,0
2001,38593,0
2012,38574,0
2028,38602,0
2040,38598,0
2044,38593,0
2050,38568,0
2044,38594,0
2028,38591,0
2016,38588,0
1992,38551,0
1984,38592,0
1960,38590,0
1941,38582,0
1924,38573,0
1924,38599,0
1910,38558,0
1924,38577,0
1920,38605,0
1938,38580,0
1956,38568,0
1968,38592,0
1972,38593,0
1994,38582,0
2016,38579,0
2032,38589,0
2032,38582,0
2024,38584,0
2024,38591,0
2024,38567,0
2016,38570,0
1988,38602,0
1984,38584,0
1968,38569,0
1962,38556,0
1972,38585,0
1956,38578,0
1956,38573,0
1960,38573,0
1954,38561,0
1970,38600,0
1984,38617,0
1992,38581,0
2004,38579,0
2012,38573,0
2020,38559,0
2024,38560,0
2024,38592,0
2009,38564,0
2016,38560,0
2008,38601,0
2000,38570,0
1984,38562,0
1980,38578,0
1973,38576,0
1960,38587,0
1964,38557,0
1964,38583,0
1968,38568,0
1984,38556,0
1994,38600,0
2016,38552,0
2028,38553,0
2052,38561,0
2058,38597,0
2076,38577,0
2074,38548,0
2088,38588,0
2066,38558,0
2082,38579,0
2056,38594,0
2048,38563,0
2028,38559,0
2012,38571,0
1988,38571,0
1988,38570,0
1976,38566,0
1984,38591,0
1980,38559,0
1988,38558,0
1992,38585,0
2016,38557,0
2032,38555,0
2048,38592,0
2072,38567,0
2072,38561,0
2080,38569,0
2080,38589,0
2080,38572,0
2080,38559,0
2080,38585,0
2056,38552,0
2050,38558,0
2048,38600,0
2032,38573,0
2036,38566,0
2026,38554,0
2020,38597,0
2040,38579,0
2044,38562,0
2056,38586,0
2074,38547,0
2084,38572,0
2088,38587,0
2104,38564,0
2100,38569,0
2096,38557,0
2092,38581,0
2080,38568,0
2068,38585,0
2056,38562,0
2032,38558,0
2024,38601,0
2008,38560,0
2000,38553,0
1994,38576,0
1994,38566,0
1996,38584,0
2012,38573,0
2036,38603,0
2044,38546,0
2064,38552,0
2064,38593,0
2088,38565,0
2102,38555,0
2112,38578,0
2128,38585,0
2136,38569,0
2128,38580,0
2128,38578,0
2120,38562,0
2120,38576,0
2112,38590,0
2088,38574,0
2090,38539,0
2088,38571,0
2084,38576,0
2096,38589,0
2120,38557,0
2128,38548,0
2138,38599,0
2156,38564,0
2172,38568,0
2193,38585,0
2192,38559,0
2196,38586,0
2188,38565,0
2180,38597,0
2176,38564,0
2160,38561,0
2152,38606,0
2144,38560,0
2124,38571,0
2114,38572,0
2112,38584,0
2112,38584,0
2116,38577,0
2130,38590,0
2132,38562,0
2148,38564,0
2156,38593,0
2176,38566,0
2186,38562,0
2196,38590,0
2196,38588,0
2204,38574,0
2180,38571,0
2168,38574,0
2152,38562,0
2128,38600,0
2112,38561,0
2094,38561,0
2072,38571,0
2074,38564,0
2056,38578,0
2060,38586,0
2068,38580,0
2072,38558,0
2088,38564,0
2064,38595,0
2122,38573,0
2138,38562,0
2160,38576,0
2176,38573,0
2192,38569,0
2196,38591,0
2192,38560,0
2188,38573,0
2180,38589,0
2177,38590,0
2168,38562,0
2150,38547,0
2144,38603,0
2136,38575,0
2132,38544,0
2132,38583,0
2136,38552,0
2140,38576,0
2154,38579,0
2180,38568,0
2184,38570,0
2196,38568,0
2208,38594,0
2208,38571,0
2212,38537,0
2202,38580,0
2208,38566,0
2192,38569,0
2180,38579,0
2164,38556,0
2160,38554,0
2144,38582,0
2144,38581,0
2128,38559,0
2128,38538,0
2132,38581,0
2136,38575,0
2148,38558,0
2168,38579,0
2181,38538,0
2192,38574,0
2224,38589,0
2328,38569,0
2250,38553,0
2260,38531,0
2264,38594,0
2262,38574,0
2256,38554,0
2240,38572,0
2232,38560,0
2200,38586,0
2184,38565,0
2164,38584,0
2148,38571,0
2144,38576,0
2136,38581,0
2136,38563,0
2156,38572,0
2168,38567,0
2180,38569,0
2202,38555,0
2218,38585,0
2240,38557,0
2256,38543,0
2272,38588,0
2264,38575,0
2264,38556,0
2256,38571,0
2248,38584,0
2244,38574,0
2224,38538,0
2212,38589,0
2196,38558,0
2196,38552,0
2192,38595,0
2192,38564,0
2197,38565,0
2200,38575,0
2216,38576,0
2226,38569,0
2232,38554,0
2248,38564,0
2252,38564,0
2256,38585,0
2260,38563,0
2248,38584,0
2232,38554,0
2218,38574,0
2192,38593,0
2184,38552,0
2168,38537,0
2152,38567,0
2156,38557,0
2146,38569,0
2132,38586,0
2148,38568,0
2152,38538,0
2176,38583,0
2184,38603,0
2200,38557,0
2224,38551,0
2240,38586,0
2260,38585,0
2276,38565,0
2290,38576,0
2292,38558,0
2304,38559,0
2296,38583,0
2288,38590,0
2266,38565,0
2264,38544,0
2256,38598,0
2232,38587,0
2228,38580,0
2224,38576,0
2208,38568,0
2234,38590,0
2232,38597,0
2248,38587,0
2264,38558,0
2272,38562,0
2282,38603,0
2300,38578,0
2320,38574,0
2308,38579,0
2304,38594,0
2300,38585,0
2292,38555,0
2284,38585,0
2264,38561,0
2256,38570,0
2240,38605,0
2232,38575,0
2226,38564,0
2232,38567,0
2224,38615,0
2240,38580,0
2248,38555,0
2252,38583,0
2276,38561,0
2280,38589,0
2304,38594,0
2316,38583,0
2324,38561,0
2316,38565,0
2320,38603,0
2306,38557,0
2290,38542,0
2266,38573,0
2242,38585,0
2228,38599,0
2210,38596,0
2196,38573,0
2192,38562,0
2180,38574,0
2180,38591,0
2196,38575,0
2220,38562,0
2216,38589,0
2236,38578,0
2256,38570,0
2272,38591,0
2288,38592,0
2306,38577,0
2308,38575,0
2304,38600,0
2296,38580,0
2288,38558,0
2276,38610,0
2272,38580,0
2256,38568,0
2240,38588,0
2240,38569,0
2216,38592,0
2218,38586,0
2218,38601,0
2226,38571,0
2240,38606,0
2244,38605,0
2256,38570,0
2272,38576,0
2282,38594,0
2288,38588,0
2284,38576,0
2282,38599,0
2272,38566,0
2260,38566,0
2245,38609,0
2240,38583,0
2216,38572,0
2208,38592,0
2188,38602,0
2176,38588,0
2168,38567,0
2184,38604,0
2176,38570,0
2196,38574,0
2224,38610,0
2232,38581,0
2248,38581,0
2272,38579,0
2280,38602,0
2304,38601,0
2312,38558,0
2314,38598,0
2316,38572,0
2312,38588,0
2296,38608,0
2284,38582,0
2264,38576,0
2250,38586,0
2216,38600,0
2208,38584,0
2184,38591,0
2194,38574,0
2178,38584,0
2184,38616,0
2192,38593,0
2212,38583,0
2240,38577,0
2236,38619,0
2264,38586,0
2280,38567,0
2280,38602,0
2290,38567,0
2292,38593,0
2284,38608,0
2272,38587,0
2268,38579,0
2272,38552,0
2248,38620,0
2240,38573,0
2233,38583,0
2234,38590,0
2224,38578,0
2228,38588,0
2232,38577,0
2256,38597,0
2272,38563,0
2272,38575,0
2298,38602,0
2304,38577,0
2304,38567,0
2304,38585,0
2280,38610,0
2272,38608,0
2256,38579,0
2240,38554,0
2224,38606,0
2208,38597,0
2208,38575,0
2184,38605,0
2180,38572,0
2180,38582,0
2192,38608,0
2200,38595,0
2218,38577,0
2240,38554,0
2258,38613,0
2272,38582,0
2296,38569,0
2306,38595,0
2328,38568,0
2324,38594,0
2324,38609,0
2324,38577,0
2312,38573,0
2304,38575,0
2288,38618,0
2290,38580,0
2273,38563,0
2256,38598,0
2260,38602,0
2248,38615,0
2256,38578,0
2260,38602,0
2265,38582,0
2280,38608,0
2292,38586,0
2304,38566,0
2320,38602,0
2336,38577,0
2336,38577,0
2336,38610,0
2328,38579,0
2320,38573,0
2308,38600,0
2304,38597,0
2296,38582,0
2264,38584,0
2264,38595,0
2250,38591,0
2244,38564,0
2250,38600,0
2240,38573,0
2248,38565,0
2264,38617,0
2272,38585,0
2290,38583,0
2312,38593,0
2308,38587,0
2332,38600,0
2346,38568,0
2332,38605,0
2328,38571,0
2304,38584,0
2288,38582,0
2272,38587,0
2248,38589,0
2234,38597,0
2176,38587,0
2208,38586,0
2200,38596,0
2200,38588,0
2208,38584,0
2220,38584,0
2240,38615,0
2250,38581,0
2264,38574,0
2284,38606,0
2296,38595,0
2320,38566,0
2320,38603,0
2320,38572,0
2328,38582,0
2312,38620,0
2308,38583,0
2289,38581,0
2292,38582,0
2276,38606,0
2256,38597,0
2250,38563,0
2240,38593,0
2248,38570,0
2252,38583,0
2252,38607,0
2272,38591,0
2288,38559,0
2288,38584,0
2304,38607,0
2306,38604,0
2316,38595,0
2324,38580,0
2304,38590,0
2304,38584,0
2288,38610,0
2272,38583,0
2112,38550,0
2244,38619,0
2240,38580,0
2232,38578,0
2224,38590,0
2216,38565,0
2224,38591,0
2232,38594,0
2232,38591,0
2244,38570,0
2264,38574,0
2266,38614,0
2288,38578,0
2296,38551,0
2308,38585,0
2312,38574,0
2313,38576,0
2304,38610,0
2312,38574,0
2304,38579,0
2288,38618,0
2276,38609,0
2256,38566,0
2248,38585,0
2244,38585,0
2232,38607,0
2240,38571,0
2256,38593,0
2284,38563,0
2289,38582,0
2320,38604,0
2352,38590,0
2384,38582,0
2418,38573,0
2464,38612,0
2496,38583,0
2528,38562,0
2568,38590,0
2602,38573,0
2632,38582,0
2672,38600,0
2696,38581,0
2724,38566,0
2760,38591,0
2800,38596,0
2832,38587,0
2880,38571,0
2914,38595,0
2960,38581,0
2980,38576,0
3000,38597,0
3013,38579,0
3008,38576,0
2996,38611,0
2960,38596,0
2912,38586,0
2860,38574,0
2784,38570,0
2714,38597,0
2648,38569,0
2560,38588,0
2484,38554,0
2412,38577,0
2344,38617,0
2288,38579,0
2232,38577,0
2188,38587,0
2164,38609,0
2140,38581,0
2130,38563,0
2114,38601,0
2112,38564,0
2104,38584,0
2112,38608,0
2120,38570,0
2116,38581,0
2112,38587,0
2092,38590,0
2080,38579,0
2080,38552,0
2068,38588,0
2064,38575,0
2064,38578,0
2044,38593,0
2050,38578,0
2050,38563,0
2048,38599,0
2056,38588,0
2082,38577,0
2220,38586,0
2120,38564,0
2128,38611,0
2148,38574,0
2164,38580,0
2184,38602,0
2176,38587,0
2180,38593,0
2180,38571,0
2168,38601,0
2170,38569,0
2170,38562,0
2152,38605,0
2156,38579,0
2144,38569,0
2148,38595,0
2152,38591,0
2160,38584,0
2168,38571,0
2184,38591,0
2200,38583,0
2232,38592,0
2240,38608,0
2256,38568,0
2272,38580,0
2281,38585,0
2288,38616,0
2288,38584,0
2280,38581,0
2264,38575,0
2240,38596,0
2224,38618,0
2200,38563,0
2184,38599,0
2178,38575,0
2164,38604,0
2160,38602,0
2168,38590,0
2176,38583,0
2196,38562,0
2208,38619,0
2240,38572,0
2244,38574,0
2260,38589,0
2280,38589,0
2296,38593,0
2304,38602,0
2304,38591,0
2304,38559,0
2293,38575,0
2274,38612,0
2268,38585,0
2260,38578,0
2248,38601,0
2240,38600,0
2244,38590,0
2228,38592,0
2232,38602,0
2252,38590,0
2252,38582,0
2266,38599,0
2276,38596,0
2288,38579,0
2298,38601,0
2296,38595,0
2304,38594,0
2296,38606,0
2288,38592,0
2276,38600,0
2260,38569,0
2260,38610,0
2244,38578,0
2232,38570,0
2232,38624,0
2224,38587,0
2220,38586,0
2224,38594,0
2233,38604,0
2256,38603,0
2256,38578,0
2276,38609,0
2292,38574,0
2308,38582,0
2336,38623,0
2344,38590,0
2360,38591,0
2356,38610,0
2368,38617,0
2360,38599,0
2345,38588,0
2340,38608,0
2314,38579,0
2304,38617,0
2296,38613,0
2280,38583,0
2280,38607,0
2280,38596,0
2300,38613,0
2304,38601,0
2314,38618,0
2328,38588,0
2336,38594,0
2356,38619,0
2368,38592,0
2370,38593,0
2376,38615,0
2368,38600,0
2356,38594,0
2340,38595,0
2336,38615,0
2314,38589,0
2312,38598,0
2290,38621,0
2276,38590,0
2280,38590,0
2272,38624,0
2272,38617,0
2292,38601,0
2284,38578,0
2304,38608,0
2320,38602,0
2330,38604,0
2340,38617,0
2348,38579,0
2352,38594,0
2344,38620,0
2334,38586,0
2312,38596,0
2304,38619,0
2288,38602,0
2260,38615,0
2248,38600,0
2226,38617,0
2224,38590,0
2216,38595,0
2216,38634,0
2228,38605,0
2244,38593,0
2256,38618,0
2272,38633,0
2296,38595,0
2313,38582,0
2344,38626,0
2352,38588,0
2360,38611,0
2368,38619,0
2360,38589,0
2360,38582,0
2340,38625,0
2340,38638,0
2320,38596,0
2308,38585,0
2304,38610,0
2292,38612,0
2284,38617,0
2296,38608,0
2292,38609,0
2296,38588,0
2308,38636,0
2324,38605,0
2328,38593,0
2340,38596,0
2352,38628,0
2360,38635,0
2368,38609,0
2360,38575,0
2354,38618,0
2344,38612,0
2328,38602,0
2320,38622,0
2312,38599,0
2304,38598,0
2284,38612,0
2188,38633,0
2288,38593,0
2296,38574,0
2289,38617,0
2306,38612,0
2320,38602,0
2336,38622,0
2345,38581,0
2360,38600,0
2368,38617,0
2368,38623,0
2388,38598,0
2378,38567,0
2376,38627,0
2360,38595,0
2337,38591,0
2312,38595,0
2304,38588,0
2273,38619,0
2257,38616,0
2240,38613,0
2240,38591,0
2240,38570,0
2248,38634,0
2256,38582,0
2280,38586,0
2304,38598,0
2316,38597,0
2328,38604,0
2346,38572,0
2352,38614,0
2372,38582,0
2368,38599,0
2348,38619,0
2360,38588,0
2344,38585,0
2324,38602,0
2306,38612,0
2304,38592,0
2292,38571,0
2288,38611,0
2280,38583,0
2274,38587,0
2292,38598,0
2306,38577,0
2328,38579,0
2340,38586,0
2336,38594,0
2360,38587,0
2367,38582,0
2356,38578,0
2360,38585,0
2368,38574,0
2336,38598,0
2322,38581,0
2312,38566,0
2296,38598,0
2288,38590,0
2264,38567,0
2266,38550,0
2256,38592,0
2252,38587,0
2256,38560,0
2272,38590,0
2280,38562,0
2296,38583,0
2312,38552,0
2340,38591,0
2352,38556,0
2372,38558,0
2380,38598,0
2388,38574,0
2384,38564,0
2388,38565,0
2384,38592,0
2376,38576,0
2362,38549,0
2344,38575,0
2328,38549,0
2312,38565,0
2308,38557,0
2304,38549,0
2288,38567,0
2296,38568,0
2312,38564,0
2320,38560,0
2330,38575,0
2480,38574,0
2356,38545,0
2364,38554,0
2368,38578,0
2368,38541,0
2368,38548,0
2354,38566,0
2344,38563,0
2328,38549,0
2312,38569,0
2304,38560,0
2288,38553,0
2288,38551,0
2272,38571,0
2256,38544,0
2268,38534,0
2264,38572,0
2272,38555,0
2282,38550,0
2296,38572,0
2308,38556,0
2320,38555,0
2332,38540,0
2344,38567,0
2348,38544,0
2324,38572,0
2308,38564,0
2292,38555,0
2272,38542,0
2260,38534,0
2240,38589,0
2224,38554,0
2210,38535,0
2208,38565,0
2212,38539,0
2208,38565,0
2220,38583,0
2228,38551,0
2248,38550,0
2266,38545,0
2288,38575,0
2308,38544,0
2316,38530,0
2336,38560,0
2328,38552,0
2328,38562,0
2322,38582,0
2320,38553,0
2304,38534,0
2292,38548,0
2281,38575,0
2272,38535,0
2264,38527,0
2252,38554,0
2248,38553,0
2264,38537,0
2260,38544,0
2272,38564,0
2288,38544,0
2288,38541,0
2304,38567,0
2320,38547,0
2320,38528,0
2328,38575,0
2324,38554,0
2320,38543,0
2320,38534,0
2304,38555,0
2284,38549,0
2272,38537,0
2257,38559,0
2248,38530,0
2240,38533,0
2228,38579,0
2234,38548,0
2240,38541,0
2250,38540,0
2260,38573,0
2280,38557,0
2289,38535,0
2304,38563,0
2316,38531,0
2340,38542,0
2336,38571,0
2340,38541,0
2336,38542,0
2322,38540,0
2320,38573,0
2304,38564,0
2280,38556,0
2264,38542,0
2226,38528,0
2216,38555,0
2208,38578,0
2184,38541,0
2194,38541,0
2210,38568,0
2218,38584,0
2229,38538,0
2240,38519,0
2272,38548,0
2288,38539,0
2296,38547,0
2304,38561,0
2320,38544,0
2304,38538,0
2300,38566,0
2292,38554,0
2282,38532,0
2284,38526,0
2280,38560,0
2256,38552,0
2244,38530,0
2249,38562,0
2240,38529,0
2240,38544,0
2258,38566,0
2264,38550,0
2280,38541,0
2282,38533,0
2282,38533,0
2288,38539,0
2280,38556,0
2272,38531,0
2264,38531,0
2256,38569,0
2232,38538,0
2220,38535,0
2208,38536,0
2202,38557,0
2192,38549,0
2184,38519,0
2184,38551,0
2192,38523,0
2196,38550,0
2217,38573,0
2224,38529,0
2256,38516,0
2260,38525,0
2282,38577,0
2304,38528,0
2314,38524,0
2336,38549,0
2336,38534,0
2338,38554,0
2330,38554,0
2308,38540,0
2308,38525,0
2294,38538,0
2274,38579,0
2272,38541,0
2256,38505,0
2250,38523,0
2252,38557,0
2248,38548,0
2256,38525,0
2276,38544,0
2276,38529,0
2290,38546,0
2304,38566,0
2314,38526,0
2324,38526,0
2320,38556,0
2308,38573,0
2320,38536,0
2312,38509,0
2304,38553,0
2276,38544,0
2264,38545,0
2248,38546,0
2244,38525,0
2242,38528,0
2240,38568,0
2245,38547,0
2244,38534,0
2244,38515,0
2264,38563,0
2281,38549,0
2284,38528,0
2300,38557,0
2308,38529,0
2306,38545,0
2306,38560,0
2296,38532,0
2300,38538,0
2276,38532,0
2250,38569,0
2240,38538,0
2224,38536,0
2208,38555,0
2192,38556,0
2184,38560,0
2162,38526,0
2172,38562,0
2176,38520,0
2186,38532,0
2200,38574,0
2220,38535,0
2240,38533,0
2256,38538,0
2272,38571,0
2288,38545,0
2288,38523,0
2296,38557,0
2282,38524,0
2280,38543,0
2272,38562,0
2256,38531,0
2252,38528,0
2226,38540,0
2212,38571,0
2216,38536,0
2216,38507,0
2212,38552,0
2224,38528,0
2216,38580,0
2244,38536,0
2244,38548,0
2256,38543,0
2268,38550,0
2280,38559,0
2288,38535,0
2288,38538,0
2280,38538,0
2272,38565,0
2264,38548,0
2242,38510,0
2234,38548,0
2224,38524,0
2212,38552,0
2204,38564,0
2200,38540,0
2196,38535,0
2208,38552,0
2208,38568,0
2216,38541,0
2233,38518,0
2248,38554,0
2272,38542,0
2284,38542,0
2304,38561,0
2313,38546,0
2320,38521,0
2328,38532,0
2320,38567,0
2308,38531,0
