1948,35803,0
1940,35559,0
1962,35571,0
2000,35590,0
2047,35591,0
2108,35617,0
2148,35619,0
2185,35635,0
2216,35632,0
2244,35655,0
2240,35642,0
2231,35645,0
2192,35691,0
2160,35687,0
2106,35712,0
2068,35706,0
2012,35718,0
1984,35713,0
1948,35749,0
1928,35728,0
1920,35720,0
1937,35756,0
1960,35752,0
1996,35767,0
2048,35753,0
2096,35783,0
2138,35764,0
2192,35750,0
2232,35800,0
2240,35789,0
2244,35801,0
2240,35792,0
2204,35854,0
2157,35803,0
2122,35798,0
2068,35827,0
2020,35833,0
1978,35839,0
1952,35821,0
1933,35834,0
1924,35822,0
1932,35810,0
1960,35841,0
2009,35824,0
2044,35858,0
2096,35834,0
2144,35858,0
2194,35838,0
2220,35855,0
2240,35838,0
2244,35839,0
2236,35875,0
2200,35855,0
2168,35875,0
2118,35853,0
2088,35875,0
2028,35853,0
1992,35854,0
1971,35869,0
1956,35865,0
1940,35888,0
1966,35857,0
1993,35878,0
2020,35855,0
2068,35854,0
2114,35859,0
2160,35874,0
2208,35880,0
2228,35850,0
2252,35853,0
2260,35875,0
2244,35848,0
2232,35863,0
2184,35855,0
2148,35831,0
2112,35846,0
2056,35821,0
2025,35865,0
2000,35833,0
1978,35859,0
1986,35839,0
1988,35855,0
2010,35831,0
2044,35824,0
2088,35827,0
2130,35821,0
2185,35848,0
2212,35817,0
2245,35851,0
2262,35826,0
2250,35826,0
2232,35838,0
2212,35822,0
2162,35855,0
2104,35840,0
2080,35847,0
2024,35826,0
1992,35832,0
1968,35836,0
1956,35844,0
1953,35845,0
1970,35860,0
2000,35830,0
2040,35827,0
2088,35875,0
2140,35850,0
2196,35863,0
2236,35852,0
2256,35870,0
2272,35854,0
2272,35876,0
2264,35854,0
2200,35842,0
2148,35894,0
2112,35873,0
2068,35898,0
2026,35886,0
1992,35909,0
1970,35890,0
1955,35890,0
1953,35909,0
1980,35897,0
2000,35936,0
2040,35917,0
2090,35938,0
2136,35914,0
2177,35945,0
2196,35921,0
2232,35947,0
2252,35947,0
2256,35931,0
2226,35941,0
2208,35967,0
2160,35968,0
2116,35955,0
2072,35980,0
2032,35959,0
2008,35956,0
1984,35987,0
1975,35973,0
1976,36010,0
2000,35999,0
2024,36009,0
2052,35993,0
2100,35993,0
2144,36014,0
2180,36008,0
2212,36028,0
2228,36011,0
2248,36031,0
2234,36022,0
2197,36030,0
2162,36035,0
2122,36028,0
2076,36064,0
2029,36050,0
1977,36079,0
1954,36061,0
1946,36077,0
1920,36063,0
1940,36083,0
1941,36091,0
1972,36081,0
2024,36091,0
2080,36106,0
2112,36096,0
2168,36104,0
2208,36118,0
2226,36103,0
2244,36144,0
2236,36125,0
2218,36151,0
2186,36131,0
2144,36154,0
2096,36140,0
2056,36134,0
2010,36176,0
1976,36177,0
1954,36188,0
1944,36178,0
1944,36194,0
1968,36184,0
1997,36206,0
2052,36184,0
2080,36171,0
2112,36221,0
2184,36212,0
2192,36235,0
2226,36223,0
2240,36243,0
2226,36233,0
2216,36254,0
2184,36247,0
2156,36272,0
2120,36266,0
2076,36268,0
2040,36273,0
2020,36295,0
2012,36277,0
1993,36303,0
2000,36298,0
2016,36325,0
2040,36306,0
2076,36311,0
2120,36338,0
2192,36335,0
2208,36351,0
2258,36331,0
2284,36364,0
2272,36341,0
2260,36351,0
2242,36362,0
2208,36356,0
2192,36391,0
2125,36373,0
2092,36388,0
2058,36367,0
2028,36393,0
2019,36371,0
2032,36364,0
2028,36384,0
2052,36388,0
2085,36407,0
2114,36389,0
2168,36417,0
2216,36396,0
2244,36392,0
2274,36411,0
2280,36426,0
2284,36415,0
2268,36403,0
2236,36424,0
2208,36399,0
2156,36385,0
2112,36421,0
2071,36395,0
2028,36424,0
2032,36411,0
2008,36435,0
1992,36396,0
2018,36426,0
2046,36398,0
2068,36390,0
2112,36411,0
2160,36402,0
2209,36420,0
2254,36398,0
2272,36405,0
2280,36387,0
2292,36378,0
2264,36386,0
2253,36379,0
2184,36396,0
2164,36365,0
2096,36392,0
2042,36374,0
2008,36386,0
1988,36361,0
1984,36366,0
1972,36362,0
1992,36363,0
2013,36350,0
2064,36381,0
2104,36362,0
2152,36377,0
2196,36353,0
2248,36367,0
2250,36340,0
2300,36333,0
2280,36361,0
2256,36348,0
2225,36369,0
2192,36344,0
2144,36361,0
2112,36343,0
2068,36333,0
2032,36342,0
2012,36323,0
1992,36362,0
1996,36341,0
2001,36358,0
2016,36348,0
2050,36356,0
2104,36339,0
2180,36315,0
2184,36352,0
2216,36337,0
2248,36359,0
2260,36350,0
2252,36351,0
2240,36357,0
2216,36333,0
2172,36364,0
2132,36338,0
2090,36339,0
2044,36331,0
2008,36330,0
1990,36364,0
1954,36340,0
1941,36355,0
1928,36337,0
1944,36364,0
1972,36337,0
2000,36324,0
2024,36348,0
2046,36334,0
2072,36366,0
2084,36343,0
2084,36372,0
2066,36345,0
2042,36374,0
2004,36342,0
1968,36333,0
1914,36374,0
1888,36355,0
1861,36383,0
1832,36358,0
1860,36389,0
1890,36364,0
2038,36426,0
2156,36384,0
2324,36371,0
2500,36384,0
2700,36392,0
2904,36394,0
3114,36380,0
3312,36407,0
3496,36385,0
3664,36375,0
3824,36387,0
3993,36392,0
3976,36426,0
4016,36402,0
3984,36422,0
4016,36397,0
3996,36426,0
4016,36398,0
3992,36380,0
4004,36423,0
4032,36408,0
4024,36440,0
4024,36415,0
4024,36437,0
4024,36410,0
4016,36421,0
4017,36418,0
4010,36412,0
4016,36437,0
4008,36423,0
4032,36427,0
4008,36414,0
3968,36426,0
3940,36422,0
3836,36410,0
3656,36434,0
3460,36422,0
3258,36422,0
3052,36409,0
2852,36410,0
2672,36429,0
2559,36416,0
2408,36431,0
2328,36400,0
2296,36423,0
2228,36408,0
2208,36408,0
2200,36418,0
2184,36405,0
2192,36424,0
2144,36404,0
2112,36424,0
2080,36398,0
2040,36380,0
2005,36397,0
1970,36389,0
1931,36410,0
1904,36397,0
1884,36412,0
1888,36391,0
1873,36400,0
1900,36391,0
1936,36362,0
1960,36395,0
1992,36389,0
2020,36395,0
2044,36372,0
2060,36386,0
2046,36388,0
2030,36367,0
2000,36357,0
1948,36394,0
1904,36374,0
1872,36390,0
1828,36370,0
1780,36389,0
1768,36367,0
1750,36377,0
1760,36363,0
1770,36351,0
1800,36383,0
1824,36377,0
1876,36387,0
1918,36371,0
1964,36394,0
2000,36358,0
2026,36361,0
2042,36373,0
2040,36366,0
2028,36402,0
1988,36364,0
1940,36397,0
1888,36382,0
1850,36390,0
1808,36383,0
1768,36373,0
1746,36393,0
1724,36416,0
1720,36385,0
1730,36387,0
1760,36403,0
1800,36409,0
1842,36387,0
1892,36415,0
1944,36380,0
1986,36367,0
2016,36411,0
2042,36393,0
2032,36417,0
2024,36392,0
2002,36410,0
1956,36385,0
1930,36393,0
1876,36386,0
1828,36376,0
1796,36407,0
1764,36382,0
1744,36394,0
1744,36385,0
1750,36403,0
1764,36377,0
1798,36363,0
1846,36398,0
1898,36365,0
1922,36389,0
1976,36371,0
2012,36403,0
2032,36361,0
2016,36379,0
2008,36393,0
1984,36378,0
1948,36377,0
1904,36400,0
1848,36367,0
1816,36356,0
1781,36392,0
1760,36362,0
1746,36384,0
1768,36363,0
1776,36375,0
1796,36364,0
1833,36349,0
1906,36376,0
1920,36362,0
1976,36379,0
2006,36359,0
2046,36380,0
2044,36355,0
2046,36348,0
2024,36370,0
1988,36357,0
1936,36384,0
1892,36362,0
1848,36374,0
1810,36363,0
1776,36378,0
1728,36361,0
1744,36349,0
1747,36384,0
1748,36374,0
1780,36362,0
1836,36391,0
1876,36399,0
1928,36377,0
1980,36362,0
2036,36396,0
2047,36382,0
2064,36397,0
2064,36390,0
2041,36374,0
2008,36426,0
1968,36391,0
1912,36426,0
1858,36406,0
1832,36423,0
1772,36405,0
1744,36394,0
1736,36432,0
1744,36411,0
1748,36447,0
1788,36420,0
1832,36452,0
1880,36424,0
1928,36425,0
1978,36435,0
2024,36424,0
2048,36462,0
2065,36441,0
2060,36458,0
2042,36445,0
2010,36446,0
1956,36447,0
1920,36448,0
1864,36459,0
1828,36478,0
1798,36477,0
1770,36362,0
1772,36461,0
1764,36490,0
1780,36467,0
1808,36498,0
1850,36473,0
1892,36467,0
1945,36503,0
1996,36489,0
2032,36508,0
2064,36493,0
2048,36510,0
2072,36506,0
2048,36495,0
2008,36533,0
1969,36523,0
1924,36520,0
1872,36517,0
1840,36540,0
1808,36518,0
1792,36500,0
1776,36539,0
1788,36521,0
1812,36539,0
1826,36518,0
1892,36539,0
1942,36504,0
1992,36500,0
2040,36524,0
2072,36529,0
2104,36516,0
2098,36513,0
2104,36536,0
2080,36540,0
2040,36514,0
1984,36531,0
1952,36508,0
1906,36531,0
1864,36507,0
1840,36492,0
1816,36526,0
1812,36504,0
1828,36522,0
1848,36500,0
1896,36527,0
1938,36494,0
1984,36482,0
2036,36495,0
2076,36492,0
2114,36519,0
2128,36496,0
2144,36499,0
2130,36479,0
2101,36496,0
2064,36471,0
2016,36461,0
1968,36501,0
1922,36471,0
1892,36487,0
1856,36465,0
1832,36460,0
1832,36467,0
1833,36470,0
1836,36454,0
1900,36450,0
1936,36426,0
1994,36461,0
2036,36437,0
2096,36443,0
2120,36422,0
2148,36446,0
2156,36410,0
2145,36412,0
2116,36405,0
2072,36403,0
2038,36433,0
1994,36409,0
1940,36414,0
1904,36402,0
1898,36416,0
1856,36392,0
1846,36380,0
1856,36422,0
1874,36390,0
1902,36407,0
1962,36393,0
2008,36418,0
2064,36390,0
2120,36392,0
2146,36407,0
2165,36389,0
2176,36415,0
2160,36401,0
2136,36406,0
2096,36435,0
2056,36435,0
2005,36436,0
1957,36416,0
1920,36441,0
1892,36423,0
1888,36406,0
1872,36448,0
1892,36446,0
1919,36459,0
1960,36455,0
2000,36469,0
2060,36452,0
2104,36458,0
2152,36467,0
2184,36471,0
2204,36499,0
2200,36486,0
2186,36515,0
2160,36492,0
2118,36517,0
2080,36494,0
2032,36502,0
1985,36517,0
1944,36512,0
1928,36535,0
1892,36518,0
1921,36537,0
1921,36517,0
2000,36458,0
2032,36526,0
2076,36532,0
2122,36548,0
2168,36536,0
2196,36548,0
2216,36533,0
2206,36541,0
2196,36530,0
2160,36540,0
2128,36534,0
2074,36505,0
2028,36536,0
1984,36529,0
1944,36556,0
1924,36517,0
1908,36548,0
1904,36506,0
1920,36525,0
1944,36515,0
2000,36496,0
2048,36542,0
2084,36509,0
2129,36523,0
2160,36489,0
2200,36512,0
2204,36488,0
2204,36472,0
2182,36492,0
2162,36469,0
2108,36494,0
2056,36462,0
2016,36458,0
1968,36451,0
1940,36458,0
1916,36452,0
1898,36443,0
1904,36411,0
1916,36437,0
1956,36418,0
1992,36423,0
2026,36402,0
2080,36405,0
2138,36387,0
2176,36365,0
2200,36369,0
2208,36353,0
2208,36389,0
2196,36355,0
2160,36367,0
2120,36330,0
2080,36334,0
2032,36322,0
1978,36309,0
1946,36338,0
1936,36301,0
1920,36313,0
1914,36287,0
1936,36294,0
1962,36275,0
2002,36261,0
2052,36296,0
2102,36269,0
2160,36278,0
2196,36250,0
2224,36253,0
2234,36266,0
2236,36260,0
2200,36233,0
2168,36239,0
2120,36221,0
1968,36251,0
2020,36216,0
1974,36237,0
1932,36227,0
1909,36205,0
1900,36210,0
1904,36212,0
1936,36230,0
1954,36202,0
2004,36208,0
2050,36190,0
2104,36178,0
2152,36204,0
2200,36177,0
2224,36201,0
2244,36180,0
2230,36200,0
2216,36175,0
2178,36174,0
2130,36173,0
2088,36151,0
2026,36192,0
1998,36161,0
1961,36172,0
1932,36157,0
1928,36163,0
1936,36157,0
1956,36153,0
1988,36171,0
2020,36168,0
2076,36153,0
2120,36169,0
2160,36140,0
2192,36163,0
2216,36142,0
2228,36125,0
2220,36142,0
2200,36140,0
2152,36170,0
2112,36139,0
2080,36158,0
2028,36138,0
1984,36150,0
1972,36138,0
1956,36139,0
1948,36156,0
1952,36142,0
1976,36172,0
2002,36142,0
2050,36161,0
2093,36151,0
2136,36135,0
2184,36172,0
2224,36161,0
2232,36174,0
2232,36156,0
2216,36182,0
2194,36144,0
2156,36159,0
2104,36162,0
2064,36160,0
2024,36182,0
1980,36168,0
1952,36151,0
1936,36195,0
1930,36164,0
1942,36197,0
1964,36167,0
2003,36196,0
2052,36183,0
2096,36165,0
2156,36180,0
2196,36168,0
2228,36191,0
2248,36184,0
2257,36192,0
2244,36171,0
2208,36184,0
2180,36170,0
2140,36159,0
2088,36194,0
2042,36161,0
2002,36187,0
1980,36167,0
1960,36190,0
1940,36174,0
1968,36143,0
1986,36184,0
2024,36165,0
2076,36165,0
2120,36152,0
2168,36158,0
2208,36153,0
2224,36166,0
2256,36154,0
2248,36140,0
2236,36122,0
2216,36166,0
2173,36131,0
2128,36147,0
2088,36128,0
2040,36142,0
2002,36109,0
1992,36092,0
1960,36113,0
1952,36100,0
1960,36118,0
1972,36093,0
2016,36109,0
2054,36082,0
2112,36053,0
2152,36071,0
2182,36062,0
2209,36073,0
2229,36038,0
2232,36045,0
2218,36022,0
2202,36005,0
2156,36025,0
2112,36002,0
2080,36026,0
2026,36000,0
1984,36005,0
1952,35985,0
1936,35979,0
1938,35989,0
1948,35970,0
1968,35954,0
2010,35989,0
2056,35970,0
2116,35971,0
2168,35954,0
2223,35962,0
2244,35936,0
2264,35924,0
2272,35946,0
2256,35932,0
2224,35948,0
2184,35924,0
2136,35944,0
2090,35908,0
2044,35917,0
2020,35920,0
2004,35905,0
2006,35931,0
2006,35914,0
2024,35917,0
2056,35895,0
2092,35908,0
2140,35898,0
2192,35894,0
2230,35914,0
2272,35890,0
2292,35909,0
2300,35884,0
2304,35889,0
2278,35893,0
2248,35942,0
2192,35890,0
2160,35886,0
2104,35886,0
2060,35888,0
2036,35906,0
2005,35897,0
1986,35900,0
1996,35894,0
2002,35902,0
2036,35901,0
2076,35893,0
2128,35920,0
2176,35908,0
2228,35922,0
2272,35892,0
2292,35921,0
2306,35905,0
2306,35888,0
2280,35928,0
2252,35900,0
2194,35921,0
2156,35910,0
2112,35925,0
2064,35912,0
2040,35890,0
2004,35935,0
1984,35907,0
1984,35914,0
1997,35897,0
2028,35910,0
2068,35912,0
2116,35924,0
2156,35905,0
2208,35912,0
2234,35897,0
2264,35889,0
2276,35930,0
2280,35907,0
2255,35927,0
2208,35901,0
2177,35926,0
2128,35893,0
2085,35878,0
2044,35921,0
2012,35892,0
2000,35908,0
1985,35882,0
1992,35915,0
2009,35878,0
2040,35863,0
2088,35889,0
2132,35879,0
2185,35898,0
2229,35869,0
2252,35894,0
2274,35863,0
2292,35855,0
2278,35867,0
2224,35828,0
2168,35860,0
2120,35853,0
2074,35869,0
2036,35861,0
1997,35866,0
1992,35848,0
1976,35829,0
1976,35864,0
2000,35846,0
2025,35869,0
2079,35843,0
2124,35864,0
2170,35837,0
2220,35818,0
2244,35857,0
2266,35836,0
2274,35856,0
2264,35834,0
2240,35860,0
2208,35825,0
2164,35836,0
2114,35837,0
2074,35826,0
2029,35862,0
2004,35827,0
1978,35856,0
1976,35837,0
1969,35836,0
2008,35827,0
2013,35820,0
2064,35852,0
2108,35766,0
2148,35826,0
2184,35844,0
2196,35819,0
2204,35821,0
2208,35818,0
2176,35812,0
2137,35819,0
2088,35806,0
2020,35823,0
1961,35801,0
1894,35797,0
1836,35795,0
1800,35788,0
1768,35811,0
1752,35797,0
1760,35808,0
1785,35784,0
1840,35801,0
1900,35783,0
1976,35767,0
2070,35801,0
2162,35782,0
2272,35800,0
2368,35780,0
2483,35798,0
2608,35765,0
2713,35759,0
2842,35780,0
2946,35777,0
3062,35785,0
3216,35766,0
3324,35766,0
3464,35756,0
3632,35781,0
3800,35752,0
3976,35748,0
4000,35732,0
4000,35758,0
3992,35730,0
4000,35742,0
3996,35721,0
4008,35733,0
4001,35710,0
4000,35700,0
4020,35724,0
3992,35699,0
4024,35711,0
4004,35693,0
4016,35696,0
4000,35691,0
4000,35663,0
3988,35691,0
4016,35664,0
4016,35676,0
4009,35647,0
3992,35664,0
3936,35648,0
3820,35632,0
3680,35664,0
3514,35643,0
3366,35653,0
3164,35624,0
2984,35622,0
2796,35625,0
2624,35620,0
2460,35613,0
2314,35617,0
2192,35595,0
2084,35615,0
1996,35593,0
1932,35606,0
1897,35571,0
1872,35576,0
1868,35573,0
1877,35568,0
1904,35590,0
1940,35569,0
1976,35586,0
2032,35568,0
2072,35585,0
2120,35550,0
2144,35536,0
2148,35571,0
2156,35548,0
2138,35557,0
2091,35540,0
2053,35560,0
1996,35531,0
1930,35527,0
1874,35551,0
1828,35529,0
1768,35542,0
1768,35518,0
1744,35536,0
1736,35517,0
1753,35519,0
1778,35540,0
1826,35508,0
1874,35506,0
1924,35495,0
1976,35501,0
2020,35520,0
2044,35492,0
2056,35513,0
2060,35486,0
2040,35466,0
2008,35509,0
1956,35480,0
1904,35491,0
1852,35481,0
1800,35482,0
1762,35463,0
1736,35447,0
1704,35491,0
1720,35464,0
1728,35470,0
1753,35439,0
1792,35457,0
1861,35443,0
1900,35428,0
1954,35464,0
2002,35441,0
2032,35446,0
2044,35433,0
2046,35455,0
2024,35425,0
1988,35410,0
1952,35420,0
1900,35425,0
1852,35408,0
1800,35445,0
1770,35427,0
1746,35448,0
1720,35419,0
1736,35404,0
1740,35445,0
1768,35412,0
1808,35434,0
1848,35424,0
1912,35433,0
1952,35412,0
2000,35394,0
2032,35430,0
2047,35404,0
2058,35421,0
2037,35395,0
2008,35415,0
1976,35393,0
1912,35377,0
1865,35408,0
1812,35389,0
1770,35403,0
1748,35380,0
1740,35406,0
1744,35373,0
1740,35359,0
1798,35392,0
1832,35371,0
1864,35395,0
1916,35367,0
1964,35384,0
2002,35375,0
2032,35367,0
2040,35427,0
2038,35382,0
2018,35354,0
1981,35332,0
1940,35355,0
1888,35361,0
1856,35371,0
1810,35348,0
1780,35357,0
1752,35336,0
1744,35322,0
1740,35350,0
1768,35337,0
1792,35362,0
1860,35330,0
1898,35344,0
1944,35323,0
2000,35323,0
2022,35334,0
2088,35322,0
2102,35346,0
2066,35321,0
2029,35335,0
2000,35318,0
1940,35291,0
1900,35324,0
1864,35316,0
1810,35326,0
1800,35285,0
1749,35311,0
1748,35299,0
1754,35334,0
1780,35330,0
1812,35331,0
1852,35310,0
1904,35318,0
1958,35299,0
2002,35303,0
2028,35302,0
2059,35306,0
2072,35330,0
2056,35301,0
2040,35325,0
1992,35299,0
1946,35308,0
1896,35308,0
1852,35294,0
1808,35328,0
1772,35302,0
1752,35320,0
1741,35310,0
1760,35306,0
1773,35302,0
1804,35299,0
1852,35327,0
1908,35307,0
1944,35319,0
2028,35299,0
2048,35314,0
2072,35300,0
2088,35307,0
2080,35295,0
2064,35291,0
2020,35311,0
1976,35290,0
1932,35293,0
1892,35320,0
1846,35295,0
1816,35318,0
1800,35290,0
1788,35274,0
1802,35309,0
1820,35296,0
1860,35304,0
1900,35295,0
1956,35298,0
2004,35291,0
2047,35268,0
2092,35280,0
2112,35275,0
2122,35299,0
2112,35271,0
2072,35288,0
2036,35261,0
1993,35263,0
1942,35266,0
1884,35250,0
1844,35279,0
1792,35246,0
1800,35269,0
1798,35250,0
1804,35248,0
1840,35244,0
1880,35233,0
1924,35231,0
1970,35225,0
2020,35207,0
2068,35235,0
2104,35212,0
2130,35222,0
2138,35198,0
2130,35204,0
2104,35186,0
2079,35180,0
2028,35216,0
1976,35171,0
1940,35190,0
1896,35170,0
1877,35167,0
1856,35150,0
1856,35144,0
1876,35169,0
1906,35134,0
1932,35150,0
1980,35121,0
2040,35117,0
2082,35113,0
2120,35110,0
2160,35126,0
2172,35099,0
2184,35116,0
2145,35100,0
2120,35092,0
2028,35016,0
1948,35070,0
1930,35066,0
1901,35078,0
1872,35051,0
1856,35085,0
1864,35058,0
1873,35074,0
1896,35054,0
1938,35068,0
1976,35039,0
2025,35021,0
2080,35067,0
2124,35031,0
2144,35056,0
2168,35025,0
2164,35045,0
2144,35015,0
2112,35001,0
2076,35029,0
2024,35025,0
2008,35034,0
1938,35002,0
1908,35035,0
1894,34998,0
1868,34991,0
1878,35017,0
1892,35014,0
1906,35018,0
1960,35007,0
2012,35037,0
2064,35000,0
2116,35016,0
2161,35004,0
2176,35016,0
2204,35010,0
2212,35016,0
2176,35010,0
2160,34995,0
2120,35039,0
2068,35017,0
2024,35040,0
1985,35023,0
1944,35045,0
1928,35027,0
1908,35014,0
1906,35055,0
1928,35035,0
1958,35057,0
2000,35034,0
2042,35061,0
2080,35044,0
2136,35026,0
2168,35072,0
2188,35063,0
2216,35081,0
2200,35058,0
2184,35078,0
2152,35054,0
2112,35052,0
2066,35083,0
2020,35065,0
1978,35098,0
1940,35076,0
1928,35086,0
1922,35051,0
1928,35094,0
1944,35090,0
1960,35105,0
2010,35085,0
2060,35074,0
2106,35097,0
2156,35083,0
2208,35112,0
2234,35090,0
2245,35117,0
2240,35099,0
2210,35087,0
2180,35117,0
2132,35107,0
2080,35135,0
2020,35116,0
1976,35137,0
1945,35115,0
1918,35116,0
1908,35139,0
1916,35134,0
1932,35175,0
1968,35146,0
2016,35185,0
2064,35156,0
2114,35175,0
2202,35171,0
2234,35163,0
2229,35207,0
2244,35190,0
2232,35181,0
2212,35187,0
2180,35211,0
2132,35218,0
2084,35231,0
2034,35208,0
1994,35232,0
1962,35221,0
1932,35252,0
1920,35231,0
1930,35259,0
1952,35236,0
1992,35239,0
2026,35234,0
2084,35236,0
2136,35270,0
2180,35258,0
2209,35269,0
2228,35258,0
2242,35290,0
2232,35262,0
2200,35241,0
2162,35285,0
2112,35271,0
2066,35292,0
2010,35279,0
1962,35305,0
1944,35284,0
1900,35290,0
1916,35291,0
1928,35281,0
1944,35313,0
1996,35319,0
2032,35295,0
2088,35311,0
2144,35300,0
2192,35320,0
2236,35305,0
2248,35326,0
2256,35300,0
2240,35306,0
2218,35315,0
2168,35305,0
2128,35338,0
2080,35309,0
2028,35322,0
1992,35304,0
1960,35307,0
1928,35308,0
1940,35292,0
1938,35323,0
1968,35301,0
2010,35324,0
2056,35300,0
2104,35329,0
2162,35292,0
2196,35271,0
2228,35314,0
2250,35286,0
2252,35306,0
2257,35292,0
2218,35303,0
2176,35270,0
2128,35251,0
2080,35283,0
2040,35295,0
2004,35282,0
1970,35278,0
1961,35290,0
1952,35296,0
1964,35269,0
1988,35281,0
2024,35247,0
2064,35238,0
2116,35274,0
2169,35259,0
2204,35273,0
2244,35255,0
2276,35271,0
2272,35250,0
2248,35259,0
2240,35251,0
2184,35250,0
2136,35277,0
2088,35267,0
2048,35273,0
1996,35253,0
1976,35266,0
1954,35274,0
1952,35256,0
1974,35286,0
1996,35271,0
2032,35294,0
2090,35274,0
2132,35278,0
2186,35283,0
2220,35288,0
2256,35259,0
2274,35301,0
2274,35279,0
2266,35292,0
2232,35293,0
2184,35280,0
2144,35305,0
2092,35302,0
2047,35320,0
2016,35309,0
1986,35326,0
1976,35304,0
1972,35310,0
1980,35325,0
2008,35320,0
2047,35345,0
2104,35328,0
2160,35355,0
2192,35337,0
2240,35342,0
2272,35351,0
2284,35338,0
2288,35366,0
2261,35340,0
2232,35380,0
2186,35352,0
2136,35349,0
2100,35370,0
2049,35372,0
2012,35397,0
1984,35375,0
1964,35397,0
1960,35373,0
1976,35390,0
2001,35386,0
2040,35417,0
2084,35401,0
2136,35432,0
2200,35404,0
2240,35399,0
2252,35423,0
2264,35425,0
2272,35448,0
2236,35438,0
2224,35449,0
2176,35437,0
2133,35444,0
2088,35462,0
2056,35453,0
2032,35486,0
2002,35476,0
1992,35490,0
1988,35474,0
2000,35476,0
2021,35498,0
2065,35497,0
2112,35528,0
2160,35502,0
2208,35526,0
2256,35510,0
2273,35496,0
2282,35549,0
2288,35532,0
2260,35544,0
2226,35542,0
2184,35556,0
2132,35552,0
2088,35580,0
2040,35551,0
2010,35581,0
1988,35570,0
1980,35561,0
1993,35583,0
2000,35573,0
2059,35605,0
2100,35582,0
2156,35616,0
2212,35599,0
2272,35576,0
2312,35614,0
2336,35603,0
2336,35626,0
2336,35617,0
2312,35638,0
2281,35624,0
2236,35606,0
2180,35655,0
2128,35646,0
2092,35650,0
2064,35643,0
2056,35669,0
2033,35640,0
2054,35631,0
2070,35671,0
2144,35622,0
2188,35665,0
2240,35652,0
2288,35650,0
2320,35686,0
2344,35675,0
2352,35668,0
2336,35684,0
2328,35652,0
2285,35686,0
2236,35656,0
2192,35645,0
2140,35680,0
2112,35644,0
2072,35679,0
2042,35654,0
2032,35667,0
2040,35648,0
2068,35640,0
2092,35681,0
2128,35649,0
2200,35663,0
2220,35635,0
2276,35651,0
2294,35640,0
2312,35631,0
2316,35664,0
2308,35645,0
2298,35651,0
2242,35636,0
2200,35641,0
2160,35636,0
2104,35622,0
2072,35642,0
2040,35649,0
2012,35649,0
2016,35625,0
2024,35633,0
2046,35647,0
2073,35623,0
2128,35643,0
2173,35617,0
2216,35611,0
2260,35649,0
2292,35626,0
2336,35651,0
2330,35615,0
2304,35636,0
2280,35614,0
2240,35609,0
2184,35643,0
2144,35611,0
2100,35634,0
2064,35605,0
2036,35617,0
2024,35609,0
2012,35614,0
2032,35636,0
2050,35624,0
2096,35640,0
2129,35614,0
2188,35615,0
2226,35615,0
2276,35618,0
2300,35613,0
2316,35644,0
2324,35606,0
2312,35642,0
2292,35624,0
2256,35647,0
2212,35621,0
2168,35615,0
2112,35632,0
2076,35628,0
2046,35631,0
2033,35621,0
2032,35641,0
2032,35620,0
2056,35605,0
2090,35643,0
2136,35623,0
2176,35636,0
2234,35620,0
2272,35640,0
2288,35608,0
2312,35610,0
2324,35639,0
2276,35625,0
2228,35625,0
2178,35618,0
2114,35620,0
2056,35622,0
1984,35624,0
1946,35646,0
1892,35628,0
1860,35639,0
1848,35565,0
4020,35558,0
4024,35578,0
4020,35555,0
4024,35562,0
4021,35543,0
4018,35557,0
4024,35539,0
4016,35531,0
4016,35557,0
4016,35538,0
4020,35542,0
4005,35525,0
4008,35532,0
4000,35520,0
3960,35521,0
3864,35536,0
3724,35513,0
3600,35535,0
3380,35509,0
3172,35508,0
2976,35519,0
2760,35504,0
2569,35528,0
2396,35507,0
2256,35525,0
2144,35483,0
2058,35484,0
2012,35496,0
1980,35485,0
1984,35503,0
2006,35479,0
2040,35502,0
2088,35469,0
2137,35469,0
2176,35469,0
2208,35469,0
2228,35496,0
2240,35496,0
2224,35496,0
2184,35496,0
2129,35496,0
2080,35496,0
2008,35496,0
1955,35468,0
1892,35468,0
1844,35468,0
1826,35468,0
1789,35468,0
1791,35468,0
1800,35468,0
1828,35469,0
1868,35469,0
1916,35469,0
1968,35469,0
2016,35469,0
2049,35469,0
2080,35469,0
2088,35497,0
2080,35471,0
2066,35471,0
2020,35471,0
1978,35471,0
1925,35471,0
1876,35471,0
1840,35476,0
1808,35465,0
1788,35489,0
1768,35470,0
1776,35493,0
1792,35461,0
1824,35488,0
1868,35469,0
1896,35462,0
1954,35496,0
2008,35465,0
2048,35489,0
2072,35465,0
2074,35472,0
2068,35473,0
2040,35476,0
2002,35493,0
1936,35480,0
1904,35498,0
1856,35481,0
1820,35488,0
1786,35480,0
1760,35472,0
1748,35519,0
1757,35504,0
1780,35513,0
1808,35496,0
1852,35516,0
2064,35493,0
2068,35510,0
2064,35518,0
2034,35512,0
2000,35491,0
1960,35516,0
1912,35500,0
1856,35497,0
1800,35535,0
1781,35509,0
1756,35526,0
1731,35506,0
1746,35522,0
1776,35507,0
1804,35507,0
1860,35535,0
1912,35522,0
1968,35534,0
2008,35514,0
2049,35540,0
2080,35520,0
2080,35522,0
2061,35543,0
2041,35529,0
2000,35557,0
1939,35529,0
1904,35540,0
1854,35525,0
1788,35526,0
1784,35547,0
1766,35523,0
1754,35544,0
1762,35544,0
1790,35512,0
1824,35520,0
1872,35516,0
1924,35510,0
1980,35530,0
2024,35513,0
2040,35496,0
2072,35542,0
2074,35511,0
2060,35528,0
2036,35501,0
2000,35525,0
1932,35504,0
1900,35490,0
1914,35522,0
1804,35506,0
1785,35514,0
1768,35494,0
1764,35518,0
1786,35493,0
1800,35472,0
1822,35524,0
1896,35499,0
1945,35517,0
1997,35503,0
2042,35511,0
2072,35498,0
2100,35481,0
2092,35529,0
2082,35498,0
2008,35479,0
1968,35489,0
1912,35500,0
1864,35500,0
1824,35505,0
1802,35521,0
1781,35503,0
1772,35522,0
1768,35494,0
1820,35478,0
1860,35509,0
1907,35504,0
1976,35517,0
2016,35489,0
2064,35517,0
2088,35489,0
2104,35471,0
2112,35519,0
2096,35488,0
2068,35514,0
2024,35492,0
1973,35489,0
1921,35487,0
1888,35492,0
1848,35510,0
1816,35495,0
1812,35505,0
1812,35486,0
1808,35473,0
1846,35503,0
1898,35490,0
1936,35501,0
1992,35425,0
2053,35509,0
2090,35499,0
2120,35478,0
2148,35502,0
2148,35492,0
2121,35470,0
2088,35495,0
2056,35469,0
1996,35442,0
1952,35488,0
1896,35472,0
1868,35486,0
1842,35468,0
1816,35486,0
1828,35471,0
1840,35442,0
1872,35477,0
1906,35456,0
1964,35464,0
2016,35452,0
2066,35450,0
2114,35461,0
2144,35446,0
2160,35462,0
2156,35450,0
2144,35459,0
2112,35443,0
2065,35417,0
2016,35446,0
1977,35433,0
1928,35458,0
1896,35425,0
1876,35442,0
1865,35439,0
1864,35425,0
1881,35450,0
1916,35448,0
1952,35432,0
2002,35440,0
2046,35418,0
2104,35405,0
2132,35438,0
2166,35415,0
2172,35443,0
2166,35417,0
2148,35426,0
2116,35402,0
2080,35389,0
2018,35420,0
1968,35414,0
1924,35418,0
1892,35395,0
1864,35397,0
1842,35386,0
1851,35362,0
1872,35396,0
1924,35373,0
1956,35384,0
1988,35356,0
2041,35360,0
2088,35354,0
2124,35335,0
2154,35369,0
2164,35329,0
2152,35322,0
2144,35345,0
2112,35316,0
2052,35315,0
2016,35311,0
1968,35293,0
1922,35329,0
1890,35307,0
1877,35320,0
1856,35302,0
1864,35320,0
1876,35281,0
1904,35273,0
1957,35289,0
1992,35288,0
2042,35307,0
2100,35275,0
2140,35297,0
2160,35266,0
2184,35239,0
2180,35274,0
2153,35254,0
2122,35282,0
2080,35251,0
2032,35259,0
1990,35239,0
1952,35230,0
1913,35258,0
1908,35238,0
1891,35249,0
1896,35234,0
1928,35226,0
1948,35242,0
1984,35248,0
2040,35246,0
2088,35231,0
2144,35211,0
2180,35257,0
2188,35221,0
2200,35249,0
2198,35222,0
2164,35235,0
2132,35217,0
2084,35219,0
2032,35248,0
1988,35229,0
1948,35243,0
1914,35220,0
1888,35203,0
1880,35221,0
1888,35220,0
1904,35250,0
1936,35225,0
1978,35246,0
2020,35216,0
2072,35223,0
2134,35228,0
2165,35220,0
2186,35247,0
2208,35223,0
2188,35244,0
2164,35229,0
2128,35231,0
2082,35220,0
2028,35236,0
1992,35228,0
1946,35231,0
1918,35228,0
1898,35248,0
1884,35225,0
1896,35242,0
1924,35219,0
1944,35216,0
2000,35230,0
2057,35214,0
2096,35247,0
2144,35220,0
2184,35238,0
2208,35214,0
2196,35194,0
2200,35223,0
2168,35212,0
2138,35236,0
2084,35217,0
2048,35225,0
2000,35204,0
1956,35200,0
1924,35228,0
1912,35209,0
1892,35222,0
1916,35220,0
1917,35228,0
1968,35198,0
2005,35189,0
2048,35232,0
2106,35207,0
2144,35220,0
2184,35202,0
2184,35208,0
2204,35228,0
2186,35200,0
2172,35185,0
2120,35211,0
2088,35214,0
2038,35220,0
1992,35205,0
1963,35226,0
1929,35195,0
1912,35181,0
1904,35217,0
1920,35211,0
1940,35219,0
1976,35207,0
2016,35219,0
2064,35195,0
2112,35193,0
2160,35212,0
2188,35204,0
2200,35229,0
2200,35205,0
2181,35239,0
2160,35200,0
2124,35200,0
2089,35241,0
2036,35214,0
1988,35232,0
1952,35213,0
1940,35209,0
1917,35236,0
1912,35238,0
1928,35216,0
1956,35248,0
1976,35217,0
2042,35248,0
2104,35214,0
2129,35202,0
2168,35258,0
2200,35235,0
2226,35256,0
2216,35223,0
2200,35240,0
2172,35231,0
2122,35213,0
2080,35247,0
2032,35229,0
1984,35245,0
1948,35235,0
1921,35247,0
1900,35237,0
1904,35214,0
1931,35261,0
1948,35239,0
1992,35252,0
2048,35229,0
2085,35254,0
2152,35233,0
2188,35214,0
2210,35262,0
2212,35242,0
2220,35257,0
2200,35242,0
2176,35228,0
2124,35238,0
2080,35230,0
2032,35219,0
1988,35256,0
1952,35241,0
1932,35242,0
1920,35227,0
1924,35248,0
1950,35234,0
1976,35224,0
2016,35254,0
2064,35230,0
2116,35252,0
2176,35219,0
2212,35217,0
2232,35223,0
2252,35221,0
2248,35252,0
2220,35232,0
2189,35239,0
2146,35228,0
2104,35233,0
2048,35225,0
2028,35219,0
1980,35246,0
1940,35231,0
1930,35244,0
1932,35230,0
1944,35217,0
1980,35235,0
2012,35240,0
2068,35223,0
2120,35242,0
2162,35229,0
2192,35252,0
2224,35235,0
2232,35249,0
2228,35219,0
2208,35225,0
2168,35246,0
2133,35231,0
2080,35262,0
2036,35238,0
1996,35253,0
1968,35244,0
1946,35249,0
1936,35247,0
1928,35246,0
1964,35269,0
1992,35261,0
2034,35276,0
2088,35258,0
2129,35253,0
2180,35282,0
2204,35272,0
2232,35293,0
2236,35276,0
2244,35296,0
2208,35281,0
2180,35265,0
2080,35374,0
2038,35307,0
2000,35304,0
1964,35304,0
1948,35295,0
1928,35327,0
1936,35315,0
1954,35330,0
1980,35317,0
2045,35340,0
2068,35321,0
2125,35316,0
2164,35362,0
2212,35339,0
2228,35355,0
2242,35343,0
2244,35363,0
2208,35350,0
2168,35333,0
2130,35365,0
2073,35357,0
2029,35372,0
1984,35353,0
1948,35382,0
1930,35351,0
1914,35336,0
1926,35387,0
1941,35353,0
1968,35366,0
2024,35352,0
2072,35370,0
2121,35359,0
2184,35374,0
2216,35350,0
2240,35367,0
2250,35348,0
2248,35349,0
2224,35381,0
2188,35357,0
2138,35373,0
2088,35357,0
2056,35344,0
2020,35367,0
2006,35358,0
1985,35379,0
1984,35371,0
1994,35384,0
2020,35359,0
2064,35351,0
2100,35384,0
2148,35369,0
2200,35391,0
2233,35381,0
2262,35394,0
2288,35380,0
2274,35366,0
2264,35386,0
2242,35377,0
2204,35406,0
2154,35382,0
2112,35405,0
2066,35384,0
2033,35400,0
2000,35378,0
1984,35382,0
1969,35415,0
1984,35393,0
2006,35395,0
2028,35365,0
2080,35387,0
2137,35411,0
2178,35390,0
2226,35374,0
2258,35414,0
2272,35392,0
2290,35404,0
2292,35383,0
2258,35398,0
2208,35386,0
2168,35377,0
2128,35405,0
2080,35387,0
2034,35398,0
2010,35374,0
1984,35360,0
1968,35393,0
1981,35376,0
2006,35386,0
2034,35375,0
2081,35384,0
2130,35363,0
2184,35343,0
2232,35386,0
2280,35359,0
2278,35365,0
2288,35349,0
2264,35366,0
2242,35338,0
2200,35362,0
2160,35354,0
2104,35334,0
2064,35337,0
2016,35358,0
1993,35327,0
1976,35307,0
1968,35341,0
1984,35324,0
2002,35334,0
2044,35324,0
2088,35335,0
2144,35314,0
2200,35293,0
2240,35326,0
2264,35311,0
2282,35327,0
2284,35296,0
2272,35328,0
2240,35299,0
2200,35285,0
2144,35317,0
2097,35288,0
2048,35308,0
2009,35290,0
1978,35283,0
1955,35291,0
1964,35286,0
1984,35306,0
2000,35290,0
2044,35293,0
2092,35298,0
2144,35301,0
2192,35287,0
2236,35296,0
2264,35286,0
2281,35308,0
2281,35285,0
2258,35304,0
2236,35276,0
2192,35263,0
2152,35291,0
2082,35288,0
2044,35291,0
2012,35269,0
1984,35283,0
1964,35267,0
1952,35257,0
1968,35287,0
1988,35262,0
2012,35281,0
2048,35267,0
2088,35276,0
2116,35256,0
2144,35251,0
2150,35275,0
2146,35255,0
2138,35279,0
2114,35250,0
2040,35274,0
1996,35241,0
1928,35238,0
1880,35267,0
1820,35251,0
1784,35257,0
1752,35253,0
1748,35250,0
1746,35264,0
1785,35239,0
1844,35263,0
1908,35239,0
2002,35217,0
2096,35242,0
2223,35230,0
2340,35254,0
2464,35227,0
2600,35258,0
2738,35233,0
2856,35210,0
2996,35252,0
3104,35238,0
3216,35253,0
3328,35234,0
3472,35236,0
3600,35227,0
3744,35228,0
3906,35254,0
4008,35239,0
4020,35256,0
4008,35238,0
4012,35224,0
4008,35249,0
4008,35246,0
4032,35261,0
4008,35272,0
4008,35280,0
3992,35241,0
3992,35271,0
4008,35276,0
3996,35288,0
3992,35253,0
3988,35258,0
3984,35270,0
3976,35274,0
3960,35282,0
3896,35280,0
3760,35290,0
3632,35273,0
3454,35260,0
3304,35284,0
3140,35277,0
3000,35300,0
2856,35277,0
2736,35303,0
2624,35281,0
2532,35274,0
2477,35315,0
2356,35289,0
2277,35310,0
2216,35286,0
2144,35294,0
2080,35292,0
2024,35303,0
1992,35332,0
1962,35295,0
1936,35336,0
1928,35304,0
1924,35319,0
1938,35332,0
1961,35311,0
1992,35310,0
2028,35318,0
2056,35318,0
2082,35315,0
2104,35352,0
2108,35329,0
2092,35341,0
2072,35313,0
2044,35295,0
1992,35340,0
1940,35330,0
1880,35340,0
1825,35322,0
1776,35348,0
1752,35324,0
1722,35314,0
1720,35356,0
1728,35332,0
1746,35354,0
1778,35329,0
1829,35338,0
1874,35328,0
1930,35321,0
1980,35349,0
2001,35330,0
2037,35348,0
2036,35335,0
2020,35314,0
1988,35335,0
1957,35336,0
1900,35337,0
1846,35331,0
1800,35361,0
1756,35340,0
1716,35351,0
1700,35345,0
1700,35333,0
1704,35366,0
1716,35348,0
1769,35367,0
1812,35350,0
1848,35368,0
1922,35348,0
1964,35355,0
2008,35379,0
2016,35368,0
2020,35382,0
2008,35355,0
1976,35355,0
1937,35364,0
1890,35364,0
1832,35389,0
1784,35365,0
1754,35380,0
1714,35356,0
1706,35352,0
1698,35376,0
1720,35369,0
1744,35392,0
1844,35316,0
1882,35372,0
1928,35361,0
1981,35365,0
2008,35377,0
2028,35361,0
2037,35363,0
2018,35374,0
1985,35369,0
1940,35373,0
1892,35352,0
1852,35326,0
1796,35380,0
1753,35351,0
1721,35365,0
1706,35341,0
1712,35373,0
1712,35340,0
1760,35317,0
1800,35354,0
1828,35334,0
1888,35341,0
1939,35324,0
1977,35320,0
2005,35330,0
2016,35313,0
2016,35340,0
2012,35324,0
1952,35327,0
1922,35305,0
1882,35298,0
1824,35320,0
1790,35316,0
1754,35327,0
1734,35318,0
1689,35308,0
1714,35304,0
1738,35297,0
1760,35300,0
1796,35319,0
1844,35293,0
1892,35318,0
1964,35304,0
1984,35288,0
2016,35317,0
2032,35315,0
2032,35320,0
2021,35298,0
1980,35318,0
1938,35296,0
1888,35291,0
1848,35334,0
1808,35303,0
1760,35322,0
1741,35308,0
1740,35307,0
1744,35310,0
1752,35306,0
1792,35326,0
1826,35305,0
1853,35334,0
1921,35305,0
1970,35311,0
2009,35328,0
2036,35331,0
2040,35342,0
2046,35322,0
2024,35328,0
1984,35337,0
1932,35323,0
1896,35313,0
1845,35349,0
1800,35346,0
1768,35367,0
1746,35343,0
1725,35358,0
1736,35348,0
1752,35330,0
1791,35381,0
1833,35370,0
1884,35375,0
1940,35362,0
2000,35384,0
2034,35371,0
2060,35361,0
2100,35403,0
2080,35391,0
2052,35412,0
2017,35385,0
1980,35386,0
1928,35410,0
1878,35401,0
1804,35426,0
1786,35405,0
1772,35424,0
1746,35405,0
1776,35404,0
1768,35412,0
1812,35415,0
1854,35421,0
1904,35415,0
1952,35419,0
2008,35405,0
2047,35439,0
2080,35417,0
2096,35453,0
2096,35432,0
2074,35446,0
2042,35427,0
2000,35409,0
1946,35452,0
1900,35440,0
1864,35450,0
1816,35442,0
1801,35462,0
1800,35446,0
1800,35430,0
1813,35479,0
1851,35452,0
1892,35465,0
1942,35449,0
2004,35456,0
2048,35451,0
2088,35452,0
2116,35473,0
2132,35451,0
2122,35484,0
2096,35440,0
2056,35453,0
2016,35461,0
1960,35439,0
1910,35449,0
1876,35445,0
1836,35450,0
1808,35464,0
1802,35443,0
1808,35463,0
1834,35443,0
1860,35433,0
1909,35466,0
1952,35443,0
2016,35464,0
2056,35435,0
2112,35442,0
2116,35430,0
2128,35434,0
2112,35454,0
2088,35433,0
2047,35447,0
2000,35433,0
1953,35397,0
1910,35442,0
1872,35430,0
1840,35441,0
1820,35419,0
1808,35438,0
1792,35413,0
1856,35402,0
1880,35428,0
1914,35422,0
1968,35440,0
2018,35408,0
2073,35415,0
2101,35413,0
2128,35402,0
2136,35428,0
2140,35397,0
2116,35401,0
2092,35382,0
2042,35374,0
1994,35403,0
1949,35372,0
1912,35387,0
1872,35361,0
1876,35356,0
1856,35363,0
1864,35356,0
1876,35369,0
1924,35345,0
1952,35368,0
1996,35340,0
2042,35312,0
2086,35345,0
2128,35330,0
2146,35343,0
2148,35324,0
2136,35340,0
2113,35315,0
2080,35304,0
2038,35344,0
1992,35316,0
1944,35339,0
1906,35332,0
1880,35312,0
1861,35311,0
1858,35321,0
1876,35307,0
1896,35323,0
1930,35301,0
1976,35292,0
2006,35305,0
2072,35303,0
2105,35325,0
2137,35302,0
2160,35316,0
2168,35291,0
2148,35286,0
2128,35306,0
2080,35288,0
2020,35313,0
1988,35299,0
1938,35321,0
1900,35292,0
1904,35283,0
1852,35313,0
1848,35289,0
1864,35315,0
1884,35291,0
1929,35300,0
1977,35288,0
2038,35285,0
2104,35318,0
2144,35306,0
2176,35313,0
2196,35301,0
2192,35293,0
2176,35294,0
2140,35312,0
2112,35318,0
2060,35291,0
2002,35288,0
1952,35317,0
1924,35298,0
1881,35322,0
1860,35304,0
1879,35283,0
1880,35324,0
1893,35313,0
1936,35320,0
1984,35306,0
2036,35315,0
2088,35301,0
2130,35312,0
2160,35329,0
2184,35311,0
2184,35334,0
2184,35318,0
2150,35306,0
2098,35326,0
2052,35318,0
2008,35339,0
1956,35320,0
1921,35351,0
1898,35327,0
1872,35314,0
1876,35352,0
1893,35336,0
1905,35345,0
1952,35348,0
1992,35352,0
2040,35356,0
2088,35342,0
2128,35324,0
2160,35359,0
2180,35341,0
2180,35365,0
2162,35336,0
2128,35338,0
2090,35344,0
2046,35340,0
2018,35350,0
1968,35344,0
1914,35361,0
1892,35335,0
1880,35343,0
1880,35350,0
1898,35337,0
1928,35372,0
1965,35352,0
2012,35362,0
2061,35353,0
2108,35359,0
2153,35349,0
2176,35348,0
2196,35376,0
2202,35356,0
2172,35381,0
2100,35436,0
2044,35373,0
1992,35372,0
1956,35377,0
1918,35376,0
1896,35366,0
1888,35361,0
1880,35389,0
1872,35372,0
1936,35394,0
1964,35382,0
2021,35372,0
2072,35382,0
2104,35381,0
2148,35401,0
2184,35390,0
2196,35414,0
2184,35388,0
2168,35381,0
2137,35419,0
2096,35396,0
2048,35430,0
2005,35403,0
1996,35416,0
1932,35407,0
1914,35408,0
1910,35431,0
1912,35414,0
1926,35430,0
1966,35414,0
2006,35403,0
2050,35439,0
2096,35633,0
2145,35451,0
2168,35451,0
2188,35451,0
2196,35452,0
2192,35475,0
2164,35459,0
2126,35479,0
2088,35469,0
2040,35497,0
1992,35478,0
1952,35468,0
1928,35505,0
1898,35509,0
1906,35532,0
1908,35508,0
1922,35538,0
1954,35515,0
2000,35509,0
2047,35562,0
2100,35545,0
2152,35570,0
2194,35555,0
2221,35565,0
2224,35565,0
2261,35564,0
2197,35597,0
2164,35591,0
2124,35615,0
2076,35595,0
2025,35599,0
1984,35607,0
1956,35633,0
1940,35619,0
1940,35618,0
1928,35644,0
1944,35612,0
1984,35645,0
2022,35627,0
2064,35676,0
2120,35659,0
2152,35674,0
2188,35662,0
2223,35679,0
2224,35659,0
2218,35678,0
2192,35700,0
2153,35669,0
2120,35687,0
2076,35678,0
2012,35671,0
1976,35707,0
1952,35693,0
1936,35716,0
1914,35678,0
1928,35692,0
1948,35684,0
1978,35685,0
2028,35702,0
2080,35680,0
2134,35703,0
2182,35684,0
2212,35665,0
2240,35705,0
2244,35663,0
2228,35685,0
2200,35674,0
2160,35681,0
2112,35662,0
2068,35656,0
2016,35637,0
1972,35673,0
1952,35648,0
1937,35666,0
1928,35643,0
1937,35648,0
1956,35632,0
1992,35632,0
2032,35656,0
2112,35629,0
2128,35647,0
2176,35627,0
2200,35605,0
2216,35620,0
2216,35608,0
2204,35634,0
2184,35607,0
2144,35615,0
2098,35594,0
2056,35613,0
2000,35590,0
1968,35584,0
1928,35602,0
1929,35578,0
1913,35606,0
1920,35574,0
1952,35578,0
1980,35586,0
2032,35584,0
2080,35579,0
2132,35583,0
2174,35577,0
2208,35589,0
2226,35576,0
2232,35595,0
2218,35570,0
2180,35556,0
2146,35585,0
2096,35570,0
2041,35586,0
2000,35569,0
1968,35586,0
1944,35571,0
1932,35546,0
1932,35594,0
1954,35571,0
1989,35584,0
2034,35573,0
2096,35577,0
2146,35564,0
2194,35556,0
2240,35602,0
2272,35583,0
2280,35590,0
2273,35571,0
2262,35585,0
2216,35570,0
2176,35581,0
2128,35573,0
2084,35606,0
2034,35603,0
2002,35577,0
1978,35590,0
1960,35587,0
1968,35588,0
1984,35586,0
2008,35614,0
2047,35581,0
2096,35610,0
2148,35593,0
2200,35591,0
2248,35602,0
2288,35586,0
2296,35614,0
2282,35602,0
2272,35607,0
2236,35592,0
2200,35597,0
2137,35610,0
2088,35589,0
2049,35618,0
2016,35604,0
1986,35617,0
1972,35600,0
1973,35573,0
1980,35602,0
2001,35595,0
2056,35615,0
2093,35604,0
2136,35623,0
2188,35620,0
2234,35609,0
2260,35612,0
2276,35610,0
2272,35614,0
2248,35638,0
2212,35613,0
2170,35598,0
2128,35610,0
2080,35611,0
2024,35634,0
2007,35611,0
1976,35642,0
1964,35609,0
1964,35608,0
1984,35640,0
2016,35624,0
2056,35646,0
2096,35619,0
2154,35633,0
2196,35628,0
2232,35630,0
2264,35656,0
2276,35642,0
2272,35660,0
2242,35630,0
2209,35637,0
2168,35651,0
2104,35648,0
2076,35667,0
2022,35641,0
1984,35667,0
1968,35660,0
1956,35655,0
1960,35656,0
1982,35671,0
2008,35674,0
2046,35658,0
2100,35676,0
2146,35659,0
2196,35648,0
2232,35691,0
2248,35671,0
2274,35671,0
2252,35653,0
2228,35679,0
2202,35675,0
2160,35657,0
2104,35697,0
2068,35669,0
2024,35687,0
1992,35672,0
1968,35666,0
1962,35671,0
1961,35677,0
1984,35697,0
2020,35678,0
2057,35695,0
2112,35677,0
2152,35681,0
2192,35689,0
2216,35686,0
2222,35706,0
2228,35680,0
2212,35665,0
2172,35685,0
2120,35678,0
2064,35696,0
1994,35675,0
1930,35653,0
1876,35703,0
1824,35676,0
1798,35693,0
1762,35663,0
1752,35680,0
1766,35663,0
1788,35645,0
1824,35681,0
1872,35656,0
1924,35675,0
1992,35641,0
2040,35656,0
2096,35635,0
2152,35625,0
2208,35653,0
2272,35633,0
2336,35649,0
2418,35619,0
2513,35613,0
2624,35619,0
2752,35616,0
2888,35646,0
3045,35610,0
3216,35637,0
3400,35613,0
3820,35594,0
3984,35627,0
3996,35613,0
3988,35614,0
4002,35607,0
3994,35620,0
4000,35594,0
4000,35620,0
4008,35591,0
4000,35583,0
4004,35625,0
4015,35590,0
3992,35621,0
4040,35591,0
4000,35586,0
4016,35593,0
4000,35591,0
4024,35618,0
3992,35589,0
4016,35606,0
4004,35583,0
4020,35567,0
4016,35596,0
3994,35587,0
3928,35604,0
3786,35586,0
3608,35614,0
3396,35588,0
3176,35560,0
2929,35610,0
2705,35586,0
2496,35603,0
2302,35686,0
2150,35590,0
2016,35586,0
1920,35598,0
1858,35583,0
1820,35622,0
1824,35582,0
1853,35611,0
1892,35584,0
1940,35594,0
1976,35597,0
2051,35596,0
2096,35630,0
2128,35600,0
2144,35628,0
2144,35605,0
2120,35603,0
2076,35624,0
2020,35621,0
1952,35637,0
1888,35629,0
1820,35649,0
1771,35636,0
1741,35617,0
1714,35667,0
1712,35639,0
1716,35667,0
1740,35642,0
1760,35678,0
1820,35647,0
1873,35647,0
1920,35689,0
1968,35686,0
1989,35659,0
2004,35671,0
1996,35677,0
1976,35684,0
1944,35668,0
1904,35666,0
1846,35685,0
1796,35682,0
1757,35701,0
1728,35683,0
1690,35714,0
1688,35696,0
1680,35680,0
1704,35714,0
1720,35700,0
1760,35713,0
1804,35706,0
1860,35731,0
1897,35717,0
1944,35706,0
1972,35746,0
1985,35730,0
1984,35749,0
1957,35736,0
1932,35749,0
1891,35748,0
1852,35737,0
1780,35774,0
1760,35757,0
1728,35770,0
1692,35759,0
1680,35783,0
1688,35791,0
1684,35772,0
1718,35784,0
1765,35806,0
1816,35777,0
1856,35808,0
1918,35792,0
1956,35810,0
1978,35794,0
2000,35783,0
2002,35823,0
1972,35811,0
1936,35824,0
1896,35809,0
1850,35822,0
1804,35801,0
1760,35781,0
1728,35820,0
1700,35808,0
1688,35823,0
1680,35800,0
1701,35798,0
1729,35802,0
1773,35791,0
1830,35818,0
1880,35781,0
1924,35811,0
1960,35782,0
1996,35757,0
2016,35812,0
2008,35791,0
1989,35803,0
1930,35784,0
1905,35775,0
1852,35773,0
1812,35763,0
1760,35766,0
1732,35747,0
1704,35785,0
1684,35763,0
1676,35774,0
1700,35743,0
1728,35761,0
1772,35747,0
1808,35727,0
1872,35766,0
1922,35743,0
1960,35745,0
1989,35737,0
2032,35733,0
2008,35724,0
1984,35728,0
1946,35748,0
1900,35719,0
1860,35734,0
1805,35722,0
1755,35706,0
1720,35738,0
1706,35709,0
1673,35721,0
1692,35713,0
1728,35692,0
1744,35723,0
1800,35702,0
1844,35719,0
1900,35695,0
1948,35700,0
1978,35719,0
2010,35705,0
2004,35718,0
2004,35683,0
2000,35681,0
1944,35700,0
1908,35688,0
1832,35700,0
1804,35676,0
1754,35706,0
1729,35674,0
1704,35676,0
1700,35697,0
1706,35663,0
1732,35686,0
1768,35649,0
1812,35641,0
1858,35671,0
1916,35657,0
1964,35671,0
2005,35639,0
2024,35640,0
2032,35648,0
2024,35644,0
1968,35657,0
1960,35630,0
1912,35649,0
1856,35618,0
1812,35646,0
1766,35610,0
1732,35638,0
1720,35620,0
1708,35627,0
1720,35615,0
1744,35634,0
1780,35603,0
1824,35621,0
1872,35608,0
1920,35600,0
1968,35625,0
1996,35608,0
2032,35633,0
2032,35602,0
2021,35593,0
2004,35630,0
1968,35612,0
1932,35626,0
1868,35614,0
1832,35611,0
1780,35612,0
1754,35606,0
1738,35640,0
1729,35614,0
1734,35636,0
1764,35608,0
1802,35592,0
1834,35632,0
1904,35629,0
1953,35635,0
2000,35620,0
2044,35615,0
2056,35634,0
2068,35619,0
2052,35621,0
2028,35626,0
1988,35619,0
1946,35631,0
1896,35624,0
1872,35631,0
1816,35637,0
1784,35620,0
1776,35646,0
1761,35629,0
1776,35657,0
1800,35632,0
1840,35630,0
1888,35642,0
1932,35635,0
1988,35658,0
2026,35637,0
2064,35664,0
2076,35637,0
2085,35649,0
2070,35647,0
2048,35654,0
2006,35670,0
1966,35656,0
1920,35679,0
1864,35661,0
1844,35644,0
1825,35672,0
1808,35675,0
1804,35675,0
1820,35664,0
1844,35692,0
1872,35678,0
1918,35680,0
1976,35672,0
2025,35696,0
2064,35684,0
2096,35707,0
2116,35687,0
2128,35715,0
2114,35700,0
2090,35692,0
2044,35720,0
1992,35718,0
1936,35737,0
1900,35717,0
1858,35736,0
1834,35712,0
1824,35724,0
1820,35726,0
1816,35728,0
1857,35750,0
1893,35728,0
1942,35760,0
1996,35737,0
2033,35715,0
2088,35752,0
2113,35735,0
2146,35762,0
2141,35739,0
2128,35752,0
2088,35728,0
2056,35733,0
2000,35732,0
1968,35751,0
1920,35728,0
1884,35756,0
1864,35733,0
1844,35737,0
1848,35723,0
1860,35720,0
1884,35735,0
1927,35712,0
1972,35729,0
2026,35707,0
2080,35700,0
2128,35725,0
2160,35702,0
2164,35720,0
2176,35702,0
2152,35724,0
2120,35679,0
2082,35669,0
2024,35705,0
1984,35694,0
1945,35700,0
1901,35682,0
1888,35702,0
1876,35672,0
1856,35659,0
1896,35702,0
1932,35673,0
2012,35628,0
2064,35664,0
2112,35653,0
2148,35663,0
2164,35650,0
2178,35657,0
2172,35664,0
2149,35647,0
2120,35625,0
2080,35661,0
2020,35647,0
1968,35648,0
1936,35642,0
1908,35648,0
1888,35627,0
1876,35610,0
1888,35652,0
1896,35621,0
1952,35646,0
1992,35610,0
2040,35606,0
2064,35641,0
2122,35626,0
2144,35640,0
2192,35622,0
2184,35623,0
2184,35625,0
2160,35610,0
2132,35644,0
2081,35636,0
2032,35643,0
1988,35628,0
1938,35628,0
1906,35635,0
1880,35649,0
1848,35647,0
1872,35641,0
1888,35636,0
1917,35662,0
1960,35654,0
2008,35668,0
2056,35642,0
2104,35642,0
2137,35677,0
2164,35664,0
2168,35689,0
2164,35674,0
2144,35678,0
2112,35666,0
2064,35669,0
2018,35689,0
1968,35685,0
1936,35706,0
1904,35676,0
1869,35697,0
1866,35695,0
1888,35694,0
1900,35720,0
1928,35704,0
1978,35724,0
2018,35710,0
2076,35690,0
2128,35727,0
2160,35725,0
2180,35728,0
2184,35728,0
2168,35748,0
2148,35746,0
2112,35754,0
2061,35731,0
2028,35769,0
1980,35748,0
1944,35772,0
1906,35754,0
1892,35759,0
1895,35767,0
1892,35764,0
1904,35800,0
1948,35781,0
1992,35806,0
2036,35788,0
2096,35782,0
2132,35808,0
2152,35819,0
2176,35829,0
2196,35811,0
2169,35842,0
2149,35818,0
2112,35801,0
2072,35860,0
2009,35839,0
1972,35848,0
1924,35839,0
1914,35848,0
1890,35843,0
1880,35840,0
1924,35874,0
1916,35869,0
1944,35852,0
2004,35856,0
2036,35883,0
2096,35887,0
2144,35866,0
2170,35854,0
2196,35887,0
2198,35879,0
2192,35907,0
2164,35880,0
2128,35894,0
2088,35881,0
2032,35879,0
1984,35918,0
1948,35891,0
1908,35920,0
1892,35898,0
1892,35892,0
1904,35922,0
1921,35929,0
1958,35932,0
1996,35913,0
2054,35933,0
2104,35916,0
2152,35905,0
2184,35948,0
2216,35925,0
2212,35958,0
2196,35940,0
2176,35947,0
2128,35976,0
2084,35958,0
2036,35964,0
1992,35969,0
1960,35957,0
1914,35966,0
1898,35986,0
1912,35969,0
1908,35983,0
1936,35970,0
1964,35947,0
2016,35993,0
2068,35978,0
2112,35995,0
2156,35970,0
2192,35994,0
2208,35977,0
2208,35963,0
2208,36005,0
2180,35976,0
2136,35991,0
2104,35977,0
2048,35962,0
2003,35984,0
1970,35981,0
1928,35991,0
1916,35963,0
1924,35993,0
1920,35957,0
1960,35957,0
2005,35994,0
2040,35970,0
2112,35858,0
1952,35869,0
1924,35891,0
1908,35869,0
1920,35852,0
1928,35883,0
1962,35856,0
2002,35876,0
2054,35860,0
2100,35843,0
2150,35854,0
2192,35858,0
2228,35863,0
2230,35850,0
2240,35860,0
2202,35842,0
2168,35827,0
2130,35865,0
2092,35835,0
2020,35869,0
1978,35835,0
1942,35856,0
1908,35848,0
1902,35846,0
1896,35862,0
1920,35842,0
1944,35876,0
1978,35840,0
2032,35830,0
2148,35869,0
2137,35853,0
2170,35872,0
2208,35864,0
2216,35863,0
2208,35863,0
2196,35863,0
2154,35863,0
2120,35863,0
2068,35844,0
2020,35860,0
1970,35860,0
1944,35860,0
1924,35860,0
1914,35860,0
1915,35860,0
1940,35860,0
1972,35863,0
2024,35863,0
2088,35863,0
2124,35863,0
2184,35863,0
2228,35863,0
2260,35863,0
2272,35860,0
2266,35860,0
2244,35860,0
2212,35860,0
2164,35860,0
2124,35860,0
2073,35860,0
2032,35862,0
1998,35862,0
1988,35862,0
1968,35862,0
1973,35862,0
1988,35830,0
2024,35847,0
2064,35848,0
2116,35868,0
2164,35838,0
2210,35869,0
2256,35837,0
2274,35847,0
2288,35863,0
2284,35848,0
2272,35864,0
2237,35851,0
2192,35821,0
2148,35852,0
2096,35845,0
2064,35857,0
2032,35838,0
2000,35852,0
1988,35835,0
1992,35822,0
2008,35862,0
2028,35832,0
2072,35851,0
2106,35836,0
2156,35827,0
2197,35845,0
2225,35839,0
2168,35881,0
2128,35826,0
2068,35836,0
2028,35855,0
2000,35839,0
1972,35853,0
1968,35843,0
1976,35858,0
1976,35837,0
2022,35831,0
2064,35869,0
2123,35848,0
2168,35871,0
2216,35855,0
2244,35860,0
2274,35858,0
2284,35844,0
2304,35878,0
2256,35854,0
2216,35878,0
2192,35851,0
2128,35858,0
2072,35893,0
2033,35871,0
1993,35894,0
1978,35869,0
1968,35854,0
1976,35886,0
1992,35876,0
2028,35892,0
2074,35879,0
2120,35882,0
2184,35881,0
2208,35896,0
2260,35898,0
2276,35905,0
2272,35876,0
2264,35887,0
2240,35915,0
2200,35891,0
2152,35877,0
2100,35925,0
2052,35903,0
2008,35922,0
1984,35901,0
1972,35909,0
1952,35904,0
1968,35909,0
1994,35937,0
2026,35926,0
2080,35945,0
2128,35933,0
2168,35915,0
2208,35957,0
2258,35944,0
2244,35959,0
2242,35933,0
2224,35940,0
2184,35971,0
2136,35957,0
2084,35973,0
2022,35963,0
1956,35980,0
1912,35980,0
1856,36010,0
1832,36000,0
1808,35983,0
1804,36026,0
1820,36013,0
1860,36025,0
1868,36015,0
1914,36039,0
1956,36022,0
1988,36009,0
2032,36042,0
2063,36037,0
2080,36054,0
2092,36049,0
2096,36061,0
2100,36053,0
2128,36051,0
2176,36083,0
2240,36067,0
2338,36106,0
2464,36078,0
2624,36079,0
2778,36105,0
2964,36089,0
3156,36108,0
3352,36102,0
3584,36080,0
3800,36111,0
3986,36106,0
3996,36122,0
4008,36101,0
4032,36129,0
4095,36112,0
4000,36138,0
3992,36118,0
3994,36128,0
3996,36125,0
4016,36141,0
4008,36128,0
4000,36143,0
3996,36137,0
4012,36146,0
4000,36143,0
4025,36143,0
4000,36174,0
4024,36157,0
3992,36172,0
4000,36161,0
3984,36155,0
4000,36190,0
3964,36170,0
3888,36188,0
3752,36167,0
3584,36153,0
3348,36182,0
3105,36170,0
2864,36192,0
2636,36177,0
2453,36175,0
2248,36187,0
2116,36193,0
1982,36201,0
1932,36187,0
1888,36197,0
1888,36210,0
1910,36173,0
1948,36187,0
2004,36202,0
2064,36203,0
2108,36212,0
2136,36187,0
2166,36170,0
2152,36214,0
2138,36190,0
2106,36207,0
2044,36187,0
1994,36179,0
1932,36210,0
1884,36203,0
1834,36217,0
1788,36196,0
1760,36198,0
1756,36192,0
1754,36187,0
1786,36221,0
1800,36198,0
1846,36225,0
1882,36197,0
1922,36185,0
1956,36220,0
1980,36196,0
1996,36220,0
1984,36197,0
1972,36231,0
1932,36193,0
1888,36191,0
1848,36198,0
1796,36216,0
1756,36165,0
1726,36192,0
1708,36196,0
1696,36181,0
1705,36202,0
1724,36188,0
1754,36214,0
1791,36183,0
1826,36209,0
1892,36173,0
1932,36168,0
1953,36206,0
1984,36179,0
2000,36208,0
1986,36180,0
1952,36202,0
1916,36181,0
1872,36171,0
1824,36202,0
1768,36183,0
1733,36204,0
1699,36175,0
1680,36182,0
1666,36177,0
1685,36165,0
1708,36205,0
1729,36175,0
1810,36196,0
1836,36179,0
1888,36149,0
1940,36186,0
1974,36186,0
1988,36184,0
2008,36177,0
1988,36185,0
1969,36170,0
1922,36201,0
1874,36171,0
1824,36197,0
1784,36167,0
1732,36148,0
1716,36186,0
1708,36169,0
1682,36177,0
1689,36163,0
1716,36181,0
1744,36169,0
1800,36156,0
1848,36178,0
1892,36172,0
1936,36189,0
1968,36165,0
2002,36147,0
1993,36189,0
1989,36164,0
1949,36180,0
1910,36153,0
1872,36181,0
1805,36173,0
1770,36139,0
1732,36186,0
1700,36157,0
1684,36167,0
1684,36175,0
1684,36167,0
1713,36162,0
1744,36194,0
1784,36157,0
1840,36161,0
1890,36187,0
1932,36163,0
1970,36186,0
1984,36167,0
2004,36179,0
1992,36180,0
1956,36169,0
1916,36195,0
1866,36177,0
1824,36191,0
1792,36175,0
1732,36150,0
1708,36197,0
1690,36189,0
1680,36198,0
1698,36178,0
1721,36203,0
1752,36181,0
1798,36170,0
1856,36195,0
1908,36178,0
1946,36197,0
1994,36175,0
2017,36174,0
2018,36172,0
2008,36189,0
1986,36175,0
1940,36179,0
1904,36166,0
1856,36191,0
1802,36176,0
1766,36194,0
1736,36169,0
1716,36159,0
1708,36185,0
1714,36172,0
1736,36201,0
1772,36165,0
1824,36193,0
1874,36162,0
1920,36158,0
1960,36202,0
2000,36169,0
2004,36185,0
2008,36160,0
1992,36158,0
1964,36178,0
1924,36178,0
1868,36188,0
1812,36162,0
1777,36188,0
1740,36169,0
1720,36147,0
1684,36181,0
1712,36163,0
1729,36179,0
1804,36094,0
1844,36135,0
1896,36161,0
1940,36162,0
1994,36153,0
2010,36144,0
2036,36174,0
2032,36146,0
2024,36124,0
1992,36161,0
1956,36140,0
1901,36168,0
1856,36134,0
1828,36122,0
1776,36134,0
1744,36124,0
1760,36146,0
1744,36142,0
1761,36146,0
1800,36123,0
1832,36108,0
1882,36145,0
1928,36111,0
1984,36141,0
2026,36105,0
2056,36108,0
2080,36123,0
2072,36105,0
2056,36122,0
2036,36106,0
1988,36127,0
1936,36095,0
1888,36147,0
1834,36099,0
1800,36099,0
1784,36104,0
1764,36097,0
1762,36115,0
1778,36091,0
1792,36121,0
1840,36109,0
1906,36084,0
1920,36118,0
1994,36096,0
2040,36122,0
2068,36101,0
2088,36093,0
2082,36109,0
2072,36103,0
2072,36120,0
2002,36105,0
1952,36129,0
1920,36108,0
1850,36106,0
1824,36146,0
1804,36107,0
1784,36142,0
1776,36133,0
1806,36108,0
1833,36143,0
1860,36125,0
1928,36144,0
1985,36130,0
2032,36157,0
2068,36147,0
2096,36145,0
2112,36149,0
2106,36142,0
2088,36147,0
2056,36133,0
2004,36162,0
1972,36150,0
1920,36176,0
1876,36155,0
1842,36171,0
1815,36153,0
1810,36153,0
1812,36180,0
1828,36158,0
1856,36189,0
1912,36166,0
1952,36148,0
2008,36191,0
2047,36161,0
2092,36184,0
2120,36152,0
2138,36159,0
2120,36166,0
2100,36157,0
2068,36179,0
2028,36153,0
1984,36171,0
1930,36140,0
1906,36128,0
1870,36158,0
1840,36132,0
1836,36141,0
1848,36141,0
1864,36120,0
1896,36127,0
1944,36123,0
2008,36113,0
2047,36090,0
2088,36133,0
2124,36102,0
2180,36109,0
2160,36094,0
2154,36064,0
2120,36090,0
2096,36071,0
2041,36084,0
1973,36059,0
1938,36058,0
1889,36053,0
1872,36051,0
1846,36063,0
1836,36041,0
1836,36063,0
1859,36030,0
1896,36016,0
1932,36048,0
1984,36030,0
2040,36044,0
2092,36020,0
2136,36020,0
2176,36003,0
2171,36002,0
2164,36038,0
2140,35998,0
2096,36005,0
2058,36003,0
2012,36004,0
1956,36024,0
1924,36007,0
1888,35986,0
1872,36010,0
1860,35982,0
1872,35976,0
1888,36015,0
1921,35999,0
1958,36003,0
2016,35988,0
2052,35969,0
2100,35992,0
2128,35979,0
2154,35991,0
2160,35978,0
2152,36005,0
2128,35970,0
2081,35956,0
2032,35987,0
2001,35980,0
1952,35987,0
1920,35958,0
1884,35964,0
1866,35968,0
1834,35978,0
1875,35985,0
1888,35954,0
1912,35980,0
1960,35964,0
2008,35970,0
2064,35968,0
2096,35973,0
2128,35954,0
2154,35976,0
2160,35957,0
2144,35956,0
2120,35992,0
2080,35968,0
2036,35980,0
1984,35966,0
1952,35956,0
1896,35978,0
1876,35967,0
1864,35993,0
1856,35983,0
1864,35989,0
1896,35970,0
1924,35983,0
1968,36009,0
2024,35987,0
2070,36017,0
2112,35993,0
2138,35985,0
2152,36007,0
2157,35999,0
2138,36025,0
2120,36000,0
2068,36024,0
2025,36007,0
1976,35995,0
1944,36020,0
1904,36023,0
1861,36006,0
1854,36023,0
1856,36014,0
1872,36000,0
1900,36014,0
1946,35987,0
1976,36009,0
2030,35991,0
2072,35984,0
2121,36008,0
2154,35987,0
2164,36003,0
2172,35987,0
2148,35969,0
2120,35984,0
2080,35980,0
2032,35996,0
1988,35975,0
1940,35981,0
1909,35965,0
1872,35959,0
1856,35981,0
1856,35971,0
1878,35987,0
1904,35957,0
1940,35954,0
1978,35962,0
2040,35943,0
2080,35966,0
2136,35955,0
2152,35942,0
2170,35965,0
2178,35939,0
2160,35927,0
2128,35932,0
2088,35946,0
2040,35933,0
2004,35943,0
1956,35915,0
1918,35911,0
1896,35928,0
1880,35918,0
1880,35927,0
1896,35913,0
1920,35925,0
1968,35899,0
2012,35905,0
2056,35926,0
2116,35919,0
2148,35931,0
2180,35894,0
2208,35877,0
2196,35917,0
2176,35899,0
2138,35921,0
2100,35889,0
2052,35894,0
2008,35887,0
1949,35891,0
1930,35908,0
1910,35883,0
1900,35902,0
1908,35895,0
1920,35896,0
1954,35892,0
1986,35877,0
2044,35885,0
2096,35889,0
2148,35905,0
2180,35890,0
2196,35907,0
2212,35879,0
2208,35865,0
2186,35917,0
2146,35877,0
2098,35893,0
2044,35886,0
2002,35869,0
1956,35894,0
1920,35887,0
1892,35899,0
1876,35887,0
1890,35903,0
1908,35886,0
1944,35874,0
1984,35909,0
2040,35881,0
2104,35904,0
2144,35889,0
2184,35884,0
2216,35895,0
2222,35885,0
2212,35910,0
2196,35880,0
2154,35882,0
2120,35902,0
2066,35901,0
2018,35898,0
1970,35887,0
1936,35909,0
1920,35908,0
1912,35909,0
1904,35887,0
1924,35887,0
1952,35920,0
1993,35912,0
2044,35924,0
2100,35906,0
2148,35916,0
2184,35916,0
2208,35920,0
2216,35924,0
2208,35923,0
2188,35935,0
2144,35918,0
2104,35907,0
2048,35933,0
1996,35921,0
1952,35937,0
1908,35921,0
1900,35933,0
1896,35929,0
1872,35930,0
1920,35942,0
1953,35921,0
2046,35858,0
2096,35927,0
2140,35936,0
2180,35925,0
2200,35924,0
2208,35912,0
2196,35931,0
2172,35921,0
2136,35949,0
2080,35913,0
2044,35925,0
1988,35901,0
1952,35900,0
1912,35934,0
1912,35910,0
1912,35930,0
1924,35899,0
1936,35874,0
1972,35915,0
2020,35898,0
2074,35911,0
2123,35893,0
2160,35891,0
2196,35883,0
2200,35873,0
2213,35902,0
2208,35876,0
2169,35890,0
2138,35865,0
2080,35845,0
2028,35891,0
1972,35859,0
1940,35858,0
1912,35854,0
1896,35856,0
1882,35845,0
1897,35846,0
1926,35844,0
1968,35818,0
2016,35859,0
2080,35838,0
2140,35853,0
2196,35829,0
2240,35810,0
2244,35839,0
2280,35820,0
2272,35843,0
2244,35816,0
2212,35821,0
2168,35821,0
2120,35815,0
2064,35834,0
2024,35812,0
1984,35830,0
1972,35807,0
1947,35800,0
1952,35835,0
1970,35813,0
1997,35831,0
2047,35815,0
2106,35815,0
2152,35840,0
2185,35825,0
2224,35841,0
2248,35823,0
2256,35829,0
2248,35847,0
2212,35843,0
2216,35830,0
2152,35826,0
2108,35833,0
2072,35859,0
2032,35830,0
2008,35859,0
1993,35839,0
1995,35828,0
1996,35857,0
2018,35849,0
2052,35870,0
2096,35838,0
2152,35870,0
2184,35850,0
2228,35842,0
2260,35874,0
2272,35856,0
2272,35887,0
2258,35869,0
2228,35864,0
2170,35877,0
2120,35873,0
2069,35894,0
2032,35869,0
1972,35855,0
1964,35897,0
1948,35870,0
1944,35894,0
1970,35889,0
1989,35890,0
2042,35892,0
2074,35883,0
2116,35891,0
2172,35896,0
2208,35883,0
2230,35870,0
2266,35893,0
2252,35885,0
2228,35912,0
2204,35890,0
2164,35894,0
2112,35893,0
2068,35893,0
2032,35914,0
1992,35899,0
1964,35912,0
1956,35887,0
1952,35878,0
1960,35909,0
1993,35904,0
2026,35914,0
2080,35890,0
2136,35872,0
2176,35894,0
2213,35885,0
2240,35898,0
2257,35875,0
2272,35897,0
2240,35877,0
2208,35863,0
2170,35865,0
2116,35887,0
2068,35868,0
2020,35862,0
1992,35850,0
1980,35855,0
1960,35841,0
1970,35883,0
1964,35853,0
1989,35886,0
2024,35846,0
2076,35830,0
2128,35874,0
2184,35854,0
2216,35862,0
2244,35841,0
2256,35847,0
2244,35857,0
2218,35843,0
2184,35870,0
2136,35845,0
2080,35873,0
2016,35844,0
1962,35824,0
1920,35857,0
1878,35839,0
1856,35862,0
1844,35841,0
1828,35860,0
1874,35844,0
1888,35836,0
1920,35862,0
1960,35837,0
2004,35863,0
2028,35852,0
2052,35843,0
2064,35838,0
2068,35846,0
2056,35862,0
2044,35842,0
2016,35858,0
1994,35839,0
1976,35835,0
1997,35862,0
2044,35850,0
2104,35864,0
2192,35835,0
2320,35835,0
2472,35875,0
2656,35851,0
2840,35874,0
3040,35853,0
3252,35856,0
3480,35869,0
3672,35848,0
3864,35878,0
4000,35864,0
4020,35875,0
4016,35852,0
4016,35846,0
4012,35893,0
4000,35870,0
4000,35892,0
4020,35859,0
4000,35873,0
4000,35882,0
3988,35877,0
3992,35881,0
4000,35891,0
3992,35894,0
3992,35857,0
3988,35861,0
3992,35887,0
3984,35874,0
3960,35890,0
3916,35875,0
3796,35886,0
3664,35875,0
3472,35868,0
3288,35901,0
3088,35867,0
2908,35902,0
2713,35882,0
2559,35876,0
2408,35916,0
2296,35877,0
2216,35910,0
2152,35877,0
2117,35873,0
2114,35900,0
2124,35906,0
2148,35922,0
2186,35899,0
2225,35915,0
2232,35904,0
2250,35904,0
2248,35916,0
2224,35921,0
2188,35902,0
2145,35931,0
2080,35960,0
2008,35906,0
1948,35906,0
1888,35928,0
1844,35917,0
1800,35932,0
1772,35920,0
1759,35931,0
1776,35916,0
1800,35923,0
1840,35944,0
1872,35938,0
1922,35956,0
1960,35934,0
2000,35928,0
2024,35961,0
2034,35948,0
2032,35966,0
2014,35943,0
1976,35939,0
1937,35951,0
1888,35951,0
1832,35967,0
1804,35957,0
1750,35972,0
1752,35953,0
1744,35946,0
1744,35979,0
1764,35969,0
1800,35981,0
1836,35987,0
1881,35982,0
1936,35956,0
1974,35989,0
2000,35987,0
2024,35999,0
2018,35980,0
2012,36005,0
1984,35996,0
1942,35989,0
1884,36016,0
1832,35992,0
1808,36019,0
1752,36006,0
1724,35990,0
1706,36034,0
1712,36014,0
1728,36041,0
1748,36016,0
1792,36008,0
1836,36046,0
1892,36027,0
1948,36046,0
1994,36026,0
2024,36033,0
2056,36030,0
2056,36029,0
2044,36057,0
2012,36037,0
1928,36016,0
1880,36056,0
1832,36033,0
1796,36044,0
1768,36052,0
1746,36056,0
1736,36040,0
1752,36047,0
1760,36030,0
1796,36026,0
1840,36056,0
1891,36027,0
1940,36049,0
1980,36025,0
2016,36005,0
2028,36036,0
2040,36021,0
2008,36040,0
1992,36014,0
1944,36028,0
1904,36017,0
1856,36006,0
1816,36028,0
1776,36012,0
1756,36028,0
1736,36000,0
1738,35985,0
1760,36020,0
1772,36006,0
1829,36024,0
1868,36000,0
1913,36021,0
1968,36016,0
2012,36003,0
2032,36003,0
2056,36000,0
2042,35993,0
2032,36006,0
2002,36005,0
1958,35994,0
1912,35979,0
1872,36001,0
1824,35987,0
1780,36004,0
1765,35985,0
1740,35982,0
1748,35993,0
1760,35982,0
1790,36005,0
1824,35979,0
1872,35983,0
1924,35979,0
1976,35982,0
2008,35993,0
2053,35967,0
2054,35993,0
2048,35969,0
2028,35966,0
2006,36000,0
1962,35982,0
1894,36002,0
1864,35970,0
1817,35957,0
1776,36002,0
1756,35981,0
1746,35973,0
1748,36001,0
1760,35986,0
1800,35975,0
1856,35994,0
1896,35983,0
1946,35981,0
1992,35985,0
2040,35993,0
2056,36021,0
2088,35985,0
2076,36003,0
2060,35993,0
2024,35983,0
1978,36006,0
1932,35992,0
1882,36015,0
1844,35994,0
1816,35985,0
1800,36022,0
1772,36002,0
1773,36027,0
1792,36003,0
1824,35989,0
1872,36025,0
1925,36005,0
1974,36031,0
2020,36011,0
2064,36026,0
2102,36011,0
2112,36006,0
2112,36018,0
2092,36011,0
2056,36021,0
2018,35994,0
1980,36013,0
1938,36019,0
1892,36028,0
1856,36005,0
1808,35985,0
1825,36020,0
1832,36006,0
1847,36020,0
1878,35992,0
1908,35992,0
1972,36010,0
2016,35994,0
2084,36013,0
2100,35999,0
2128,35979,0
2129,36000,0
2152,35988,0
2104,36003,0
2077,35989,0
2025,35999,0
1976,35979,0
1925,35959,0
1878,35997,0
1866,35978,0
1818,36004,0
1834,35976,0
1848,35968,0
1864,35980,0
1904,35986,0
1948,35982,0
1994,35966,0
2044,35990,0
2096,35964,0
2129,35985,0
2154,35963,0
2160,35969,0
2144,35958,0
2117,35952,0
2080,35948,0
2032,35951,0
1986,35971,0
1928,35952,0
1892,35946,0
1861,35934,0
1848,35934,0
1840,35959,0
1850,35921,0
1876,35945,0
1910,35917,0
1956,35909,0
2004,35941,0
2050,35919,0
2112,35935,0
2144,35913,0
2162,35879,0
2160,35916,0
2152,35901,0
2108,35909,0
2060,35896,0
2004,35892,0
1956,35895,0
1904,35912,0
1868,35916,0
1836,35891,0
1828,35906,0
1824,35888,0
1836,35914,0
1856,35883,0
1904,35898,0
1956,35877,0
2002,35869,0
2063,35881,0
2108,35878,0
2144,35895,0
2168,35876,0
2176,35883,0
2160,35881,0
2136,35878,0
2096,35899,0
2046,35880,0
2000,35887,0
1956,35874,0
1916,35880,0
1885,35901,0
1872,35892,0
1861,35912,0
1872,35889,0
1890,35877,0
1920,35916,0
1979,35897,0
2021,35916,0
2084,35897,0
2116,35888,0
2154,35912,0
2172,35901,0
2180,35899,0
2164,35913,0
2144,35907,0
2090,35902,0
2047,35940,0
2001,35911,0
1977,35945,0
1920,35924,0
1906,35904,0
1878,35955,0
1866,35937,0
1890,35956,0
1904,35938,0
1948,35937,0
1984,35953,0
2024,35950,0
2088,35971,0
2136,35939,0
2160,35951,0
2177,35953,0
2176,35949,0
2162,35976,0
2130,35949,0
2088,35967,0
2040,35954,0
1988,35948,0
1952,35976,0
1913,35957,0
1880,35983,0
1872,35979,0
1868,35966,0
1888,35958,0
1928,35970,0
1952,35972,0
2010,35976,0
2056,35975,0
2106,35967,0
2156,35990,0
2184,35962,0
2200,35977,0
2208,35962,0
2184,35967,0
2152,35992,0
2116,35977,0
2064,35987,0
2016,35964,0
1968,35949,0
1940,35991,0
1916,35964,0
1900,35982,0
1892,35956,0
1900,35969,0
1932,35969,0
1972,35960,0
2020,35987,0
2084,35973,0
2116,35992,0
2176,35965,0
2172,35954,0
2184,36004,0
2196,35973,0
2178,35980,0
2144,35982,0
2096,35986,0
2047,35987,0
2008,36003,0
1960,35984,0
1924,36012,0
1892,35984,0
1876,35978,0
1884,36000,0
1900,35999,0
1927,36014,0
1994,35994,0
2009,36020,0
2068,35999,0
2128,36009,0
2168,36027,0
2204,36004,0
2216,36033,0
2260,36012,0
2200,36010,0
2186,36047,0
2139,36022,0
2084,36051,0
2041,36027,0
1992,36010,0
1968,36067,0
1938,36051,0
1908,36063,0
1925,36048,0
1944,36053,0
2010,36159,0
2064,36097,0
2108,36090,0
2164,36065,0
2185,36101,0
2208,36096,0
2224,36089,0
2208,36110,0
2192,36092,0
2162,36101,0
2112,36086,0
2074,36097,0
2028,36119,0
1984,36106,0
1954,36127,0
1932,36112,0
1928,36093,0
1930,36127,0
1952,36118,0
1982,36136,0
2020,36121,0
2065,36140,0
2118,36124,0
2166,36111,0
2201,36146,0
2220,36121,0
2232,36141,0
2220,36122,0
2210,36104,0
2166,36153,0
2124,36125,0
2064,36139,0
2020,36159,0
1976,36150,0
1948,36141,0
1928,36139,0
1922,36133,0
1944,36131,0
1960,36146,0
2002,36136,0
2047,36150,0
2096,36127,0
2148,36118,0
2196,36161,0
2228,36131,0
2248,36175,0
2248,36146,0
2240,36142,0
2220,36164,0
2168,36152,0
2128,36167,0
2088,36158,0
2032,36184,0
1985,36145,0
1972,36142,0
1948,36190,0
1922,36171,0
1944,36181,0
1957,36171,0
1992,36172,0
2033,36172,0
2085,36173,0
2132,36191,0
2184,36176,0
2220,36189,0
2236,36160,0
2244,36168,0
2238,36170,0
2212,36158,0
2168,36171,0
2120,36167,0
2080,36192,0
2032,36171,0
1998,36177,0
1972,36159,0
1944,36152,0
1945,36185,0
1952,36176,0
1968,36175,0
2004,36165,0
2046,36164,0
2092,36155,0
2144,36147,0
2192,36174,0
2224,36151,0
2256,36175,0
2298,36141,0
2256,36130,0
2233,36162,0
2193,36142,0
2144,36158,0
2104,36134,0
2060,36138,0
2016,36140,0
1986,36132,0
1960,36154,0
1952,36122,0
1957,36140,0
1980,36142,0
2016,36119,0
2064,36131,0
2114,36142,0
2164,36120,0
2212,36145,0
2244,36119,0
2268,36120,0
2288,36113,0
2259,36108,0
2232,36137,0
2196,36104,0
2132,36130,0
2108,36105,0
2046,36100,0
1990,36130,0
1972,36107,0
1953,36128,0
1952,36097,0
1956,36086,0
1984,36125,0
2012,36109,0
2076,36129,0
2128,36101,0
2180,36101,0
2241,36091,0
2256,36088,0
2268,36115,0
2265,36097,0
2242,36112,0
2208,36086,0
2164,36091,0
2120,36089,0
2064,36116,0
2028,36108,0
1982,36105,0
1962,36089,0
1952,36080,0
1948,36110,0
1960,36103,0
1989,36112,0
2019,36086,0
2068,36079,0
2112,36098,0
2152,36086,0
2220,36110,0
2220,36096,0
2228,36115,0
2236,36088,0
2218,36079,0
2194,36108,0
2148,36099,0
2112,36107,0
2053,36089,0
2018,36071,0
2005,36112,0
1944,36088,0
1938,36110,0
1924,36085,0
1976,36093,0
1990,36069,0
2032,36072,0
2088,36081,0
2132,36080,0
2200,36090,0
2240,36087,0
2264,36066,0
2284,36065,0
2280,36090,0
2264,36073,0
2240,36054,0
2193,36084,0
2144,36066,0
2096,36085,0
2058,36063,0
2020,36076,0
2000,36062,0
1980,36059,0
1984,36090,0
2000,36078,0
2028,36089,0
2064,36068,0
2116,36053,0
2180,36095,0
2230,36072,0
2261,36099,0
2290,36087,0
2312,36083,0
2304,36078,0
2288,36095,0
2268,36100,0
2214,36087,0
2176,36111,0
2132,36088,0
2080,36100,0
2046,36096,0
2020,36099,0
2008,36085,0
2002,36066,0
2022,36098,0
2047,36125,0
2084,36104,0
2130,36125,0
2172,36108,0
2212,36097,0
2251,36133,0
2272,36112,0
2276,36126,0
2304,36107,0
2248,36118,0
2216,36116,0
2176,36126,0
2124,36132,0
2080,36116,0
2044,36135,0
2000,36118,0
2001,36104,0
1976,36141,0
1984,36116,0
2008,36138,0
2040,36124,0
2088,36106,0
2137,36136,0
2184,36114,0
2232,36135,0
2266,36127,0
2284,36117,0
2300,36132,0
2290,36130,0
2260,36143,0
2232,36160,0
2168,36140,0
2128,36125,0
2082,36149,0
2040,36127,0
2010,36109,0
1990,36158,0
1986,36131,0
1984,36149,0
2000,36125,0
2042,36133,0
2080,36138,0
2138,36130,0
2180,36161,0
2226,36137,0
2264,36154,0
2272,36128,0
2296,36129,0
2296,36169,0
2266,36143,0
2250,36160,0
2178,36142,0
2168,36139,0
2080,36142,0
2064,36149,0
2012,36173,0
1990,36161,0
1976,36173,0
1972,36154,0
1996,36181,0
2024,36158,0
2064,36176,0
2116,36167,0
2172,36169,0
2216,36177,0
2242,36176,0
2268,36199,0
2268,36177,0
2256,36211,0
2212,36185,0
2176,36169,0
2120,36213,0
2084,36204,0
2012,36224,0
1952,36205,0
1908,36207,0
1876,36228,0
1860,36222,0
1856,36228,0
1848,36229,0
1858,36242,0
1896,36235,0
1915,36225,0
1956,36270,0
1992,36241,0
2028,36272,0
2037,36251,0
2061,36235,0
2070,36287,0
2072,36407,0
2080,36275,0
2096,36266,0
2136,36282,0
2208,36268,0
2312,36275,0
2442,36305,0
2584,36304,0
2760,36321,0
2954,36302,0
3160,36330,0
3391,36318,0
3604,36314,0
3824,36347,0
3992,36326,0
4010,36348,0
4008,36342,0
4016,36322,0
4004,36368,0
4000,36352,0
4024,36374,0
4020,36351,0
4020,36362,0
4024,36373,0
4024,36363,0
4032,36391,0
4024,36372,0
4008,36399,0
4016,36374,0
4008,36374,0
3996,36413,0
4032,36396,0
4000,36455,0
3992,36408,0
3988,36409,0
3984,36413,0
3976,36426,0
3928,36422,0
3808,36432,0
3632,36426,0
3436,36457,0
3192,36433,0
2944,36448,0
2736,36431,0
2516,36425,0
2336,36469,0
2192,36457,0
2064,36470,0
2000,36450,0
1964,36441,0
1972,36476,0
1970,36457,0
2024,36475,0
2064,36452,0
2101,36469,0
2140,36453,0
2156,36447,0
2176,36481,0
2160,36451,0
2132,36470,0
2084,36450,0
2036,36448,0
1972,36466,0
1924,36455,0
1884,36455,0
1840,36458,0
1809,36473,0
1786,36439,0
1796,36454,0
1813,36440,0
1832,36464,0
1872,36462,0
1912,36476,0
1954,36467,0
1996,36463,0
2016,36450,0
2024,36457,0
2020,36484,0
2008,36455,0
1992,36478,0
1964,36452,0
1882,36447,0
1841,36488,0
1804,36458,0
1764,36483,0
1734,36474,0
1712,36476,0
1706,36462,0
1720,36461,0
1756,36477,0
1792,36457,0
1842,36485,0
1874,36450,0
1945,36441,0
1984,36477,0
2008,36460,0
2020,36467,0
2016,36445,0
1996,36480,0
1956,36454,0
1916,36461,0
1868,36433,0
1816,36472,0
1769,36451,0
1736,36474,0
1712,36459,0
1708,36458,0
1711,36462,0
1728,36454,0
1756,36477,0
1808,36446,0
1856,36460,0
1912,36463,0
1944,36457,0
1992,36473,0
2016,36452,0
2024,36439,0
2010,36463,0
1988,36460,0
1962,36468,0
1920,36454,0
1861,36465,0
1810,36460,0
1788,36454,0
1730,36483,0
1728,36463,0
1724,36484,0
1704,36465,0
1744,36472,0
1762,36480,0
1800,36481,0
1849,36490,0
1898,36471,0
1952,36468,0
1984,36487,0
2008,36476,0
2016,36473,0
2020,36497,0
1996,36482,0
1964,36505,0
1936,36478,0
1876,36473,0
1832,36506,0
1796,36492,0
1752,36499,0
1732,36486,0
1728,36472,0
1728,36503,0
1740,36489,0
1764,36509,0
1808,36473,0
1876,36479,0
1904,36498,0
1942,36492,0
1994,36508,0
2020,36491,0
2024,36508,0
2026,36498,0
2004,36476,0
1956,36526,0
1914,36481,0
1856,36506,0
1824,36498,0
1744,36498,0
1736,36504,0
1720,36518,0
1712,36491,0
1721,36516,0
1740,36485,0
1780,36475,0
1816,36511,0
1874,36490,0
1922,36514,0
1968,36486,0
2008,36464,0
2026,36500,0
2036,36489,0
2032,36502,0
1992,36476,0
1968,36460,0
1936,36499,0
1864,36471,0
1829,36491,0
1792,36482,0
1760,36499,0
1742,36482,0
1722,36471,0
1736,36494,0
1732,36475,0
1788,36488,0
1828,36468,0
1881,36467,0
1924,36483,0
1970,36479,0
2012,36469,0
2024,36471,0
2032,36478,0
2028,36447,0
1992,36488,0
1956,36463,0
1913,36482,0
1864,36455,0
1812,36464,0
1783,36462,0
1752,36466,0
1728,36476,0
1740,36457,0
1736,36465,0
1772,36460,0
1793,36449,0
1848,36476,0
1897,36462,0
1946,36486,0
2000,36453,0
2032,36432,0
2056,36474,0
2064,36457,0
2056,36465,0
2024,36434,0
1984,36449,0
1924,36441,0
1906,36442,0
1850,36460,0
1800,36437,0
1793,36432,0
1762,36443,0
1756,36443,0
1766,36425,0
1796,36447,0
1826,36431,0
1868,36440,0
1912,36417,0
2004,36424,0
2016,36447,0
2068,36430,0
2068,36443,0
2082,36425,0
2064,36407,0
2047,36448,0
2000,36429,0
1960,36441,0
1900,36414,0
1872,36405,0
1856,36449,0
1802,36421,0
1792,36433,0
1786,36411,0
1796,36399,0
1820,36440,0
1860,36424,0
1909,36425,0
1962,36421,0
2004,36407,0
2047,36438,0
2088,36415,0
2114,36442,0
2112,36429,0
2100,36418,0
2072,36442,0
2032,36441,0
1988,36426,0
1936,36437,0
1892,36417,0
1852,36445,0
1828,36418,0
1813,36411,0
1812,36434,0
1832,36431,0
1852,36431,0
1888,36411,0
1940,36440,0
1984,36416,0
2028,36413,0
2072,36445,0
2106,36425,0
2128,36437,0
2128,36406,0
2112,36398,0
2081,36426,0
2048,36406,0
1985,36428,0
1952,36402,0
1908,36380,0
1872,36408,0
1832,36393,0
1836,36419,0
1838,36377,0
1856,36381,0
1892,36378,0
1928,36386,0
1973,36365,0
2024,36401,0
2072,36372,0
2110,36356,0
2136,36384,0
2146,36370,0
2140,36381,0
2124,36359,0
2088,36365,0
2053,36345,0
2000,36349,0
1952,36376,0
1924,36344,0
1880,36360,0
1860,36342,0
1848,36334,0
1860,36363,0
1860,36341,0
1904,36360,0
1946,36329,0
1992,36321,0
2040,36356,0
2096,36324,0
2134,36345,0
2164,36320,0
2180,36307,0
2192,36339,0
2158,36315,0
2132,36328,0
2046,36316,0
2000,36307,0
1952,36340,0
1928,36302,0
1904,36309,0
1888,36325,0
1900,36306,0
1912,36305,0
1924,36334,0
1980,36313,0
2024,36322,0
2074,36308,0
2128,36306,0
2152,36323,0
2170,36306,0
2180,36327,0
2176,36303,0
2152,36312,0
2116,36308,0
2072,36302,0
2024,36322,0
1976,36308,0
1936,36320,0
1904,36306,0
1872,36312,0
1865,36337,0
1873,36313,0
1888,36342,0
1914,36308,0
1972,36302,0
2013,36334,0
2064,36330,0
2120,36316,0
2154,36323,0
2184,36347,0
2188,36328,0
2192,36333,0
2162,36357,0
2120,36331,0
2084,36331,0
2044,36357,0
1984,36341,0
1944,36357,0
1913,36333,0
1896,36323,0
1888,36367,0
1884,36342,0
1924,36351,0
1932,36351,0
1976,36338,0
2032,36362,0
2084,36355,0
2128,36374,0
2168,36355,0
2196,36361,0
2204,36349,0
2192,36345,0
2180,36380,0
2132,36360,0
2092,36373,0
2036,36347,0
1998,36344,0
1944,36386,0
1908,36367,0
1904,36362,0
1880,36381,0
1880,36377,0
1896,36371,0
1932,36357,0
1984,36387,0
2024,36366,0
2084,36383,0
2148,36357,0
2170,36364,0
2188,36394,0
2202,36364,0
2185,36389,0
2168,36360,0
2114,36367,0
2081,36388,0
2036,36366,0
1984,36385,0
1944,36357,0
1920,36351,0
1904,36396,0
1888,36367,0
1892,36386,0
1908,36363,0
1944,36349,0
1990,36395,0
2041,36370,0
2096,36385,0
2136,36361,0
2184,36340,0
2193,36380,0
2192,36366,0
2184,36369,0
2152,36362,0
2114,36365,0
2066,36381,0
2024,36347,0
1972,36354,0
1936,36372,0
1922,36348,0
1860,36348,0
1876,36358,0
1884,36342,0
1925,36366,0
1960,36332,0
1993,36315,0
2045,36356,0
2104,36323,0
2144,36348,0
2184,36314,0
2200,36287,0
2200,36332,0
2192,36304,0
2169,36327,0
2132,36300,0
2091,36310,0
2040,36303,0
1992,36297,0
1960,36312,0
1940,36293,0
1909,36313,0
1924,36282,0
1928,36271,0
1940,36309,0
1980,36266,0
2025,36277,0
2080,36274,0
2140,36280,0
2164,36277,0
2196,36276,0
2208,36275,0
2209,36286,0
2196,36256,0
2168,36275,0
2132,36268,0
2088,36259,0
2046,36286,0
1996,36267,0
1964,36272,0
1936,36255,0
1921,36240,0
1914,36279,0
1928,36257,0
1954,36271,0
1988,36252,0
2036,36238,0
2088,36262,0
2136,36250,0
2176,36270,0
2200,36251,0
2208,36259,0
2214,36258,0
2192,36259,0
2176,36262,0
2120,36256,0
2088,36270,0
2034,36256,0
2004,36284,0
1970,36257,0
1944,36251,0
1932,36262,0
1940,36284,0
1944,36262,0
1972,36281,0
2004,36271,0
2052,36275,0
2104,36295,0
2159,36276,0
2200,36305,0
2228,36280,0
2240,36267,0
2240,36314,0
2232,36295,0
2196,36317,0
2160,36286,0
2116,36281,0
2068,36319,0
2016,36300,0
1980,36323,0
1960,36305,0
1938,36296,0
1941,36312,0
1952,36296,0
1978,36335,0
2016,36312,0
2065,36332,0
2112,36302,0
2160,36291,0
2184,36308,0
2228,36309,0
2240,36306,0
2236,36313,0
2216,36319,0
2172,36335,0
2136,36309,0
2084,36312,0
2044,36305,0
1996,36312,0
1952,36334,0
1927,36314,0
1904,36330,0
1908,36313,0
1916,36297,0
1952,36333,0
1992,36315,0
2032,36323,0
2088,36308,0
2136,36300,0
2168,36321,0
2208,36309,0
2240,36316,0
2220,36301,0
2208,36302,0
2166,36301,0
2128,36296,0
2080,36307,0
2026,36286,0
1986,36309,0
1948,36288,0
1920,36287,0
1908,36292,0
1912,36280,0
1920,36290,0
1953,36309,0
1988,36287,0
2028,36304,0
2088,36269,0
2144,36281,0
2192,36282,0
2208,36275,0
2216,36305,0
2224,36269,0
2208,36290,0
2184,36266,0
2154,36259,0
2112,36291,0
2080,36265,0
2032,36280,0
2008,36267,0
1984,36268,0
1972,36271,0
1984,36266,0
1994,36272,0
2028,36263,0
2073,36268,0
2117,36255,0
2164,36251,0
2216,36286,0
2260,36256,0
2274,36281,0
2282,36236,0
2274,36239,0
2256,36264,0
2221,36267,0
2170,36265,0
2136,36255,0
2080,36245,0
2044,36258,0
2008,36264,0
1994,36263,0
1984,36282,0
1992,36251,0
2009,36240,0
2042,36271,0
2080,36251,0
2128,36276,0
2176,36248,0
2224,36273,0
2264,36263,0
2284,36257,0
2296,36278,0
2288,36262,0
2264,36271,0
2216,36259,0
2176,36258,0
2134,36288,0
2088,36270,0
2032,36292,0
2000,36267,0
1984,36258,0
1963,36294,0
1982,36277,0
1996,36296,0
2076,36274,0
2128,36281,0
2188,36293,0
2232,36292,0
2260,36282,0
2284,36282,0
2290,36296,0
2280,36280,0
2252,36280,0
2208,36279,0
2164,36278,0
2115,36293,0
2064,36283,0
2026,36295,0
1992,36278,0
1972,36260,0
1988,36294,0
1972,36277,0
1996,36305,0
2036,36273,0
2074,36259,0
2138,36286,0
2176,36282,0
2232,36287,0
2256,36275,0
2281,36266,0
2312,36285,0
2288,36270,0
2252,36299,0
2202,36269,0
2157,36277,0
2104,36271,0
2072,36274,0
2034,36290,0
2004,36296,0
1993,36266,0
1984,36259,0
1996,36274,0
2018,36273,0
2052,36290,0
2104,36266,0
2140,36277,0
2188,36255,0
2232,36259,0
2258,36287,0
2272,36261,0
2280,36276,0
2253,36251,0
2216,36239,0
2184,36279,0
2132,36252,0
2096,36274,0
2047,36242,0
2018,36233,0
1980,36276,0
1964,36255,0
1955,36260,0
1960,36241,0
1972,36226,0
2004,36255,0
2036,36242,0
2069,36260,0
2097,36240,0
2116,36225,0
2132,36242,0
2128,36253,0
2112,36239,0
2080,36261,0
2032,36236,0
1980,36249,0
1924,36245,0
1868,36237,0
1836,36262,0
1800,36239,0
1788,36247,0
1790,36255,0
1817,36240,0
1868,36273,0
1944,36248,0
2064,36272,0
2200,36239,0
2368,36236,0
2544,36286,0
2728,36251,0
2912,36277,0
3104,36247,0
3268,36237,0
3424,36285,0
3560,36263,0
3698,36282,0
3842,36266,0
3944,36245,0
4000,36285,0
3997,36262,0
4004,36286,0
4032,36254,0
3992,36273,0
3996,36271,0
3992,36296,0
4000,36280,0
4000,36259,0
4000,36270,0
4000,36265,0
4000,36262,0
4000,36253,0
4000,36278,0
4000,36261,0
4007,36284,0
4000,36253,0
4024,36243,0
3992,36275,0
4000,36254,0
3952,36274,0
3880,36251,0
3720,36242,0
3540,36283,0
3336,36252,0
3162,36277,0
2966,36255,0
2794,36245,0
2640,36262,0
2517,36262,0
2416,36280,0
2328,36252,0
2272,36247,0
2208,36267,0
2166,36262,0
2122,36279,0
2074,36236,0
2024,36272,0
2000,36267,0
1962,36273,0
1936,36255,0
1912,36287,0
1892,36276,0
1882,36291,0
1888,36266,0
1902,36253,0
1892,36283,0
1945,36273,0
1980,36296,0
2016,36267,0
2047,36265,0
2064,36287,0
2072,36271,0
2072,36297,0
2056,36271,0
2020,36283,0
1984,36270,0
1932,36268,0
1880,36287,0
1833,36270,0
1785,36284,0
1754,36275,0
1739,36260,0
1730,36297,0
1716,36264,0
1754,36295,0
1784,36259,0
1826,36251,0
1866,36284,0
1918,36270,0
1968,36286,0
1990,36264,0
2008,36280,0
2012,36288,0
2004,36272,0
1984,36267,0
1952,36290,0
1896,36281,0
1848,36300,0
1805,36275,0
1764,36283,0
1732,36273,0
1724,36274,0
1720,36304,0
1724,36271,0
1744,36295,0
1782,36275,0
1825,36279,0
1880,36295,0
1920,36276,0
1968,36307,0
2002,36280,0
2020,36267,0
2037,36309,0
2024,36285,0
2000,36312,0
1944,36279,0
1912,36260,0
1866,36308,0
1810,36292,0
1770,36302,0
1740,36277,0
1712,36299,0
1692,36305,0
1712,36316,0
1736,36300,0
1748,36308,0
1816,36307,0
1860,36326,0
1909,36297,0
1952,36312,0
1997,36309,0
2008,36313,0
2024,36340,0
2008,36315,0
1984,36341,0
1952,36327,0
1892,36326,0
1844,36348,0
1800,36332,0
1752,36346,0
1730,36325,0
1703,36317,0
1692,36366,0
1706,36349,0
1736,36373,0
1766,36347,0
1812,36339,0
1845,36378,0
1930,36362,0
1958,36392,0
1992,36366,0
2044,36389,0
2004,36361,0
2004,36381,0
1973,36379,0
1944,36396,0
1888,36375,0
1844,36402,0
1796,36390,0
1756,36386,0
1733,36403,0
1708,36385,0
1702,36406,0
1724,36394,0
1752,36392,0
1792,36412,0
1832,36391,0
1889,36387,0
1944,36390,0
1988,36394,0
2016,36402,0
2028,36376,0
2040,36398,0
2010,36377,0
1980,36378,0
1937,36393,0
1888,36373,0
1836,36391,0
1796,36366,0
1728,36364,0
1734,36392,0
1721,36368,0
1701,36390,0
1722,36362,0
1750,36378,0
1794,36366,0
1840,36369,0
1892,36356,0
1952,36362,0
2002,36384,0
2024,36360,0
2040,36369,0
2052,36361,0
2021,36355,0
1992,36380,0
1954,36352,0
1912,36364,0
1872,36359,0
1802,36351,0
1760,36381,0
1732,36363,0
1716,36374,0
1714,36369,0
1718,36356,0
1752,36380,0
1785,36370,0
1840,36385,0
1892,36359,0
1952,36354,0
2000,36386,0
2021,36369,0
2049,36390,0
2060,36366,0
2029,36358,0
1956,36264,0
1912,36362,0
1860,36368,0
1824,36375,0
1784,36378,0
1764,36348,0
1744,36385,0
1744,36366,0
1760,36383,0
1784,36360,0
1848,36347,0
1873,36380,0
1937,36348,0
1960,36373,0
1996,36339,0
2028,36332,0
2047,36360,0
2036,36340,0
2026,36353,0
2004,36335,0
1952,36300,0
1910,36344,0
1877,36331,0
1836,36324,0
1800,36301,0
1774,36278,0
1760,36321,0
1772,36295,0
1761,36305,0
1818,36283,0
1856,36264,0
1897,36289,0
1952,36264,0
2002,36277,0
2040,36281,0
2072,36248,0
2092,36254,0
2092,36243,0
2072,36222,0
2040,36250,0
2008,36232,0
1972,36233,0
1912,36219,0
1864,36198,0
1832,36232,0
1808,36211,0
1812,36221,0
1812,36195,0
1832,36189,0
1872,36213,0
1916,36193,0
1948,36206,0
2001,36176,0
2048,36164,0
2080,36199,0
2112,36170,0
2113,36193,0
2108,36178,0
2080,36172,0
2047,36167,0
1997,36162,0
1962,36174,0
1912,36155,0
1848,36171,0
1826,36150,0
1808,36151,0
1794,36157,0
1796,36145,0
1824,36137,0
1853,36158,0
1896,36138,0
1952,36146,0
2004,36129,0
2056,36123,0
2092,36157,0
2120,36120,0
2128,36140,0
2130,36115,0
2108,36115,0
2072,36143,0
2005,36116,0
1960,36128,0
1912,36110,0
1860,36102,0
1832,36127,0
1808,36102,0
1794,36124,0
1804,36104,0
1824,36097,0
1872,36096,0
1908,36097,0
1992,36109,0
2022,36095,0
2080,36092,0
2136,36090,0
2152,36086,0
2176,36097,0
2152,36082,0
2152,36068,0
2114,36091,0
2068,36065,0
2016,36071,0
1960,36078,0
1917,36056,0
1884,36041,0
1864,36072,0
1848,36041,0
1859,36062,0
1864,36032,0
1896,36025,0
1938,36065,0
1992,36040,0
2044,36058,0
2092,36034,0
2132,36014,0
2148,36052,0
2162,36034,0
2186,36044,0
2136,36031,0
2100,36000,0
2056,36042,0
2004,36013,0
1960,36028,0
1922,36005,0
1862,35989,0
1876,36027,0
1868,36015,0
1872,36034,0
1905,35995,0
1932,36009,0
1976,35990,0
2024,36002,0
2072,36011,0
2124,36010,0
2152,36005,0
2160,35990,0
2168,36030,0
2160,35999,0
2124,36018,0
2084,35994,0
2036,35988,0
1984,36019,0
1946,36005,0
1908,36024,0
1880,35996,0
1856,35986,0
1848,36024,0
1864,36003,0
1892,36025,0
1928,35996,0
1980,35976,0
2032,36029,0
2076,36003,0
2124,36023,0
2160,36005,0
2176,35993,0
2184,36024,0
2158,36004,0
2128,36032,0
2096,36011,0
2028,36100,0
2080,36076,0
2128,36121,0
2170,36085,0
2176,36125,0
2176,36091,0
2164,36089,0
2136,36103,0
2096,36099,0
2048,36121,0
2004,36105,0
1960,36089,0
1916,36113,0
1892,36102,0
1884,36117,0
1873,36093,0
1890,36075,0
1916,36101,0
1952,36094,0
1996,36102,0
2048,36081,0
2105,36082,0
2144,36082,0
2154,36069,0
2176,36089,0
2176,36068,0
2152,36080,0
2114,36062,0
2080,36058,0
2040,36069,0
1989,36059,0
1956,36064,0
1913,36045,0
1916,36052,0
1892,36052,0
1888,36052,0
1904,36052,0
1940,36052,0
1976,36045,0
2020,36070,0
2060,36070,0
2116,36070,0
2152,36070,0
2172,36070,0
2204,36070,0
2208,36031,0
2168,36042,0
2144,36042,0
2096,36042,0
2052,36042,0
2004,36042,0
1968,36042,0
1928,36038,0
1904,36042,0
1892,36042,0
1884,36042,0
1893,36042,0
1920,36042,0
1968,36042,0
2016,36042,0
2052,36070,0
2112,36070,0
2149,36070,0
2176,36070,0
2216,36070,0
2196,36052,0
2172,36039,0
2144,36063,0
2102,36041,0
2072,36072,0
2028,36046,0
1972,36037,0
1936,36078,0
1913,36054,0
1904,36084,0
1904,36061,0
1920,36055,0
1952,36094,0
1976,36084,0
2036,36106,0
2112,36087,0
2153,36084,0
2208,36115,0
2200,36100,0
2216,36122,0
2204,36109,0
2180,36099,0
2150,36146,0
2116,36129,0
2065,36150,0
2013,36142,0
1970,36130,0
1956,36286,0
1996,36182,0
2044,36179,0
2092,36165,0
2128,36185,0
2168,36185,0
2192,36171,0
2196,36197,0
2196,36190,0
2172,36185,0
2144,36200,0
2095,36211,0
2034,36228,0
2000,36205,0
1956,36197,0
1928,36243,0
1909,36231,0
1896,36254,0
1912,36234,0
1925,36229,0
1965,36258,0
2000,36253,0
2053,36265,0
2105,36256,0
2144,36255,0
2184,36276,0
2208,36264,0
2208,36289,0
2200,36274,0
2164,36272,0
2132,36260,0
2088,36265,0
2040,36257,0
1992,36293,0
1960,36264,0
1926,36289,0
1906,36277,0
1900,36253,0
1906,36285,0
1928,36267,0
1956,36285,0
2012,36260,0
2056,36245,0
2112,36277,0
2152,36263,0
2192,36275,0
2200,36255,0
2208,36246,0
2196,36271,0
2164,36263,0
2120,36278,0
2080,36254,0
2008,36235,0
1962,36261,0
1913,36250,0
1888,36264,0
1860,36236,0
1856,36228,0
1869,36267,0
1897,36235,0
1930,36256,0
1998,36231,0
2060,36220,0
2120,36256,0
2176,36257,0
2216,36246,0
2244,36223,0
2260,36240,0
2260,36200,0
2228,36247,0
2176,36218,0
2137,36239,0
2092,36212,0
2034,36193,0
2001,36237,0
1961,36222,0
1944,36239,0
1924,36224,0
1944,36199,0
1972,36234,0
2008,36218,0
2052,36232,0
2104,36206,0
2148,36198,0
2184,36218,0
2232,36194,0
2248,36222,0
2256,36188,0
2256,36195,0
2224,36184,0
2184,36183,0
2136,36192,0
2092,36167,0
2048,36184,0
2005,36166,0
1976,36157,0
1954,36153,0
1952,36168,0
1964,36157,0
1988,36145,0
2018,36171,0
2076,36122,0
2112,36159,0
2172,36136,0
2210,36150,0
2241,36130,0
2248,36136,0
2253,36133,0
2232,36119,0
2210,36136,0
2168,36120,0
2116,36124,0
2064,36107,0
2026,36117,0
1986,36129,0
1956,36108,0
1936,36111,0
1936,36118,0
1956,36107,0
1976,36131,0
2018,36112,0
2074,36119,0
2120,36106,0
2168,36118,0
2213,36130,0
2234,36106,0
2260,36100,0
2260,36112,0
2240,36103,0
2212,36121,0
2152,36123,0
2116,36102,0
2072,36116,0
2026,36126,0
1992,36097,0
1976,36089,0
1940,36123,0
1956,36108,0
1968,36121,0
2007,36099,0
2032,36093,0
2088,36124,0
2136,36104,0
2184,36119,0
2216,36100,0
2232,36100,0
2264,36117,0
2248,36095,0
2224,36111,0
2192,36097,0
2148,36090,0
2104,36109,0
2060,36089,0
2010,36116,0
1968,36088,0
1956,36086,0
1926,36111,0
1948,36080,0
1968,36104,0
1972,36072,0
2020,36059,0
2068,36079,0
2112,36073,0
2170,36077,0
2204,36057,0
2232,36084,0
2242,36051,0
2240,36061,0
2212,36054,0
2176,36050,0
2129,36062,0
2072,36034,0
2024,36024,0
1968,36031,0
1922,36019,0
1876,36040,0
1856,36010,0
1848,36031,0
1848,36004,0
1874,35999,0
1896,36018,0
1926,35990,0
1968,36008,0
2013,35975,0
2038,35970,0
2064,35999,0
2068,35964,0
2068,35978,0
2054,35955,0
2041,35938,0
2016,35981,0
2000,35955,0
2000,35960,0
2012,35945,0
2047,35951,0
2120,35930,0
2224,36057,0
2362,35936,0
2512,35943,0
2704,35917,0
2900,35912,0
3100,35933,0
3308,35902,0
3527,35940,0
3704,35895,0
3912,35885,0
3992,35921,0
4000,35885,0
4008,35902,0
4008,35886,0
3992,35864,0
3992,35904,0
4000,35878,0
4016,35892,0
4016,35871,0
4032,35843,0
4016,35894,0
4005,35870,0
4016,35875,0
4008,35855,0
4002,35830,0
3998,35871,0
3992,35868,0
4000,35871,0
3964,35847,0
3908,35848,0
3800,35857,0
3652,35861,0
3488,35850,0
3284,35832,0
3088,35864,0
2888,35836,0
2696,35858,0
2528,35834,0
2384,35829,0
2263,35863,0
2168,35837,0
2112,35864,0
2084,35841,0
2088,35842,0
2096,35859,0
2120,35842,0
2168,35869,0
2200,35839,0
2224,35847,0
2244,35870,0
2227,35853,0
2216,35870,0
2176,35845,0
2116,35847,0
2058,35877,0
1992,35855,0
1917,35878,0
1890,35856,0
1825,35848,0
1792,35898,0
1780,35858,0
1769,35876,0
1780,35885,0
1808,35860,0
1848,35865,0
1896,35856,0
1944,35880,0
1988,35875,0
2012,35892,0
2033,35869,0
2056,35862,0
2028,35889,0
2000,35863,0
1969,35888,0
1916,35859,0
1872,35854,0
1828,35879,0
1792,35873,0
1752,35873,0
1732,35867,0
1722,35852,0
1732,35882,0
1752,35866,0
1782,35882,0
1825,35859,0
1880,35866,0
1922,35867,0
1961,35859,0
1988,35896,0
2028,35867,0
2013,35884,0
1976,35868,0
1938,35873,0
1890,35878,0
1836,35862,0
1800,35867,0
1766,35889,0
1732,35861,0
1724,35854,0
1716,35897,0
1724,35877,0
1764,35886,0
1776,35860,0
1826,35849,0
1872,35888,0
1916,35868,0
1964,35881,0
1992,35872,0
2008,35851,0
2032,35893,0
2004,35867,0
1972,35875,0
1932,35872,0
1878,35846,0
1837,35878,0
1784,35865,0
1749,35892,0
1722,35868,0
1708,35859,0
1681,35873,0
1728,35866,0
1736,35875,0
1770,35858,0
1825,35915,0
1876,35859,0
1928,35875,0
1972,35863,0
2000,35874,0
2020,35885,0
2032,35865,0
2000,35889,0
1968,35862,0
1918,35855,0
1880,35888,0
1828,35871,0
1791,35884,0
1764,35869,0
1732,35856,0
1714,35901,0
1717,35878,0
1732,35901,0
1768,35883,0
1808,35862,0
1852,35918,0
1904,35891,0
1964,35912,0
2000,35892,0
2038,35885,0
2050,35918,0
2034,35902,0
2021,35923,0
1976,35906,0
1956,35890,0
1882,35936,0
1824,35911,0
1780,35915,0
1744,35938,0
1714,35944,0
1708,35924,0
1712,35934,0
1728,35932,0
1756,35922,0
1788,35944,0
1848,35925,0
1908,35931,0
1968,35924,0
2010,35915,0
2020,35943,0
2040,35919,0
2024,35928,0
2012,35909,0
1972,35912,0
1936,35933,0
1882,35902,0
1840,35907,0
1812,35887,0
1764,35888,0
1745,35906,0
1738,35875,0
1745,35880,0
1756,35861,0
1800,35860,0
1840,35867,0
1872,35849,0
1928,35864,0
1980,35838,0
2016,35829,0
2040,35827,0
2052,35807,0
2046,35814,0
2024,35841,0
1988,35814,0
1946,35798,0
1906,35769,0
1864,35816,0
1824,35768,0
1794,35781,0
1772,35749,0
1765,35716,0
1762,35761,0
1777,35725,0
1808,35736,0
1856,35697,0
1904,35679,0
1960,35698,0
2017,35668,0
2046,35679,0
2080,35635,0
2084,35611,0
2074,35634,0
2050,35605,0
2012,35610,0
1970,35578,0
1928,35550,0
1868,35571,0
1824,35544,0
1814,35559,0
1788,35522,0
1772,35500,0
1786,35514,0
1808,35491,0
1840,35481,0
1884,35464,0
1928,35457,0
1974,35479,0
2028,35440,0
2064,35417,0
2092,35449,0
2128,35420,0
2088,35418,0
2103,35398,0
2044,35379,0
2016,35407,0
1952,35383,0
1904,35391,0
1864,35360,0
1824,35340,0
1812,35375,0
1824,35347,0
1820,35357,0
1820,35321,0
1875,35306,0
1912,35341,0
1971,35315,0
2018,35332,0
2072,35306,0
2104,35289,0
2128,35316,0
2144,35296,0
2124,35306,0
2096,35296,0
2068,35314,0
2012,35296,0
1964,35296,0
1916,35285,0
1880,35276,0
1858,35280,0
1832,35282,0
1826,35285,0
1826,35286,0
1850,35292,0
1856,35279,0
1918,35272,0
1996,35297,0
2024,35288,0
2064,35297,0
2112,35288,0
2116,35284,0
2128,35303,0
2112,35293,0
2092,35311,0
2052,35294,0
2008,35296,0
1953,35299,0
1914,35294,0
1866,35308,0
1848,35284,0
1814,35292,0
1824,35301,0
1826,35299,0
1865,35309,0
1897,35295,0
1936,35294,0
1994,35312,0
2042,35282,0
2090,35307,0
2120,35284,0
2148,35276,0
2144,35320,0
2120,35301,0
2106,35302,0
2064,35305,0
2016,35305,0
1972,35324,0
1924,35304,0
1888,35307,0
1858,35311,0
1852,35313,0
1848,35329,0
1864,35310,0
1888,35313,0
1921,35321,0
1968,35317,0
2012,35333,0
2082,35321,0
2124,35330,0
2160,35321,0
2164,35330,0
2176,35341,0
2156,35331,0
2132,35346,0
2088,35332,0
2052,35324,0
1992,35351,0
1940,35323,0
1904,35329,0
1882,35340,0
1860,35331,0
1860,35353,0
1906,35362,0
1902,35338,0
1948,35366,0
1972,35343,0
2044,35329,0
2093,35375,0
2140,35353,0
2173,35370,0
2186,35347,0
2188,35347,0
2160,35380,0
2144,35350,0
2104,35386,0
2044,35365,0
2000,35349,0
1960,35396,0
1920,35371,0
1892,35391,0
1872,35371,0
1876,35353,0
1890,35394,0
1909,35363,0
1962,35391,0
2002,35383,0
2045,35364,0
2113,35393,0
2141,35379,0
2176,35399,0
2176,35386,0
2169,35382,0
2160,35384,0
2108,35396,0
2074,35389,0
2032,35375,0
1980,35414,0
1945,35391,0
1905,35413,0
1889,35387,0
1868,35375,0
1868,35420,0
1904,35405,0
1916,35410,0
1968,35397,0
2016,35380,0
2068,35412,0
2116,35409,0
2152,35420,0
2176,35396,0
2176,35388,0
2178,35430,0
2154,35411,0
2120,35429,0
2080,35408,0
2021,35398,0
1984,35446,0
1948,35418,0
1893,35434,0
1890,35423,0
1896,35410,0
1884,35446,0
1906,35443,0
1929,35427,0
1968,35449,0
2028,35448,0
2072,35441,0
2132,35484,0
2156,35437,0
2188,35475,0
2192,35462,0
2176,35463,0
2170,35486,0
2139,35465,0
2084,35492,0
2052,35472,0
2004,35474,0
1960,35492,0
1928,35471,0
1904,35492,0
1890,35473,0
1896,35456,0
1912,35503,0
1944,35480,0
1984,35498,0
2057,35467,0
2101,35442,0
2148,35486,0
2184,35477,0
2209,35493,0
2256,35463,0
2224,35447,0
2192,35482,0
2112,35456,0
2064,35467,0
2012,35450,0
1970,35451,0
1936,35464,0
1916,35459,0
1904,35476,0
1902,35449,0
1920,35441,0
1956,35464,0
1992,35449,0
2047,35470,0
2100,35444,0
2145,35441,0
2177,35464,0
2220,35451,0
2232,35467,0
2224,35451,0
2196,35438,0
2160,35481,0
2114,35452,0
2100,35471,0
2019,35448,0
1974,35438,0
1940,35467,0
1916,35462,0
1912,35479,0
1916,35459,0
1920,35447,0
1962,35473,0
2014,35460,0
2056,35482,0
2112,35456,0
2162,35450,0
2208,35469,0
2216,35472,0
2212,35466,0
2210,35458,0
2204,35483,0
2146,35469,0
2108,35479,0
2060,35475,0
2036,35469,0
1977,35495,0
1952,35468,0
1932,35496,0
1928,35471,0
1936,35472,0
1968,35510,0
1992,35482,0
2040,35517,0
2088,35492,0
2140,35474,0
2180,35517,0
2209,35490,0
2220,35520,0
2240,35498,0
2217,35493,0
2188,35532,0
2148,35515,0
2116,35522,0
2065,35505,0
2020,35500,0
1976,35536,0
1946,35504,0
1928,35518,0
1918,35529,0
1936,35513,0
1968,35533,0
1994,35525,0
2036,35519,0
2097,35555,0
2136,35527,0
2184,35554,0
2224,35538,0
2240,35519,0
2248,35562,0
2228,35545,0
2200,35562,0
2168,35542,0
2112,35532,0
2058,35579,0
2016,35554,0
1980,35572,0
1946,35555,0
1924,35541,0
1924,35578,0
1940,35564,0
1961,35588,0
2004,35570,0
2080,35563,0
2096,35585,0
2152,35568,0
2186,35591,0
2224,35576,0
2240,35571,0
2242,35570,0
2221,35567,0
2208,35590,0
2154,35573,0
2112,35576,0
2052,35569,0
2012,35583,0
1970,35572,0
1944,35588,0
1926,35578,0
1924,35548,0
1934,35591,0
1968,35557,0
1996,35566,0
2044,35570,0
2104,35546,0
2152,35573,0
2200,35563,0
2232,35579,0
2252,35555,0
2256,35544,0
2234,35575,0
2201,35563,0
2168,35576,0
2130,35544,0
2073,35551,0
2018,35555,0
1990,35552,0
1944,35567,0
1934,35543,0
1926,35552,0
1932,35544,0
1964,35569,0
2000,35563,0
2056,35527,0
2100,35540,0
2161,35530,0
2212,35534,0
2248,35555,0
2268,35524,0
2280,35534,0
2268,35557,0
2240,35534,0
2212,35560,0
2164,35531,0
2116,35529,0
2072,35562,0
2028,35539,0
2008,35546,0
1984,35528,0
1984,35531,0
1996,35570,0
2012,35529,0
2056,35560,0
2112,35536,0
2164,35519,0
2208,35572,0
2260,35545,0
2281,35570,0
2300,35547,0
2308,35529,0
2284,35580,0
2254,35562,0
2216,35586,0
2172,35560,0
2129,35575,0
2088,35565,0
2053,35573,0
2040,35530,0
2020,35571,0
2016,35559,0
2028,35592,0
2040,35588,0
2080,35600,0
2128,35575,0
2172,35572,0
2200,35609,0
2248,35591,0
2272,35603,0
2272,35582,0
2268,35573,0
2242,35606,0
2204,35589,0
2152,35616,0
2112,35594,0
2069,35588,0
2026,35618,0
1989,35603,0
1980,35617,0
1970,35607,0
1968,35613,0
2000,35632,0
2022,35620,0
2080,35638,0
2124,35621,0
2186,35619,0
2228,35641,0
2272,35631,0
2289,35636,0
2312,35661,0
2297,35667,0
2282,35666,0
2272,35642,0
2196,35649,0
2148,35661,0
2096,35645,0
2056,35672,0
2019,35648,0
1996,35664,0
1986,35652,0
1984,35640,0
2001,35662,0
2040,35640,0
2082,35656,0
2130,35631,0
2184,35645,0
2232,35653,0
2266,35628,0
2291,35621,0
2304,35615,0
2296,35614,0
2272,35625,0
2240,35592,0
2188,35612,0
2144,35593,0
2094,35582,0
2048,35596,0
2004,35564,0
1996,35549,0
1976,35553,0
1988,35553,0
1998,35534,0
2033,35557,0
2072,35531,0
2128,35513,0
2176,35529,0
2210,35510,0
2252,35520,0
2288,35486,0
2285,35476,0
2272,35507,0
2256,35468,0
2208,35491,0
2164,35458,0
2104,35459,0
2044,35474,0
2001,35446,0
1956,35457,0
1922,35424,0
1900,35422,0
1888,35444,0
1888,35414,0
1916,35423,0
1940,35405,0
1990,35395,0
2002,35415,0
2034,35392,0
2064,35400,0
2060,35380,0
2068,35360,0
2088,35365,0
2034,35379,0
2002,35360,0
1952,35365,0
1952,35367,0
1932,35358,0
1936,35383,0
1973,35355,0
2016,35359,0
2136,35351,0
2228,35367,0
2390,35375,0
2562,35350,0
2776,35381,0
3000,35342,0
3220,35352,0
3424,35374,0
3648,35354,0
3832,35367,0
3976,35355,0
3992,35346,0
4020,35376,0
4032,35362,0
4032,35376,0
4016,35353,0
4016,35366,0
4032,35385,0
4012,35366,0
4020,35394,0
4010,35368,0
4012,35369,0
4000,35535,0
4000,35396,0
4000,35386,0
4016,35412,0
4000,35412,0
4020,35413,0
4000,35402,0
4000,35419,0
3984,35404,0
3984,35414,0
3940,35444,0
3831,35424,0
3640,35450,0
3492,35433,0
3216,35432,0
3000,35464,0
2788,35451,0
2600,35466,0
2424,35458,0
2298,35444,0
2208,35490,0
2149,35478,0
2120,35486,0
2112,35482,0
2112,35486,0
2120,35496,0
2144,35499,0
2138,35514,0
2130,35507,0
2129,35513,0
2080,35538,0
2032,35538,0
1994,35535,0
1962,35541,0
1904,35539,0
1884,35544,0
1856,35565,0
1832,35559,0
1834,35558,0
1848,35591,0
1861,35575,0
1904,35595,0
1932,35586,0
1976,35572,0
2008,35613,0
2044,35599,0
2044,35618,0
2032,35601,0
2016,35589,0
1980,35639,0
1952,35617,0
1904,35646,0
1848,35615,0
1800,35615,0
1757,35657,0
1740,35638,0
1721,35670,0
1721,35644,0
1732,35638,0
1773,35675,0
1788,35654,0
1856,35677,0
1913,35661,0
1952,35669,0
2002,35676,0
2024,35694,0
2040,35688,0
2036,35693,0
2012,35708,0
1976,35691,0
1936,35705,0
1889,35704,0
1834,35727,0
1790,35721,0
1756,35715,0
1721,35728,0
1706,35730,0
1704,35750,0
1728,35732,0
1744,35737,0
1792,35746,0
1840,35752,0
1900,35768,0
1952,35760,0
2008,35775,0
2016,35762,0
2028,35759,0
2026,35784,0
2008,35774,0
1968,35779,0
1930,35778,0
1888,35776,0
1818,35798,0
1792,35775,0
1760,35789,0
1728,35789,0
1716,35787,0
1721,35812,0
1732,35814,0
1758,35793,0
1812,35792,0
1850,35805,0
1906,35819,0
1945,35809,0
1988,35799,0
2004,35808,0
2025,35813,0
2017,35833,0
1996,35806,0
1960,35813,0
1928,35822,0
1868,35821,0
1824,35822,0
1778,35816,0
1744,35833,0
1724,35816,0
1700,35831,0
1704,35844,0
1737,35825,0
1768,35843,0
1808,35823,0
1866,35826,0
1920,35845,0
1972,35825,0
2006,35853,0
2032,35838,0
2043,35841,0
2040,35875,0
2020,35863,0
1984,35839,0
1928,35851,0
1876,35843,0
1820,35858,0
1791,35884,0
1744,35855,0
1722,35858,0
1704,35883,0
1717,35869,0
1744,35893,0
1778,35874,0
1818,35871,0
1880,35898,0
1936,35889,0
1996,35904,0
2032,35887,0
2046,35879,0
2088,35912,0
2047,35901,0
2028,35928,0
1984,35898,0
1936,35889,0
1888,35933,0
1832,35915,0
1788,35930,0
1760,35913,0
1740,35901,0
1704,35954,0
1730,35920,0
1760,35943,0
1794,35930,0
1836,35938,0
1888,35938,0
1937,35952,0
1994,35943,0
2024,35949,0
2046,35963,0
2047,35935,0
2040,35971,0
2016,35946,0
1980,35923,0
1932,35960,0
1882,35944,0
1832,35958,0
1796,35945,0
1760,35947,0
1748,35962,0
1728,35952,0
1736,35978,0
1768,35949,0
1791,35932,0
1848,35977,0
1888,35943,0
1942,35972,0
1992,35952,0
2032,35935,0
2057,35986,0
2064,35964,0
2052,35989,0
2020,35961,0
1984,35948,0
1940,35986,0
1876,35972,0
1844,35963,0
1810,35961,0
1776,35961,0
1764,35978,0
1760,35981,0
1790,35995,0
1800,35979,0
1840,36001,0
1888,35972,0
1941,35962,0
1984,36007,0
2047,35985,0
2072,36015,0
2082,35998,0
2082,35978,0
2068,36023,0
2036,35994,0
2000,36022,0
1952,36006,0
1904,36001,0
1860,36037,0
1820,36020,0
1804,36045,0
1776,36030,0
1781,36024,0
1792,36058,0
1824,36033,0
1868,36051,0
1892,36034,0
1966,36047,0
2016,36077,0
2056,36059,0
2080,36090,0
2097,36072,0
2112,36064,0
2098,36070,0
2072,36088,0
2040,36073,0
1996,36086,0
1952,36071,0
1880,36059,0
1874,36097,0
1856,36082,0
1833,36102,0
1824,36086,0
1828,36065,0
1860,36104,0
1896,36086,0
1936,36106,0
1984,36092,0
2032,36064,0
2064,36099,0
2096,36081,0
2121,36098,0
2128,36080,0
2112,36075,0
2082,36079,0
2038,36079,0
1990,36092,0
1948,36069,0
1896,36073,0
1874,36070,0
1850,36063,0
1832,36074,0
1832,36060,0
1848,36054,0
1866,36052,0
1921,36050,0
1962,36027,0
2016,36066,0
2068,36044,0
2108,36060,0
2148,36038,0
2160,36020,0
2156,36048,0
2144,36026,0
2116,36049,0
2072,36023,0
2020,35994,0
1984,36044,0
1932,36020,0
1892,36040,0
1869,36015,0
1856,35996,0
1860,36040,0
1856,36014,0
1896,36030,0
1936,36018,0
1984,35996,0
2036,36044,0
2084,36021,0
2128,36031,0
2156,35998,0
2160,35999,0
2160,36023,0
2104,36081,0
2064,36034,0
2016,36029,0
1964,36013,0
1928,36044,0
1897,36008,0
1874,35988,0
1862,36048,0
1872,36013,0
1880,36053,0
1916,36019,0
1963,36024,0
2004,36046,0
2054,36025,0
2112,36052,0
2148,36037,0
2184,36028,0
2200,36057,0
2192,36042,0
2184,36040,0
2136,36051,0
2100,36043,0
2056,36076,0
2006,36050,0
1969,36069,0
1930,36068,0
1916,36057,0
1892,36089,0
1882,36067,0
1916,36075,0
1944,36080,0
1986,36082,0
2028,36081,0
2080,36079,0
2130,36088,0
2152,36100,0
2180,36081,0
2180,36088,0
2172,36108,0
2144,36086,0
2112,36076,0
2066,36116,0
2018,36089,0
1980,36106,0
1938,36090,0
1904,36071,0
1884,36111,0
1880,36108,0
1884,36106,0
1904,36092,0
1938,36061,0
1984,36123,0
2032,36095,0
2080,36113,0
2134,36084,0
2169,36061,0
2176,36107,0
2197,36092,0
2192,36100,0
2162,36084,0
2128,36078,0
2076,36107,0
2057,36084,0
1977,36105,0
1944,36078,0
1904,36094,0
1882,36101,0
1880,36089,0
1888,36089,0
1900,36122,0
1940,36088,0
1992,36085,0
2032,36115,0
2084,36101,0
2116,36121,0
2176,36107,0
2192,36103,0
2196,36141,0
2192,36123,0
2162,36115,0
2128,36140,0
2080,36110,0
2036,36138,0
1992,36123,0
1952,36099,0
1928,36154,0
1898,36134,0
1894,36153,0
1900,36130,0
1926,36121,0
1957,36154,0
2008,36148,0
2052,36159,0
2108,36139,0
2150,36127,0
2180,36170,0
2208,36147,0
2200,36166,0
2194,36179,0
2168,36161,0
2132,36163,0
2080,36181,0
2036,36162,0
1988,36182,0
1952,36161,0
1924,36144,0
1904,36189,0
1891,36170,0
1896,36185,0
1920,36177,0
1992,36161,0
2016,36200,0
2060,36184,0
2132,36207,0
2162,36186,0
2196,36194,0
2228,36206,0
2226,36203,0
2216,36225,0
2194,36213,0
2148,36208,0
2108,36222,0
2050,36206,0
2002,36245,0
1956,36218,0
1978,36243,0
1926,36228,0
1921,36236,0
1925,36234,0
1960,36275,0
1980,36257,0
2032,36263,0
2076,36272,0
2124,36257,0
2184,36255,0
2202,36280,0
2226,36273,0
2216,36301,0
2208,36275,0
2189,36282,0
2132,36310,0
2092,36306,0
2034,36329,0
2008,36301,0
1968,36306,0
1924,36347,0
1924,36331,0
1920,36352,0
1924,36350,0
1960,36348,0
1994,36372,0
2034,36368,0
2084,36409,0
2137,36388,0
2179,36406,0
2208,36406,0
2226,36408,0
2232,36444,0
2216,36425,0
2192,36434,0
2136,36450,0
2104,36460,0
2056,36475,0
2008,36471,0
1972,36491,0
1956,36517,0
1936,36499,0
1929,36506,0
1952,36513,0
1972,36516,0
2000,36547,0
2056,36532,0
2096,36546,0
2152,36567,0
2204,36574,0
2224,36595,0
2244,36585,0
2240,36620,0
2232,36612,0
2196,36605,0
2148,36653,0
2112,36637,0
2064,36666,0
2017,36650,0
1977,36643,0
1961,36690,0
1944,36668,0
1948,36690,0
1936,36683,0
1982,36682,0
2018,36721,0
2056,36700,0
2120,36701,0
2160,36718,0
2192,36717,0
2224,36737,0
2228,36736,0
2304,36726,0
2208,36757,0
2180,36746,0
2124,36767,0
2092,36746,0
2046,36753,0
2005,36785,0
2000,36774,0
1952,36781,0
1938,36767,0
1936,36780,0
1952,36812,0
1984,36797,0
2020,36818,0
2064,36808,0
2100,36801,0
2152,36835,0
2188,36826,0
2218,36836,0
2232,36819,0
2224,36830,0
2204,36866,0
2178,36845,0
2130,36864,0
2088,36855,0
2044,36853,0
2000,36883,0
1964,36863,0
1944,36879,0
1924,36861,0
1928,36885,0
1940,36926,0
1974,36890,0
2000,36888,0
2032,36909,0
2092,36893,0
2138,36914,0
2160,36890,0
2197,36894,0
2200,36897,0
2200,36905,0
2178,36922,0
2144,36905,0
2104,36910,0
2072,36917,0
2040,36915,0
2001,36938,0
1980,36914,0
1968,36913,0
1964,36944,0
1976,36931,0
2008,36950,0
2048,36938,0
2080,36919,0
2132,36945,0
2196,36944,0
2232,36963,0
2264,36946,0
2282,36938,0
2296,36966,0
2282,36954,0
2260,36969,0
2226,36969,0
2180,36982,0
2136,36964,0
2084,36938,0
2044,36980,0
2000,36964,0
1984,36981,0
1968,36970,0
1974,36957,0
1996,36998,0
2032,36979,0
2068,36994,0
2128,36972,0
2176,36960,0
2220,37000,0
2264,36978,0
2292,37006,0
2296,36984,0
2296,36963,0
2276,37015,0
2242,36996,0
2192,37029,0
2144,36992,0
2100,36994,0
2060,37025,0
2026,37016,0
1994,37029,0
1994,37001,0
2008,37101,0
2037,37013,0
2082,37036,0
2122,37045,0
2168,37022,0
2210,37030,0
2240,37056,0
2256,37048,0
2272,37034,0
2264,37055,0
2230,37040,0
2203,37062,0
2160,37042,0
2112,37043,0
2072,37074,0
2040,37066,0
2008,37080,0
1992,37051,0
1984,37062,0
1994,37082,0
2008,37054,0
2040,37076,0
2084,37072,0
2144,37073,0
2198,37096,0
2241,37084,0
2284,37105,0
2298,37082,0
2314,37087,0
2293,37111,0
2262,37106,0
2226,37117,0
2168,37101,0
2124,37114,0
2068,37101,0
2032,37103,0
1994,37105,0
1977,37118,0
1968,37154,0
1980,37123,0
2012,37145,0
2042,37134,0
2080,37142,0
2132,37167,0
2184,37154,0
2228,37165,0
2250,37160,0
2277,37170,0
2282,37191,0
2268,37179,0
2240,37201,0
2200,37181,0
2152,37193,0
2106,37225,0
2053,37197,0
2024,37224,0
1984,37204,0
1971,37224,0
1969,37235,0
1976,37226,0
2008,37236,0
2042,37237,0
2081,37235,0
2120,37258,0
2168,37247,0
2204,37250,0
2212,37257,0
2210,37278,0
2201,37267,0
2168,37272,0
2122,37261,0
2065,37299,0
2000,37285,0
1938,37302,0
1882,37281,0
1842,37284,0
1797,37319,0
1769,37307,0
1753,37323,0
1761,37305,0
1800,37287,0
1850,37340,0
1909,37320,0
1986,37340,0
2076,37327,0
2160,37317,0
2268,37357,0
2380,37338,0
2480,37367,0
2592,37345,0
2716,37332,0
2812,37370,0
2933,37363,0
3040,37386,0
3165,37358,0
3344,37350,0
3440,37394,0
3583,37384,0
3764,37376,0
3944,37398,0
3984,37402,0
4000,37390,0
4000,37408,0
4000,37389,0
4000,37394,0
4008,37411,0
4008,37406,0
4032,37422,0
4000,37403,0
4016,37416,0
4000,37437,0
4008,37416,0
3994,37417,0
4008,37431,0
4008,37419,0
3992,37441,0
4000,37420,0
4016,37427,0
3988,37444,0
3960,37448,0
3856,37459,0
3712,37426,0
3568,37425,0
3392,37466,0
3232,37441,0
3052,37466,0
2876,37447,0
2720,37445,0
2556,37466,0
2410,37462,0
2288,37448,0
2164,37450,0
2072,37466,0
1996,37461,0
1936,37481,0
1898,37459,0
1876,37437,0
1874,37490,0
1884,37461,0
1915,37477,0
1944,37460,0
1986,37460,0
2038,37494,0
2080,37475,0
2120,37502,0
2144,37475,0
2152,37464,0
2152,37499,0
2124,37484,0
2088,37497,0
2035,37474,0
1980,37465,0
1920,37495,0
1852,37479,0
1800,37498,0
1772,37484,0
1732,37477,0
1732,37513,0
1732,37483,0
1744,37506,0
1790,37483,0
1820,37500,0
1876,37493,0
1932,37489,0
1980,37503,0
2016,37481,0
2040,37494,0
2060,37496,0
2056,37509,0
2020,37486,0
1978,37461,0
1940,37516,0
1892,37486,0
1834,37503,0
1788,37487,0
1746,37484,0
1714,37507,0
1696,37482,0
1706,37499,0
1732,37488,0
1756,37490,0
1809,37506,0
1872,37495,0
1916,37498,0
1960,37497,0
2008,37487,0
2028,37495,0
2044,37490,0
2029,37464,0
2008,37505,0
1970,37488,0
1920,37512,0
1864,37504,0
1812,37520,0
1768,37488,0
1724,37490,0
1716,37484,0
1712,37508,0
1716,37485,0
1732,37471,0
1768,37516,0
1816,37480,0
1864,37503,0
1924,37472,0
1968,37474,0
2008,37500,0
2040,37479,0
2044,37494,0
2032,37487,0
2008,37487,0
1964,37512,0
1916,37481,0
1872,37476,0
1816,37497,0
1778,37487,0
1740,37506,0
1718,37486,0
1716,37476,0
1718,37516,0
1749,37497,0
1766,37522,0
1832,37492,0
1880,37475,0
1936,37511,0
1984,37507,0
2020,37508,0
2036,37531,0
2042,37507,0
2032,37505,0
2009,37510,0
1968,37502,0
1922,37488,0
1872,37522,0
1825,37492,0
1778,37511,0
1765,37501,0
1744,37505,0
1736,37529,0
1748,37498,0
1761,37494,0
1824,37517,0
1850,37511,0
1896,37520,0
1942,37496,0
1976,37488,0
2016,37529,0
2033,37495,0
2038,37528,0
2024,37492,0
1997,37498,0
1960,37525,0
1912,37502,0
1848,37507,0
1821,37504,0
1784,37498,0
1738,37513,0
1736,37504,0
1726,37521,0
1732,37494,0
1772,37493,0
1804,37499,0
1856,37489,0
1896,37502,0
1944,37506,0
2000,37518,0
2032,37501,0
2047,37488,0
2058,37505,0
2042,37493,0
2016,37506,0
1968,37491,0
1922,37496,0
1880,37528,0
1828,37498,0
1790,37523,0
1768,37498,0
1752,37491,0
1749,37515,0
1766,37492,0
1800,37524,0
1834,37492,0
1876,37503,0
1924,37519,0
1976,37491,0
2016,37505,0
2050,37505,0
2068,37504,0
2044,37447,0
2013,37484,0
1972,37513,0
1894,37497,0
1872,37519,0
1822,37516,0
1780,37488,0
1760,37494,0
1728,37498,0
1740,37489,0
1768,37517,0
1792,37492,0
1840,37485,0
1888,37493,0
1953,37499,0
1994,37512,0
2046,37486,0
2074,37462,0
2100,37501,0
2088,37486,0
2068,37507,0
2036,37474,0
2000,37462,0
1954,37500,0
1896,37478,0
1858,37480,0
1824,37468,0
1800,37446,0
1777,37484,0
1792,37467,0
1810,37478,0
1840,37450,0
1874,37447,0
1916,37462,0
1970,37481,0
2018,37465,0
2056,37443,0
2080,37439,0
2104,37452,0
2104,37435,0
2084,37426,0
2056,37443,0
2036,37423,0
1975,37434,0
1930,37425,0
1888,37416,0
1857,37436,0
1832,37411,0
1820,37414,0
1824,37415,0
1834,37394,0
1864,37414,0
1896,37399,0
1938,37396,0
1992,37394,0
2042,37385,0
2081,37406,0
2107,37376,0
2128,37363,0
2124,37392,0
2116,37372,0
2072,37382,0
2034,37367,0
1992,37344,0
1960,37369,0
1896,37371,0
1858,37338,0
1848,37349,0
1828,37359,0
1828,37346,0
1848,37316,0
1874,37354,0
1900,37338,0
1960,37357,0
2016,37333,0
2064,37305,0
2098,37353,0
2128,37335,0
2138,37344,0
2140,37317,0
2112,37300,0
2080,37345,0
2030,37320,0
1990,37337,0
1944,37304,0
1900,37316,0
1862,37324,0
1837,37318,0
1820,37323,0
1824,37306,0
1849,37306,0
1880,37326,0
1913,37308,0
1980,37315,0
2034,37306,0
2088,37307,0
2132,37319,0
2160,37304,0
2164,37299,0
2164,37320,0
2140,37310,0
2098,37300,0
2058,37295,0
2010,37314,0
1956,37294,0
1920,37314,0
1888,37300,0
1865,37283,0
1856,37325,0
1860,37309,0
1884,37319,0
1920,37305,0
1961,37295,0
2004,37334,0
2060,37312,0
2108,37325,0
2144,37304,0
2180,37295,0
2184,37335,0
2178,37304,0
2160,37333,0
2117,37320,0
2074,37301,0
2036,37332,0
1973,37306,0
1941,37342,0
1916,37309,0
1892,37305,0
1884,37324,0
1898,37315,0
1916,37316,0
1948,37307,0
1992,37333,0
2040,37326,0
2089,37312,0
2128,37319,0
2160,37331,0
2178,37311,0
2188,37330,0
2177,37328,0
2148,37331,0
2120,37334,0
2074,37332,0
2024,37342,0
1984,37317,0
1938,37328,0
1906,37337,0
1898,37313,0
1888,37335,0
1892,37340,0
1916,37324,0
1956,37346,0
1992,37321,0
2038,37330,0
2092,37350,0
2138,37336,0
2177,37359,0
2196,37338,0
2189,37324,0
2180,37349,0
2144,37355,0
2104,37331,0
2068,37340,0
2026,37356,0
1980,37356,0
1936,37348,0
1916,37324,0
1896,37374,0
1888,37342,0
1904,37376,0
1928,37345,0
1952,37351,0
1997,37383,0
2044,37358,0
2096,37379,0
2138,37357,0
2160,37347,0
2188,37387,0
2192,37364,0
2172,37381,0
2144,37374,0
2104,37371,0
2084,37392,0
2016,37374,0
1976,37393,0
1930,37378,0
1904,37377,0
1898,37399,0
1874,37378,0
1904,37378,0
1941,37403,0
1976,37386,0
2016,37398,0
2072,37398,0
2120,37394,0
2160,37399,0
2180,37402,0
2209,37412,0
2204,37398,0
2188,37432,0
2144,37403,0
2116,37420,0
2072,37429,0
2018,37412,0
1980,37436,0
1944,37411,0
1916,37406,0
1912,37434,0
1904,37420,0
1920,37437,0
1944,37417,0
1976,37407,0
2028,37445,0
2072,37423,0
2136,37437,0
2164,37421,0
2202,37413,0
2216,37428,0
2218,37414,0
2208,37418,0
2194,37420,0
2125,37414,0
2074,37430,0
2017,37407,0
1978,37422,0
1942,37432,0
1908,37400,0
1904,37418,0
1898,37417,0
1922,37399,0
1944,37385,0
1984,37411,0
2040,37396,0
2088,37415,0
2136,37382,0
2189,37368,0
2216,37404,0
2234,37386,0
2212,37405,0
2216,37371,0
2184,37363,0
2144,37398,0
2088,37372,0
2040,37386,0
2000,37368,0
1978,37362,0
1940,37385,0
1921,37357,0
1920,37374,0
1932,37368,0
1964,37357,0
2004,37375,0
2060,37352,0
2100,37352,0
2141,37375,0
2176,37361,0
2208,37346,0
2218,37348,0
2224,37348,0
2204,37359,0
2168,37341,0
2128,37338,0
2080,37371,0
2037,37345,0
1978,37364,0
1964,37344,0
1938,37339,0
1931,37371,0
1936,37345,0
1944,37349,0
1988,37355,0
2010,37345,0
2064,37355,0
2104,37356,0
2156,37326,0
2192,37359,0
2216,37343,0
2240,37361,0
2232,37341,0
2208,37333,0
2176,37373,0
2128,37341,0
2084,37365,0
2040,37348,0
1998,37338,0
1976,37376,0
1948,37359,0
1940,37339,0
1962,37356,0
1992,37349,0
2032,37349,0
2076,37371,0
2128,37381,0
2162,37357,0
2208,37340,0
2236,37379,0
2242,37354,0
2230,37374,0
2213,37359,0
2184,37341,0
2144,37377,0
2104,37351,0
2064,37379,0
2016,37347,0
1986,37348,0
1960,37374,0
1952,37361,0
1952,37382,0
1971,37353,0
2008,37355,0
2040,37372,0
2080,37358,0
2138,37359,0
2182,37354,0
2216,37370,0
2248,37368,0
2250,37348,0
2232,37336,0
2210,37368,0
2176,37306,0
2128,37356,0
2074,37351,0
2024,37362,0
1984,37331,0
1962,37335,0
1936,37351,0
1922,37323,0
1928,37302,0
1957,37357,0
2000,37323,0
2045,37337,0
2088,37308,0
2144,37299,0
2186,37342,0
2240,37320,0
2236,37327,0
2232,37302,0
2216,37292,0
2192,37323,0
2146,37307,0
2096,37328,0
2048,37299,0
1996,37279,0
1960,37325,0
1920,37298,0
1898,37308,0
1888,37295,0
1877,37270,0
1915,37308,0
1949,37293,0
2000,37311,0
2080,37306,0
2120,37285,0
2156,37290,0
2197,37303,0
2236,37287,0
2240,37309,0
2240,37292,0
2221,37301,0
2192,37285,0
2148,37264,0
2112,37315,0
2071,37291,0
2028,37300,0
1993,37276,0
1984,37272,0
1986,37312,0
1988,37289,0
2020,37311,0
2052,37291,0
2096,37290,0
2148,37315,0
2198,37295,0
2240,37309,0
2276,37295,0
2293,37289,0
2289,37311,0
2277,37307,0
2248,37301,0
2224,37316,0
2176,37311,0
2130,37320,0
2084,37310,0
2044,37309,0
2016,37302,0
2000,37334,0
1984,37327,0
1996,37310,0
2020,37343,0
2046,37324,0
2088,37346,0
2132,37323,0
2184,37308,0
2218,37355,0
2256,37331,0
2264,37353,0
2272,37333,0
2256,37323,0
2224,37366,0
2180,37345,0
2144,37364,0
2089,37339,0
2066,37334,0
2012,37375,0
1992,37345,0
1973,37376,0
1978,37352,0
1995,37349,0
2022,37386,0
2052,37363,0
2104,37385,0
2160,37360,0
2200,37365,0
2246,37389,0
2272,37369,0
2280,37368,0
2272,37384,0
2252,37396,0
2228,37398,0
2176,37395,0
2132,37385,0
2088,37375,0
2047,37407,0
2012,37389,0
1992,37425,0
1976,37391,0
1988,37388,0
2000,37424,0
2024,37408,0
2066,37419,0
2116,37394,0
2162,37390,0
2212,37417,0
2242,37406,0
2272,37422,0
2288,37412,0
2280,37407,0
2256,37431,0
2234,37402,0
2193,37405,0
2140,37419,0
2098,37420,0
2060,37419,0
2026,37400,0
2004,37404,0
2000,37410,0
2000,37413,0
2018,37431,0
2044,37424,0
2080,37426,0
2121,37405,0
2168,37406,0
2208,37399,0
2252,37408,0
2264,37418,0
2284,37405,0
2272,37422,0
2256,37405,0
2222,37386,0
2176,37424,0
2128,37411,0
2068,37433,0
2018,37409,0
1984,37387,0
1948,37429,0
1924,37410,0
1912,37425,0
1918,37392,0
1936,37404,0
1958,37412,0
1978,37398,0
2013,37411,0
2040,37408,0
2064,37392,0
2072,37409,0
2080,37386,0
2056,37378,0
2026,37416,0
1992,37392,0
1944,37390,0
1904,37376,0
1881,37378,0
1856,37368,0
1856,37406,0
1873,37376,0
1928,37371,0
2002,37388,0
2112,37370,0
2256,37368,0
2432,37368,0
2632,37360,0
2824,37369,0
3040,37361,0
3216,37341,0
3412,37355,0
3576,37341,0
3744,37363,0
3872,37337,0
3992,37311,0
3992,37361,0
4016,37345,0
4012,37351,0
4016,37329,0
4020,37311,0
4032,37360,0
4018,37324,0
4008,37348,0
4010,37329,0
4016,37313,0
4002,37331,0
4024,37313,0
4000,37309,0
4000,37330,0
3992,37321,0
3992,37318,0
3992,37340,0
3984,37303,0
3984,37293,0
3968,37324,0
3888,37307,0
3744,37326,0
3568,37299,0
3372,37285,0
3140,37323,0
2952,37304,0
2748,37315,0
2592,37298,0
2444,37280,0
2336,37309,0
2256,37301,0
2216,37310,0
2176,37289,0
2166,37288,0
2176,37313,0
2164,37286,0
2162,37315,0
2148,37296,0
2112,37293,0
2088,37316,0
2042,37280,0
2014,37289,0
1968,37305,0
1922,37288,0
1892,37296,0
1872,37302,0
1848,37283,0
1845,37299,0
1860,37335,0
1876,37289,0
1900,37300,0
1924,37321,0
1980,37308,0
1992,37319,0
2024,37315,0
2042,37305,0
2040,37323,0
2025,37313,0
1988,37310,0
1956,37323,0
1906,37327,0
1856,37349,0
1816,37331,0
1778,37324,0
1752,37334,0
1736,37327,0
1734,37351,0
1748,37331,0
1772,37323,0
1808,37366,0
1844,37352,0
1898,37372,0
1924,37353,0
1988,37337,0
2004,37388,0
2016,37359,0
2040,37363,0
1994,37375,0
1970,37382,0
1928,37385,0
1882,37385,0
1820,37373,0
1784,37404,0
1736,37396,0
1716,37405,0
1698,37408,0
1656,37405,0
1703,37423,0
1728,37397,0
1768,37381,0
1792,37425,0
1864,37401,0
1928,37425,0
1968,37405,0
2000,37385,0
2008,37430,0
2012,37413,0
2000,37430,0
1962,37397,0
1920,37395,0
1872,37433,0
1826,37412,0
1773,37418,0
1744,37418,0
1692,37394,0
1705,37430,0
1704,37410,0
1744,37378,0
1796,37435,0
1844,37412,0
1890,37431,0
1948,37403,0
1984,37433,0
2020,37420,0
2040,37438,0
2040,37405,0
2024,37397,0
2000,37430,0
1953,37412,0
1900,37432,0
1856,37406,0
1800,37385,0
1756,37431,0
1740,37416,0
1716,37423,0
1716,37405,0
1728,37378,0
1752,37426,0
1788,37412,0
1836,37415,0
1889,37402,0
1941,37375,0
1985,37429,0
2017,37401,0
2028,37408,0
2037,37386,0
2016,37362,0
1982,37405,0
1932,37384,0
1888,37378,0
1840,37387,0
1796,37377,0
1744,37384,0
1724,37372,0
1708,37368,0
1713,37363,0
1732,37368,0
1756,37361,0
1808,37374,0
1860,37361,0
1917,37363,0
1962,37351,0
2010,37359,0
2040,37375,0
2052,37349,0
2040,37348,0
2012,37355,0
1988,37343,0
1946,37357,0
1898,37343,0
1842,37356,0
1797,37351,0
1770,37340,0
1741,37356,0
1720,37329,0
1718,37334,0
1744,37348,0
1754,37331,0
1838,37348,0
1866,37329,0
1920,37309,0
1961,37317,0
1990,37324,0
2032,37334,0
2060,37325,0
2047,37340,0
2024,37330,0
1992,37348,0
1949,37329,0
1896,37313,0
1862,37349,0
1812,37327,0
1782,37348,0
1752,37328,0
1744,37322,0
1760,37349,0
1772,37332,0
1812,37340,0
1864,37324,0
1896,37328,0
1952,37356,0
2008,37330,0
2040,37353,0
2061,37337,0
2056,37331,0
2053,37359,0
2032,37333,0
2000,37335,0
1957,37342,0
1904,37335,0
1872,37357,0
1824,37343,0
1796,37329,0
1776,37348,0
1773,37355,0
1776,37348,0
1789,37356,0
1832,37344,0
1876,37322,0
1928,37354,0
1978,37339,0
2024,37355,0
2060,37322,0
2086,37307,0
2104,37349,0
2088,37334,0
2072,37346,0
2032,37323,0
1984,37299,0
1952,37347,0
1896,37316,0
1864,37339,0
1824,37315,0
1802,37294,0
1778,37339,0
1785,37308,0
1800,37326,0
1836,37298,0
1874,37272,0
1936,37320,0
1976,37292,0
2024,37298,0
2068,37276,0
2086,37265,0
2096,37272,0
2088,37256,0
2064,37268,0
2028,37262,0
1988,37268,0
1944,37262,0
1898,37268,0
1860,37231,0
1841,37220,0
1826,37247,0
1812,37220,0
1824,37242,0
1849,37208,0
1890,37204,0
1930,37226,0
1986,37195,0
2032,37207,0
2076,37185,0
2112,37176,0
2124,37189,0
2133,37160,0
2114,37168,0
2084,37154,0
2038,37149,0
1994,37156,0
1946,37130,0
1907,37120,0
1852,37145,0
1840,37123,0
1812,37135,0
1828,37113,0
1844,37083,0
1860,37130,0
1912,37118,0
1956,37088,0
2004,37082,0
2058,37095,0
2108,37076,0
2134,37096,0
2156,37074,0
2162,37080,0
2140,37054,0
2112,37045,0
2060,37082,0
2016,37052,0
1968,37064,0
1920,37055,0
1876,37048,0
1846,37054,0
1836,37029,0
1824,37047,0
1860,37026,0
1868,37030,0
1908,37036,0
1953,37018,0
2016,37035,0
2064,37015,0
2124,37023,0
2152,37033,0
2176,37013,0
2176,37031,0
2169,37008,0
2144,37000,0
2106,37012,0
2064,36999,0
2008,37002,0
1956,37004,0
1912,37011,0
1880,36985,0
1866,37010,0
1864,37007,0
1864,36983,0
1897,37004,0
1936,36964,0
1973,36961,0
2016,37001,0
2072,36966,0
2120,36974,0
2144,36967,0
2160,36965,0
2164,36978,0
2152,36955,0
2120,36945,0
2074,36956,0
2028,36947,0
1984,36967,0
1932,36941,0
1914,36933,0
1880,36946,0
1857,36934,0
1858,36958,0
1874,36935,0
1902,36934,0
1912,36936,0
1988,36930,0
2034,36941,0
2064,36927,0
2120,36951,0
2144,36937,0
2153,36928,0
2152,36944,0
2138,36941,0
2108,36934,0
2068,36908,0
2018,36944,0
1976,36916,0
1936,36918,0
1904,36929,0
1877,36933,0
1846,36954,0
1856,36930,0
1872,36912,0
1904,36936,0
1940,36931,0
1992,36941,0
2040,36927,0
2096,36920,0
2136,36951,0
2184,36942,0
2176,36966,0
2176,36935,0
2160,36915,0
2114,36963,0
2064,36947,0
2021,36964,0
1964,36946,0
1928,36951,0
1888,36972,0
1864,36948,0
1874,36967,0
1864,36972,0
1888,36988,0
1918,36971,0
1956,36964,0
2008,36998,0
2064,36970,0
2116,36970,0
2156,37000,0
2180,36986,0
2196,36986,0
2196,36991,0
2164,36991,0
2136,37003,0
2096,36991,0
2036,36988,0
2000,37006,0
1946,36988,0
1906,37016,0
1888,36994,0
1880,36984,0
1874,37020,0
1896,36994,0
1924,37014,0
1969,36999,0
2018,36986,0
2064,37026,0
2116,37019,0
2160,37024,0
2172,37003,0
2176,36992,0
2148,37052,0
2116,37028,0
2060,37008,0
2018,37020,0
1982,37023,0
1944,37002,0
1900,37040,0
1892,37024,0
1882,37034,0
1888,37014,0
1904,37003,0
1944,37044,0
1984,37028,0
2032,37034,0
2088,37033,0
2136,37007,0
2168,37041,0
2192,37033,0
2208,37045,0
2192,37018,0
2176,37009,0
2144,37047,0
2096,37036,0
2048,37052,0
1996,37025,0
1962,37020,0
1920,37064,0
1900,37037,0
1872,37058,0
1898,37042,0
1920,37017,0
1944,37067,0
2000,37052,0
2042,37017,0
2096,37057,0
2148,37041,0
2176,37068,0
2200,37074,0
2210,37051,0
2196,37069,0
2164,37056,0
2130,37051,0
2089,37081,0
2039,37055,0
1988,37075,0
1948,37066,0
1920,37068,0
1900,37084,0
1900,37060,0
1904,37045,0
1928,37080,0
1960,37062,0
2008,37089,0
2064,37067,0
2112,37046,0
2150,37092,0
2186,37071,0
2202,37089,0
2209,37057,0
2196,37054,0
2180,37084,0
2128,37069,0
2082,37079,0
2033,37056,0
2008,37071,0
1968,37073,0
1924,37063,0
1916,37079,0
1904,37057,0
1912,37065,0
1932,37053,0
1969,37084,0
2008,37062,0
2060,37084,0
2112,37063,0
2152,37044,0
2188,37085,0
2208,37060,0
2210,37079,0
2204,37048,0
2184,37049,0
2152,37079,0
2114,37063,0
2068,37052,0
2024,37062,0
1972,37058,0
1956,37089,0
1940,37061,0
1926,37040,0
1944,37080,0
1970,37063,0
2004,37080,0
2045,37052,0
2096,37042,0
2148,37088,0
2188,37062,0
2216,36971,0
1884,36979,0
1908,36977,0
1936,36963,0
1974,36968,0
2021,36954,0
2073,36937,0
2133,36967,0
2181,36930,0
2208,36951,0
2242,36931,0
2248,36910,0
2233,36940,0
2200,36921,0
2168,36937,0
2130,36905,0
2088,36892,0
2040,36932,0
2016,36910,0
1984,36916,0
1964,36892,0
1961,36876,0
1977,36921,0
2012,36880,0
2048,36905,0
2101,36874,0
2144,36882,0
2192,36904,0
2236,36871,0
2252,36848,0
2264,36880,0
2258,36879,0
2228,36881,0
2232,36867,0
2156,36867,0
2113,36867,0
2074,36867,0
2028,36867,0
1996,36867,0
1976,36867,0
1969,36867,0
1968,36867,0
1992,36867,0
2016,36867,0
2060,36860,0
2112,36860,0
2168,36860,0
2208,36860,0
2244,36860,0
2264,36860,0
2280,36860,0
2272,36917,0
2244,36860,0
2204,36860,0
2160,36860,0
2112,36860,0
2056,36860,0
2012,36860,0
1979,36913,0
1957,36851,0
1944,36851,0
1928,36851,0
1968,36851,0
1992,36851,0
2044,36851,0
2096,36911,0
2144,36897,0
2196,36944,0
2244,36921,0
2266,36949,0
2280,36930,0
2280,36927,0
2256,36956,0
2228,36941,0
2176,36961,0
2132,36950,0
2095,36944,0
2052,36978,0
2012,36969,0
1976,36982,0
1962,36965,0
1960,36970,0
1980,36998,0
2004,36990,0
2042,36995,0
2124,36998,0
2144,37004,0
2196,37018,0
2232,37014,0
2257,37000,0
2275,37036,0
2268,37021,0
2242,37042,0
2028,37049,0
2000,37030,0
1980,37046,0
1980,37017,0
1968,37052,0
2008,37055,0
2032,37059,0
2072,37037,0
2116,37086,0
2162,37055,0
2208,37080,0
2237,37061,0
2264,37045,0
2272,37092,0
2258,37063,0
2232,37104,0
2200,37076,0
2144,37062,0
2096,37106,0
2041,37083,0
2032,37105,0
1992,37095,0
1940,37065,0
1922,37123,0
1920,37097,0
1928,37119,0
1952,37090,0
1976,37086,0
2002,37128,0
2048,37110,0
2076,37135,0
2096,37112,0
2088,37108,0
2112,37110,0
2088,37144,0
2044,37138,0
2000,37148,0
1952,37115,0
1906,37113,0
1868,37141,0
1824,37127,0
1828,37138,0
1828,37136,0
1848,37127,0
1900,37157,0
1984,37142,0
2080,37146,0
2216,37155,0
2360,37150,0
2520,37160,0
2704,37145,0
2868,37148,0
3032,37152,0
3200,37167,0
3352,37171,0
3473,37147,0
3588,37167,0
3700,37162,0
3796,37164,0
3890,37173,0
3984,37144,0
3992,37144,0
3996,37182,0
3988,37194,0
3992,37163,0
3988,37159,0
3988,37180,0
3988,37186,0
3984,37178,0
4000,37165,0
3986,37167,0
3984,37197,0
3986,37173,0
3972,37171,0
3952,37190,0
3860,37187,0
3748,37193,0
3576,37167,0
3408,37165,0
3220,37199,0
3056,37179,0
2896,37197,0
2752,37170,0
2640,37180,0
2553,37202,0
2484,37171,0
2432,37191,0
2408,37175,0
2392,37178,0
2386,37200,0
2376,37173,0
2369,37174,0
2338,37172,0
2298,37172,0
2260,37187,0
2208,37194,0
2148,37181,0
2090,37161,0
2036,37172,0
1986,37150,0
1954,37183,0
1912,37157,0
1896,37158,0
1882,37169,0
1888,37155,0
1908,37143,0
1949,37167,0
1980,37155,0
2016,37170,0
2044,37147,0
2073,37143,0
2072,37162,0
2068,37145,0
2064,37164,0
2016,37144,0
1976,37133,0
1920,37171,0
1865,37143,0
1828,37161,0
1797,37136,0
1766,37125,0
1756,37166,0
1760,37140,0
1750,37154,0
1798,37134,0
1840,37141,0
1878,37161,0
1924,37137,0
1972,37138,0
2016,37135,0
2052,37155,0
2056,37150,0
2052,37152,0
2028,37133,0
1992,37145,0
1960,37127,0
1900,37104,0
1852,37147,0
1813,37116,0
1786,37148,0
1748,37123,0
1746,37110,0
1740,37136,0
1760,37123,0
1776,37121,0
1824,37114,0
1872,37111,0
1928,37128,0
1972,37115,0
2009,37101,0
2048,37132,0
2040,37119,0
2060,37137,0
2034,37115,0
1992,37097,0
1941,37136,0
1908,37118,0
1860,37140,0
1808,37115,0
1777,37119,0
1754,37130,0
1736,37127,0
1744,37126,0
1760,37121,0
1793,37118,0
1836,37119,0
1890,37146,0
1937,37136,0
1986,37124,0
2025,37137,0
2052,37127,0
2068,37140,0
2064,37130,0
2044,37109,0
2004,37152,0
1956,37143,0
1900,37154,0
1856,37132,0
1816,37125,0
1777,37166,0
1752,37135,0
1739,37143,0
1746,37159,0
1768,37149,0
1800,37159,0
1842,37141,0
1896,37133,0
1928,37179,0
1990,37152,0
2030,37180,0
2050,37154,0
2060,37163,0
2054,37150,0
2032,37160,0
2002,37159,0
1960,37183,0
1906,37173,0
1872,37173,0
1820,37198,0
1786,37174,0
1764,37156,0
1756,37207,0
1759,37182,0
1780,37206,0
1808,37191,0
1848,37180,0
1904,37228,0
1960,37201,0
2000,37219,0
2040,37204,0
2064,37215,0
2072,37242,0
2068,37211,0
2038,37213,0
2004,37223,0
1964,37224,0
1920,37236,0
1876,37220,0
1840,37211,0
1786,37246,0
1793,37233,0
1784,37255,0
1780,37241,0
1812,37250,0
1844,37237,0
1888,37247,0
1933,37247,0
1984,37254,0
2024,37266,0
2056,37263,0
2076,37282,0
2088,37256,0
2073,37247,0
2047,37297,0
2017,37281,0
1973,37300,0
1924,37278,0
1892,37277,0
1844,37321,0
1825,37287,0
1808,37302,0
1812,37290,0
1816,37294,0
1842,37314,0
1873,37303,0
1920,37299,0
1964,37322,0
2018,37313,0
