3920,39645,0
4094,39683,0
4095,39649,0
4095,39653,0
4095,39671,0
4095,39639,0
4095,39652,0
4095,39669,0
4095,39645,0
4095,39651,0
4095,39656,0
4095,39644,0
4095,39657,0
4095,39671,0
4095,39641,0
4095,39656,0
4095,39674,0
4095,39640,0
4095,39655,0
4095,39672,0
4095,39655,0
4016,39654,0
3870,39673,0
3712,39654,0
3513,39668,0
3344,39676,0
3064,39651,0
2896,39668,0
2706,39683,0
2520,39655,0
2368,39683,0
2266,39679,0
2152,39658,0
2100,39666,0
2056,39667,0
2004,39654,0
2000,39671,0
2010,39662,0
2000,39660,0
2024,39676,0
2036,39662,0
2072,39648,0
2076,39679,0
2068,39665,0
2056,39661,0
2056,39674,0
2028,39651,0
2026,39656,0
2002,39679,0
1972,39652,0
1942,39665,0
1906,39674,0
1874,39650,0
1840,39659,0
1798,39690,0
1805,39658,0
1792,39665,0
1784,39686,0
1776,39678,0
1777,39677,0
1780,39670,0
1817,39678,0
1812,39686,0
1828,39691,0
1888,39662,0
1826,39684,0
1848,39688,0
1842,39670,0
1840,39689,0
1831,39697,0
1824,39677,0
1812,39693,0
1797,39685,0
1776,39675,0
1772,39691,0
1778,39681,0
1760,39676,0
1764,39702,0
1776,39671,0
1766,39681,0
1776,39701,0
1796,39665,0
1805,39680,0
1824,39705,0
1841,39674,0
1844,39679,0
1833,39711,0
1846,39679,0
1848,39686,0
1832,39714,0
1812,39694,0
1818,39712,0
1784,39704,0
1788,39700,0
1776,39727,0
1780,39683,0
1770,39693,0
1768,39715,0
1776,39693,0
1782,39686,0
1796,39712,0
1824,39698,0
1836,39698,0
1856,39716,0
1848,39706,0
1856,39712,0
1856,39726,0
1856,39700,0
1858,39715,0
1833,39721,0
1820,39699,0
1820,39724,0
1802,39699,0
1774,39703,0
1781,39721,0
1780,39699,0
1776,39706,0
1776,39722,0
1776,39669,0
1802,39703,0
1810,39719,0
1824,39698,0
1829,39714,0
1852,39733,0
1860,39694,0
1864,39717,0
1868,39705,0
1866,39731,0
1844,39727,0
1844,39704,0
1824,39736,0
1814,39722,0
1808,39702,0
1789,39736,0
1784,39705,0
1785,39708,0
1786,39743,0
1792,39699,0
1796,39709,0
1800,39724,0
1808,39697,0
1832,39711,0
1840,39730,0
1872,39705,0
1877,39705,0
1868,39728,0
1878,39715,0
1888,39710,0
1872,39736,0
1858,39722,0
1844,39718,0
1838,39741,0
1817,39715,0
1786,39728,0
1772,39731,0
1786,39724,0
1788,39743,0
1784,39753,0
1804,39720,0
1818,39727,0
1800,39748,0
1848,39733,0
1857,39716,0
1874,39738,0
1878,39736,0
1884,39733,0
1888,39746,0
1888,39723,0
1874,39734,0
1858,39735,0
1842,39717,0
1840,39746,0
1826,39728,0
1824,39720,0
1824,39739,0
1826,39705,0
1824,39719,0
1850,39730,0
1842,39698,0
1880,39713,0
1872,39742,0
1884,39712,0
1908,39716,0
1910,39733,0
1920,39718,0
1912,39728,0
1916,39722,0
1898,39724,0
1892,39733,0
1880,39721,0
1866,39724,0
1852,39724,0
1842,39710,0
1840,39723,0
1836,39721,0
1820,39708,0
1830,39722,0
1832,39712,0
1848,39704,0
1864,39719,0
1872,39682,0
1881,39703,0
1910,39716,0
1912,39683,0
1916,39683,0
1924,39706,0
1932,39687,0
1920,39680,0
1904,39702,0
1890,39679,0
1876,39681,0
1858,39700,0
1852,39680,0
1841,39677,0
1846,39706,0
1840,39667,0
1856,39693,0
1848,39679,0
1856,39666,0
1868,39685,0
1894,39686,0
1900,39652,0
1916,39642,0
1936,39654,0
1944,39674,0
1952,39632,0
1954,39658,0
1952,39664,0
1942,39644,0
1930,39651,0
1920,39667,0
1894,39647,0
1898,39633,0
1880,39663,0
1884,39642,0
1880,39630,0
1872,39658,0
1888,39643,0
1912,39634,0
1921,39653,0
1944,39636,0
1953,39634,0
1992,39655,0
1978,39632,0
1984,39652,0
1986,39634,0
1984,39624,0
1974,39653,0
1968,39627,0
1952,39618,0
1933,39619,0
1928,39609,0
1908,39620,0
1904,39609,0
1906,39630,0
1897,39613,0
1904,39602,0
1928,39628,0
1936,39609,0
1948,39624,0
1957,39618,0
1994,39604,0
2000,39633,0
2008,39591,0
2024,39604,0
2020,39624,0
2024,39585,0
2024,39590,0
2016,39612,0
1988,39583,0
1984,39587,0
1987,39608,0
1968,39587,0
1956,39595,0
1960,39610,0
1968,39586,0
1956,39589,0
1950,39606,0
1976,39593,0
1988,39584,0
2021,39600,0
2024,39579,0
2022,39585,0
2044,39614,0
2042,39607,0
2038,39610,0
2036,39557,0
2024,39572,0
2016,39597,0
1992,39558,0
1978,39569,0
1960,39591,0
1945,39558,0
1928,39575,0
1926,39587,0
1918,39562,0
1924,39568,0
1917,39590,0
1941,39567,0
1944,39573,0
1964,39578,0
1982,39566,0
2022,39566,0
2032,39587,0
2048,39563,0
2064,39583,0
2056,39586,0
2064,39569,0
2032,39567,0
2010,39567,0
2005,39551,0
1994,39580,0
1977,39549,0
1956,39548,0
1948,39562,0
1944,39553,0
1946,39552,0
1949,39561,0
1968,39554,0
1976,39552,0
1988,39567,0
1996,39561,0
2016,39561,0
2024,39573,0
2042,39551,0
2042,39565,0
2056,39574,0
2060,39556,0
2040,39574,0
2012,39550,0
2016,39558,0
1984,39583,0
1978,39538,0
1968,39543,0
1980,39578,0
1968,39532,0
1973,39545,0
1984,39571,0
1989,39535,0
2000,39544,0
2010,39569,0
2028,39552,0
2041,39542,0
2042,39570,0
2056,39552,0
2036,39560,0
2047,39563,0
2044,39544,0
2034,39563,0
2002,39571,0
1992,39556,0
1980,39573,0
1965,39544,0
1968,39569,0
1964,39554,0
1968,39548,0
1963,39561,0
1972,39559,0
1988,39544,0
1994,39567,0
2020,39532,0
2032,39545,0
2042,39561,0
2044,39526,0
2068,39540,0
2064,39574,0
2068,39551,0
2072,39548,0
2052,39575,0
2036,39544,0
2020,39565,0
1992,39574,0
1969,39559,0
1961,39571,0
1974,39570,0
1948,39561,0
1968,39575,0
1968,39545,0
1961,39561,0
1988,39570,0
1992,39570,0
2016,39552,0
2032,39572,0
2040,39550,0
2036,39576,0
2042,39568,0
2044,39550,0
2033,39571,0
2028,39547,0
2000,39556,0
1986,39574,0
1976,39534,0
1968,39558,0
1976,39571,0
1956,39537,0
1968,39541,0
1964,39574,0
1964,39550,0
1993,39541,0
2001,39569,0
2017,39548,0
2032,39554,0
2038,39575,0
2064,39553,0
2046,39564,0
2053,39576,0
2057,39551,0
2050,39577,0
2056,39556,0
2020,39561,0
2036,39577,0
2000,39551,0
1984,39576,0
1988,39558,0
1988,39559,0
1972,39585,0
1984,39561,0
1992,39567,0
2000,39578,0
2008,39561,0
2028,39582,0
2040,39545,0
2064,39560,0
2080,39580,0
2088,39549,0
2088,39559,0
2096,39582,0
2088,39566,0
2068,39562,0
2060,39587,0
2068,39559,0
2057,39584,0
2028,39573,0
2020,39571,0
2008,39583,0
2012,39550,0
1996,39563,0
2000,39585,0
2022,39551,0
2024,39565,0
2047,39575,0
2064,39560,0
2065,39598,0
2068,39594,0
2068,39589,0
2068,39567,0
2064,39599,0
2056,39573,0
2044,39561,0
2018,39602,0
2008,39567,0
2015,39577,0
1994,39607,0
2002,39556,0
1992,39569,0
2008,39592,0
2008,39567,0
2020,39570,0
2020,39596,0
2044,39574,0
2082,39574,0
2080,39594,0
2090,39573,0
2098,39589,0
2112,39605,0
2090,39570,0
2092,39590,0
2076,39600,0
2056,39565,0
2043,39598,0
2034,39581,0
2036,39577,0
2004,39575,0
2010,39585,0
2005,39569,0
2020,39599,0
2028,39590,0
2028,39580,0
2041,39587,0
2058,39570,0
2064,39592,0
2084,39581,0
2088,39571,0
2097,39580,0
2096,39557,0
2104,39576,0
2084,39593,0
2081,39562,0
2060,39567,0
2056,39600,0
2040,39572,0
2032,39570,0
2020,39599,0
2048,39568,0
2040,39582,0
2032,39591,0
2052,39576,0
2048,39597,0
2070,39583,0
2068,39568,0
2073,39599,0
2090,39564,0
2100,39567,0
2104,39593,0
2088,39592,0
2082,39596,0
2080,39574,0
2080,39607,0
2047,39577,0
2046,39546,0
2032,39584,0
2020,39590,0
2032,39564,0
2014,39562,0
2032,39594,0
2052,39566,0
2056,39566,0
2084,39591,0
2096,39576,0
2128,39592,0
2140,39578,0
2168,39572,0
2174,39593,0
2184,39561,0
2180,39560,0
2216,39578,0
2209,39547,0
2188,39565,0
2161,39595,0
2148,39560,0
2124,39554,0
2112,39579,0
2086,39564,0
2096,39555,0
2084,39588,0
2084,39570,0
2066,39545,0
2080,39568,0
2096,39540,0
2106,39554,0
2120,39557,0
2120,39585,0
2136,39557,0
2132,39552,0
2138,39565,0
2148,39532,0
2152,39543,0
2150,39568,0
2120,39544,0
2124,39544,0
2096,39554,0
2096,39534,0
2080,39543,0
2080,39566,0
2064,39533,0
2068,39564,0
2072,39545,0
2096,39527,0
2106,39551,0
2120,39516,0
2144,39532,0
2144,39547,0
2144,39517,0
2144,39528,0
2140,39537,0
2146,39530,0
2129,39514,0
2128,39544,0
2100,39534,0
2090,39524,0
2076,39530,0
2068,39527,0
2052,39537,0
2044,39501,0
2047,39513,0
2046,39524,0
2044,39509,0
2076,39511,0
2080,39534,0
2102,39506,0
2116,39525,0
2140,39530,0
2136,39512,0
2152,39518,0
2136,39501,0
2168,39500,0
2144,39522,0
2128,39487,0
2112,39494,0
2112,39512,0
2096,39486,0
2084,39484,0
2076,39521,0
2076,39497,0
2064,39497,0
2060,39521,0
2064,39496,0
2080,39497,0
2096,39514,0
2116,39501,0
2112,39503,0
2130,39500,0
2144,39501,0
2144,39497,0
2152,39505,0
2148,39499,0
2136,39523,0
2128,39487,0
2112,39492,0
2100,39522,0
2076,39501,0
2076,39497,0
2066,39529,0
2072,39507,0
2056,39518,0
2072,39520,0
2068,39503,0
2096,39530,0
2100,39504,0
2112,39502,0
2096,39515,0
2160,39489,0
2170,39503,0
2172,39525,0
2176,39497,0
2176,39509,0
2162,39515,0
2140,39508,0
2132,39507,0
2120,39532,0
2106,39513,0
2100,39525,0
2082,39516,0
2068,39502,0
2064,39503,0
2064,39506,0
2047,39524,0
2070,39531,0
2068,39510,0
2084,39534,0
2072,39512,0
2080,39515,0
2064,39535,0
2077,39502,0
2047,39513,0
2060,39533,0
2026,39519,0
2004,39523,0
1976,39536,0
1953,39523,0
1922,39523,0
1912,39546,0
1896,39525,0
1904,39532,0
1894,39541,0
1908,39533,0
1910,39556,0
1929,39522,0
1974,39535,0
1978,39554,0
2024,39523,0
2064,39528,0
2089,39552,0
2136,39538,0
2160,39536,0
2226,39533,0
2302,39544,0
2360,39538,0
2464,39554,0
2562,39532,0
2686,39551,0
2828,39533,0
2984,39536,0
3148,39552,0
3324,39519,0
3506,39531,0
3672,39557,0
3896,39535,0
4000,39532,0
4095,39550,0
4095,39541,0
4095,39550,0
4095,39562,0
4095,39540,0
4095,39562,0
4095,39534,0
4095,39545,0
4095,39565,0
4095,39528,0
4095,39538,0
4095,39567,0
4095,39522,0
4095,39542,0
4095,39555,0
4095,39545,0
4095,39544,0
4016,39546,0
3908,39549,0
3768,39538,0
3612,39545,0
3444,39545,0
3268,39556,0
3092,39531,0
2932,39538,0
2788,39561,0
2656,39537,0
2544,39535,0
2453,39563,0
2360,39537,0
2320,39537,0
2250,39559,0
2212,39551,0
2192,39553,0
2176,39556,0
2148,39533,0
2132,39567,0
2144,39520,0
2144,39537,0
2148,39561,0
2153,39522,0
2132,39536,0
2120,39558,0
2104,39528,0
2088,39534,0
2056,39559,0
2029,39545,0
2001,39560,0
1948,39555,0
1914,39555,0
1888,39566,0
1870,39560,0
1852,39556,0
1836,39535,0
1840,39567,0
1844,39517,0
1845,39530,0
1850,39562,0
1856,39525,0
1879,39541,0
1876,39553,0
1889,39534,0
1888,39538,0
1905,39567,0
1892,39549,0
1896,39559,0
1896,39563,0
1872,39545,0
1860,39556,0
1844,39537,0
1832,39541,0
1820,39560,0
1808,39548,0
1808,39550,0
1797,39567,0
1804,39525,0
1802,39543,0
1826,39571,0
1834,39538,0
1856,39546,0
1864,39555,0
1866,39541,0
1880,39546,0
1884,39547,0
1888,39563,0
1880,39579,0
1872,39563,0
1860,39569,0
1840,39564,0
1837,39539,0
1828,39575,0
1823,39553,0
1808,39561,0
1808,39579,0
1816,39541,0
1812,39560,0
1808,39580,0
1824,39548,0
1829,39562,0
1856,39581,0
1860,39564,0
1883,39554,0
1888,39578,0
1904,39559,0
1894,39570,0
1900,39593,0
1883,39565,0
1868,39579,0
1848,39567,0
1856,39570,0
1826,39595,0
1816,39547,0
1808,39563,0
1804,39564,0
1808,39573,0
1816,39558,0
1813,39569,0
1833,39577,0
1840,39588,0
1868,39555,0
1880,39564,0
1884,39586,0
1890,39554,0
1900,39560,0
1904,39588,0
1904,39559,0
1898,39562,0
1888,39592,0
1852,39576,0
1844,39583,0
1832,39582,0
1832,39574,0
1820,39592,0
1820,39572,0
1813,39577,0
1821,39590,0
1830,39559,0
1841,39568,0
1862,39599,0
1876,39550,0
1884,39559,0
1918,39576,0
1916,39564,0
1930,39570,0
1920,39581,0
1917,39572,0
1908,39569,0
1885,39578,0
1868,39573,0
1864,39590,0
1848,39566,0
1846,39587,0
1848,39582,0
1834,39561,0
1826,39591,0
1836,39554,0
1844,39572,0
1864,39592,0
1874,39554,0
1896,39579,0
1904,39583,0
1944,39568,0
1928,39576,0
1936,39596,0
1940,39576,0
1953,39582,0
1944,39600,0
1928,39571,0
1920,39601,0
1905,39576,0
1888,39579,0
1872,39595,0
1848,39558,0
1849,39580,0
1854,39587,0
1866,39572,0
1864,39571,0
1866,39589,0
1882,39582,0
1900,39575,0
1921,39573,0
1936,39570,0
1946,39586,0
1954,39556,0
1960,39563,0
1946,39593,0
1930,39566,0
1927,39569,0
1925,39592,0
1905,39573,0
1890,39568,0
1888,39587,0
1872,39570,0
1876,39581,0
1872,39591,0
1876,39572,0
1892,39589,0
1921,39559,0
1946,39566,0
1958,39586,0
1960,39558,0
1972,39564,0
2000,39577,0
1988,39563,0
1976,39557,0
1992,39581,0
1972,39568,0
1968,39561,0
1932,39568,0
1916,39546,0
1908,39566,0
1908,39548,0
1904,39555,0
1896,39574,0
1900,39547,0
1898,39555,0
1904,39561,0
1919,39556,0
1936,39569,0
1960,39522,0
1968,39532,0
1984,39557,0
1992,39526,0
2000,39533,0
2009,39556,0
2008,39527,0
1986,39524,0
1988,39539,0
1968,39524,0
1973,39540,0
1946,39539,0
1952,39512,0
1937,39528,0
1932,39506,0
1928,39518,0
1936,39539,0
1939,39503,0
1966,39505,0
1984,39522,0
2008,39505,0
2016,39506,0
2020,39492,0
2032,39499,0
2040,39507,0
2032,39511,0
2040,39525,0
2016,39493,0
2008,39489,0
1992,39507,0
1972,39469,0
1960,39489,0
1945,39501,0
1936,39483,0
1944,39482,0
1936,39507,0
1952,39476,0
1954,39492,0
1978,39500,0
2008,39479,0
2018,39498,0
2037,39471,0
2058,39465,0
2066,39483,0
2080,39443,0
2080,39460,0
2076,39481,0
2064,39451,0
2032,39457,0
2014,39469,0
2002,39453,0
1982,39460,0
1976,39475,0
1960,39459,0
1954,39457,0
1956,39457,0
1960,39450,0
1968,39458,0
1998,39442,0
2008,39459,0
2020,39429,0
2038,39451,0
2058,39440,0
2064,39413,0
2077,39426,0
2072,39440,0
2088,39419,0
2064,39422,0
2052,39427,0
2032,39420,0
2028,39426,0
2008,39414,0
1996,39411,0
1984,39425,0
1992,39400,0
2001,39401,0
1996,39426,0
2017,39381,0
2008,39397,0
2034,39413,0
2036,39392,0
2044,39387,0
2072,39410,0
2069,39392,0
2090,39386,0
2066,39384,0
2066,39379,0
2066,39383,0
2056,39387,0
2047,39403,0
2040,39380,0
2012,39401,0
2008,39355,0
1996,39366,0
1998,39393,0
1993,39357,0
2012,39367,0
2008,39385,0
2032,39358,0
2034,39383,0
2056,39375,0
2056,39356,0
2072,39391,0
2066,39344,0
2080,39355,0
2074,39384,0
2084,39343,0
2070,39355,0
2066,39380,0
2048,39351,0
2048,39356,0
2034,39375,0
2016,39362,0
2005,39362,0
2008,39371,0
2004,39360,0
2008,39388,0
2012,39360,0
2032,39349,0
2042,39363,0
2066,39362,0
2080,39346,0
2080,39365,0
2084,39346,0
2080,39351,0
2088,39377,0
2080,39370,0
2068,39374,0
2044,39367,0
2040,39356,0
2016,39382,0
2032,39365,0
2004,39373,0
1992,39379,0
1996,39347,0
2000,39352,0
2024,39382,0
2040,39355,0
2049,39363,0
2068,39381,0
2084,39381,0
2081,39392,0
2088,39385,0
2090,39379,0
2082,39407,0
2084,39364,0
2072,39385,0
2072,39403,0
2040,39388,0
2028,39399,0
2020,39391,0
2013,39402,0
2002,39388,0
1992,39407,0
1992,39401,0
2006,39431,0
2010,39390,0
2020,39411,0
2032,39428,0
2047,39403,0
2058,39404,0
2080,39433,0
2080,39413,0
2096,39418,0
2080,39442,0
2100,39420,0
2080,39451,0
2068,39425,0
2047,39422,0
2064,39448,0
2040,39418,0
2040,39423,0
2025,39449,0
2032,39444,0
2020,39447,0
2017,39464,0
2020,39455,0
2041,39469,0
2056,39463,0
2074,39452,0
2072,39457,0
2088,39465,0
2096,39475,0
2094,39459,0
2100,39460,0
2100,39484,0
2080,39454,0
2068,39458,0
2058,39490,0
2044,39460,0
2028,39469,0
2016,39502,0
2022,39476,0
2016,39477,0
1996,39484,0
2016,39484,0
2028,39501,0
2040,39475,0
2046,39480,0
2072,39503,0
2080,39466,0
2112,39495,0
2112,39500,0
2124,39476,0
2112,39482,0
2118,39513,0
2112,39488,0
2082,39509,0
2069,39484,0
2064,39498,0
2044,39515,0
2058,39478,0
2026,39516,0
2018,39527,0
2020,39514,0
2032,39481,0
2040,39500,0
2056,39506,0
2064,39490,0
2084,39498,0
2092,39523,0
2108,39502,0
2112,39519,0
2121,39510,0
2116,39504,0
2116,39521,0
2100,39483,0
2092,39502,0
2066,39525,0
2056,39494,0
2044,39505,0
2036,39524,0
2024,39504,0
2042,39517,0
2034,39521,0
2050,39508,0
2054,39533,0
2068,39490,0
2088,39500,0
2088,39533,0
2100,39501,0
2114,39500,0
2121,39523,0
2124,39518,0
2128,39507,0
2124,39511,0
2104,39501,0
2104,39511,0
2088,39508,0
2064,39512,0
2058,39526,0
2044,39509,0
2036,39537,0
2032,39516,0
2028,39504,0
2030,39526,0
2036,39495,0
2060,39503,0
2065,39527,0
2092,39517,0
2104,39493,0
2128,39534,0
2120,39517,0
2132,39521,0
2132,39506,0
2144,39494,0
2146,39535,0
2120,39486,0
2106,39507,0
2088,39521,0
2084,39498,0
2050,39514,0
2046,39526,0
2056,39504,0
2043,39513,0
2064,39517,0
2040,39501,0
2064,39502,0
2088,39492,0
2092,39508,0
2100,39504,0
2116,39503,0
2128,39520,0
2138,39489,0
2136,39504,0
2154,39526,0
2152,39491,0
2148,39499,0
2146,39522,0
2148,39507,0
2136,39513,0
2152,39523,0
2144,39503,0
2152,39524,0
2152,39516,0
2152,39504,0
2160,39524,0
2188,39487,0
2200,39505,0
2208,39515,0
2212,39492,0
2224,39500,0
2224,39516,0
2213,39503,0
2208,39495,0
2208,39523,0
2185,39499,0
2184,39510,0
2144,39499,0
2132,39495,0
2132,39494,0
2096,39495,0
2089,39501,0
2086,39516,0
2100,39483,0
2100,39484,0
2100,39510,0
2120,39488,0
2132,39502,0
2153,39483,0
2156,39479,0
2185,39505,0
2184,39460,0
2192,39476,0
2176,39491,0
2186,39474,0
2160,39481,0
2140,39495,0
2128,39469,0
2133,39483,0
2117,39484,0
2105,39468,0
2101,39479,0
2098,39448,0
2096,39458,0
2088,39482,0
2097,39449,0
2117,39449,0
2128,39475,0
2160,39456,0
2152,39443,0
2160,39451,0
2178,39452,0
2184,39449,0
2169,39459,0
2172,39436,0
2168,39435,0
2144,39457,0
2132,39416,0
2112,39427,0
2112,39444,0
2101,39433,0
2080,39429,0
2104,39449,0
2088,39426,0
2096,39436,0
2092,39410,0
2116,39417,0
2112,39433,0
2129,39395,0
2144,39409,0
2168,39426,0
2176,39396,0
2181,39402,0
2192,39424,0
2181,39410,0
2168,39411,0
2148,39415,0
2128,39402,0
2120,39407,0
2106,39399,0
2100,39397,0
2088,39421,0
2082,39399,0
2080,39397,0
2096,39402,0
2104,39383,0
2124,39411,0
2148,39366,0
2156,39384,0
2160,39411,0
2160,39381,0
2168,39377,0
2186,39399,0
2168,39383,0
2184,39387,0
2148,39399,0
2144,39381,0
2120,39401,0
2112,39362,0
2088,39376,0
2084,39396,0
2074,39378,0
2092,39378,0
2081,39398,0
2100,39381,0
2116,39405,0
2136,39401,0
2152,39384,0
2146,39405,0
2156,39388,0
2180,39386,0
2178,39399,0
2160,39407,0
2168,39387,0
2168,39397,0
2117,39402,0
2112,39407,0
2100,39387,0
2066,39412,0
2058,39375,0
2032,39388,0
2004,39410,0
1996,39376,0
1996,39380,0
1976,39405,0
1984,39383,0
1978,39393,0
1988,39410,0
1972,39383,0
1984,39408,0
1984,39370,0
1968,39395,0
1980,39406,0
1984,39384,0
1976,39388,0
1960,39408,0
1954,39391,0
1940,39403,0
1952,39414,0
1952,39405,0
1965,39408,0
2000,39417,0
2032,39403,0
2104,39425,0
2164,39407,0
2272,39406,0
2384,39402,0
2533,39429,0
2692,39418,0
2860,39404,0
3040,39422,0
3216,39414,0
3396,39420,0
3583,39428,0
3748,39406,0
3931,39434,0
4072,39399,0
4095,39409,0
4095,39430,0
4095,39400,0
4095,39411,0
4095,39430,0
4095,39422,0
4095,39419,0
4095,39433,0
4095,39416,0
4095,39437,0
4095,39407,0
4095,39415,0
4095,39438,0
4095,39405,0
4095,39415,0
4095,39445,0
4095,39424,0
4095,39441,0
4095,39409,0
4088,39414,0
4024,39422,0
3888,39418,0
3712,39414,0
3528,39418,0
3308,39438,0
3100,39428,0
2916,39419,0
2716,39438,0
2546,39412,0
2424,39417,0
2308,39433,0
2220,39409,0
2176,39414,0
2120,39441,0
2104,39421,0
2084,39426,0
2088,39439,0
2068,39417,0
2064,39446,0
2052,39405,0
2064,39416,0
2048,39440,0
2048,39394,0
2024,39411,0
2012,39439,0
2012,39425,0
1978,39425,0
1960,39440,0
1964,39420,0
1952,39448,0
1946,39403,0
1930,39440,0
1924,39431,0
1936,39443,0
1912,39429,0
1904,39442,0
1899,39427,0
1880,39426,0
1854,39417,0
1852,39418,0
1828,39444,0
1818,39428,0
1808,39447,0
1800,39433,0
1800,39430,0
1791,39444,0
1793,39408,0
1808,39420,0
1816,39443,0
1828,39417,0
1844,39417,0
1852,39440,0
1872,39427,0
1868,39447,0
1881,39442,0
1874,39427,0
1844,39447,0
1841,39415,0
1840,39423,0
1818,39451,0
1816,39433,0
1804,39423,0
1792,39448,0
1796,39447,0
1794,39427,0
1791,39450,0
1800,39441,0
1808,39453,0
1832,39426,0
1845,39453,0
1850,39417,0
1856,39439,0
1869,39461,0
1890,39443,0
1891,39448,0
1884,39452,0
1888,39441,0
1860,39456,0
1856,39425,0
1842,39446,0
1824,39465,0
1812,39444,0
1796,39450,0
1804,39469,0
1812,39445,0
1805,39470,0
1813,39439,0
1824,39441,0
1836,39466,0
1856,39435,0
1865,39456,0
1869,39477,0
1901,39469,0
1896,39459,0
1908,39463,0
1884,39451,0
1893,39447,0
1876,39444,0
1848,39456,0
1828,39442,0
1824,39444,0
1828,39476,0
1800,39441,0
1785,39471,0
1794,39454,0
1788,39453,0
1796,39467,0
1814,39434,0
1824,39444,0
1852,39466,0
1872,39441,0
1876,39453,0
1892,39468,0
1896,39451,0
1904,39447,0
1906,39479,0
1904,39456,0
1900,39483,0
1889,39438,0
1874,39453,0
1850,39469,0
1842,39449,0
1824,39451,0
1809,39480,0
1826,39458,0
1818,39461,0
1828,39481,0
1840,39481,0
1856,39485,0
1865,39464,0
1872,39471,0
1888,39463,0
1904,39480,0
1908,39463,0
1904,39455,0
1906,39483,0
1902,39468,0
1882,39478,0
1876,39474,0
1848,39463,0
1848,39488,0
1812,39448,0
1826,39465,0
1808,39481,0
1808,39452,0
1820,39457,0
1825,39482,0
1850,39467,0
1866,39479,0
1877,39470,0
1891,39465,0
1900,39487,0
1920,39452,0
1928,39468,0
1914,39481,0
1916,39468,0
1908,39461,0
1892,39497,0
1882,39470,0
1868,39471,0
1841,39488,0
1841,39474,0
1828,39470,0
1828,39472,0
1820,39485,0
1824,39477,0
1832,39478,0
1850,39479,0
1864,39466,0
1892,39493,0
1917,39463,0
1932,39466,0
1948,39483,0
1954,39453,0
1954,39465,0
1952,39490,0
1952,39483,0
1928,39470,0
1918,39487,0
1902,39467,0
1900,39490,0
1888,39468,0
1873,39458,0
1864,39484,0
1856,39442,0
1864,39453,0
1864,39470,0
1873,39448,0
1904,39455,0
1929,39476,0
1928,39444,0
1952,39475,0
1944,39483,0
1954,39457,0
1961,39438,0
1952,39440,0
1952,39456,0
1930,39431,0
1922,39437,0
1890,39455,0
1892,39429,0
1884,39443,0
1880,39448,0
1876,39430,0
1880,39446,0
1872,39430,0
1892,39434,0
1904,39453,0
1914,39401,0
1952,39410,0
1956,39432,0
1969,39408,0
1988,39397,0
2016,39424,0
2004,39407,0
2010,39405,0
2000,39420,0
1984,39392,0
1968,39417,0
1939,39402,0
1938,39391,0
1924,39416,0
1908,39367,0
1912,39407,0
1916,39393,0
1924,39388,0
1936,39379,0
1956,39389,0
1976,39365,0
1977,39373,0
1988,39390,0
2006,39373,0
2008,39388,0
1996,39379,0
2000,39365,0
2004,39377,0
1988,39350,0
1986,39350,0
1960,39372,0
1952,39347,0
1940,39344,0
1936,39372,0
1952,39348,0
1944,39342,0
1960,39366,0
1963,39345,0
1970,39366,0
1989,39353,0
2001,39334,0
2012,39361,0
2019,39337,0
2038,39342,0
2037,39350,0
2048,39313,0
2032,39367,0
2028,39349,0
2004,39350,0
2000,39341,0
1980,39341,0
1980,39315,0
1956,39313,0
1944,39339,0
1948,39324,0
1944,39321,0
1940,39341,0
1964,39327,0
1968,39330,0
2004,39352,0
2000,39323,0
2026,39335,0
2028,39298,0
2056,39311,0
2044,39328,0
2046,39294,0
2047,39297,0
2056,39327,0
2048,39294,0
2034,39304,0
2009,39331,0
1984,39300,0
1980,39318,0
1956,39318,0
1953,39293,0
1944,39333,0
1941,39285,0
1960,39302,0
1953,39298,0
1986,39308,0
1990,39297,0
1996,39294,0
2032,39304,0
2040,39304,0
2037,39313,0
2038,39293,0
2052,39294,0
2046,39325,0
2032,39300,0
2022,39305,0
2000,39321,0
2008,39315,0
1976,39325,0
1988,39277,0
1960,39296,0
1964,39313,0
1968,39283,0
1968,39279,0
1974,39315,0
2002,39298,0
2020,39301,0
2033,39314,0
2048,39284,0
2056,39323,0
2072,39300,0
2064,39299,0
2049,39321,0
2061,39282,0
2038,39299,0
2032,39310,0
2000,39296,0
1994,39306,0
1984,39295,0
1972,39308,0
1972,39305,0
1972,39278,0
1970,39293,0
1984,39311,0
1992,39307,0
2002,39297,0
2020,39316,0
2040,39307,0
2044,39320,0
2069,39327,0
2056,39310,0
2072,39324,0
2056,39314,0
2056,39301,0
2032,39322,0
2024,39294,0
2012,39315,0
2010,39328,0
1992,39307,0
2008,39311,0
1988,39326,0
1984,39307,0
1984,39327,0
1988,39326,0
1996,39310,0
2017,39328,0
2032,39282,0
2048,39306,0
2044,39308,0
2066,39296,0
2064,39308,0
2070,39316,0
2056,39300,0
2028,39332,0
2032,39305,0
2030,39321,0
2020,39317,0
1984,39310,0
1968,39323,0
1975,39300,0
1952,39306,0
1965,39332,0
1982,39312,0
1972,39308,0
1970,39330,0
2008,39303,0
2000,39335,0
2020,39313,0
2032,39308,0
2068,39330,0
2058,39307,0
2068,39307,0
2068,39342,0
2059,39316,0
2054,39314,0
2032,39338,0
2021,39305,0
2036,39331,0
2014,39317,0
2020,39313,0
2000,39309,0
1989,39323,0
1984,39316,0
1992,39321,0
2004,39328,0
2024,39317,0
2032,39343,0
2047,39330,0
2044,39340,0
2060,39348,0
2060,39326,0
2079,39351,0
2066,39312,0
2064,39321,0
2036,39350,0
2040,39316,0
2026,39325,0
2020,39351,0
2000,39343,0
1984,39332,0
1976,39352,0
1992,39332,0
2000,39366,0
1993,39317,0
2021,39330,0
2016,39355,0
2036,39341,0
2034,39340,0
2056,39353,0
2084,39350,0
2078,39359,0
2096,39354,0
2084,39356,0
2072,39363,0
2072,39352,0
2056,39353,0
2045,39348,0
2032,39340,0
2024,39343,0
2016,39369,0
2016,39347,0
2012,39346,0
2000,39373,0
2024,39353,0
2026,39360,0
2056,39378,0
2047,39353,0
2073,39385,0
2076,39352,0
2096,39362,0
2096,39372,0
2096,39353,0
2092,39369,0
2096,39379,0
2080,39369,0
2064,39366,0
2064,39381,0
2037,39356,0
2036,39388,0
2016,39349,0
2007,39355,0
2025,39387,0
2024,39356,0
2036,39365,0
2044,39370,0
2047,39369,0
2080,39366,0
2090,39381,0
2088,39405,0
2100,39362,0
2104,39388,0
2104,39360,0
2096,39362,0
2088,39387,0
2084,39359,0
2101,39371,0
2047,39369,0
2048,39370,0
2026,39369,0
2032,39390,0
2024,39361,0
2020,39388,0
2020,39350,0
2032,39362,0
2032,39380,0
2068,39365,0
2084,39365,0
2097,39382,0
2108,39377,0
2112,39386,0
2114,39374,0
2096,39365,0
2092,39386,0
2092,39359,0
2075,39362,0
2080,39393,0
2041,39367,0
2034,39364,0
2036,39369,0
2032,39376,0
2028,39377,0
2032,39390,0
2053,39366,0
2074,39392,0
2092,39360,0
2112,39364,0
2138,39390,0
2163,39366,0
2177,39361,0
2208,39388,0
2192,39364,0
2200,39370,0
2184,39388,0
2176,39371,0
2152,39391,0
2132,39353,0
2116,39371,0
2116,39382,0
2100,39359,0
2088,39359,0
2092,39378,0
2085,39369,0
2088,39381,0
2084,39374,0
2096,39369,0
2108,39386,0
2128,39353,0
2160,39362,0
2164,39363,0
2160,39358,0
2172,39357,0
2160,39373,0
2152,39389,0
2140,39336,0
2124,39347,0
2104,39371,0
2088,39359,0
2076,39359,0
2076,39367,0
2080,39360,0
2084,39369,0
2080,39363,0
2096,39347,0
2098,39366,0
2128,39342,0
2128,39350,0
2140,39375,0
2168,39350,0
2176,39345,0
2176,39379,0
2178,39359,0
2170,39353,0
2160,39360,0
2144,39350,0
2116,39372,0
2096,39341,0
2096,39336,0
2084,39366,0
2080,39330,0
2056,39362,0
2064,39357,0
2068,39360,0
2084,39341,0
2092,39336,0
2106,39338,0
2114,39346,0
2136,39346,0
2136,39336,0
2156,39354,0
2160,39315,0
2168,39330,0
2156,39344,0
2160,39327,0
2120,39328,0
2132,39344,0
2104,39321,0
2088,39338,0
2072,39338,0
2073,39320,0
2064,39342,0
2084,39310,0
2089,39309,0
2097,39344,0
2112,39317,0
2124,39312,0
2162,39340,0
2138,39321,0
2147,39340,0
2152,39313,0
2158,39312,0
2164,39337,0
2140,39335,0
2128,39323,0
2120,39319,0
2113,39324,0
2090,39307,0
2073,39330,0
2072,39295,0
2074,39299,0
2064,39326,0
2066,39311,0
2072,39317,0
2085,39329,0
2088,39311,0
2108,39333,0
2114,39291,0
2140,39304,0
2136,39332,0
2156,39301,0
2152,39307,0
2140,39323,0
2144,39307,0
2152,39304,0
2134,39338,0
2120,39323,0
2105,39335,0
2081,39324,0
2068,39308,0
2056,39325,0
2054,39293,0
2052,39301,0
2058,39328,0
2080,39322,0
2068,39320,0
2084,39317,0
2080,39329,0
2082,39330,0
2080,39325,0
2072,39308,0
2064,39342,0
2038,39324,0
2016,39320,0
1996,39331,0
1960,39321,0
1946,39344,0
1918,39320,0
1904,39321,0
1880,39343,0
1880,39303,0
1877,39320,0
1880,39343,0
1896,39330,0
1900,39327,0
1932,39349,0
1972,39328,0
2012,39355,0
2040,39341,0
2096,39327,0
2144,39355,0
2196,39318,0
2258,39334,0
2349,39359,0
2456,39329,0
2570,39334,0
2736,39368,0
2828,39360,0
2988,39358,0
3168,39373,0
3328,39366,0
3500,39343,0
3672,39334,0
3848,39342,0
4024,39367,0
4095,39343,0
4095,39365,0
4095,39367,0
4095,39344,0
4095,39363,0
4095,39334,0
4095,39346,0
4095,39369,0
4095,39355,0
4095,39349,0
4095,39377,0
4095,39364,0
4095,39367,0
4095,39380,0
4095,39355,0
4095,39390,0
4095,39351,0
4095,39361,0
4095,39381,0
4064,39345,0
3941,39354,0
3794,39380,0
3608,39367,0
3456,39369,0
3186,39358,0
3012,39380,0
2808,39397,0
2640,39374,0
2496,39386,0
2360,39402,0
2252,39380,0
2162,39367,0
2100,39396,0
2050,39351,0
2032,39384,0
2027,39394,0
2012,39377,0
2038,39376,0
2034,39402,0
2068,39387,0
2072,39403,0
2092,39400,0
2096,39389,0
2080,39412,0
2096,39364,0
2084,39382,0
2060,39400,0
2037,39385,0
2010,39380,0
1968,39408,0
1940,39392,0
1896,39403,0
1852,39402,0
1844,39393,0
1832,39415,0
1808,39375,0
1796,39400,0
1784,39399,0
1796,39383,0
1808,39391,0
1818,39397,0
1833,39392,0
1860,39391,0
1868,39428,0
1874,39399,0
1904,39408,0
1888,39433,0
1896,39416,0
1874,39414,0
1881,39434,0
1860,39410,0
1844,39437,0
1828,39400,0
1812,39417,0
1800,39432,0
1796,39397,0
1804,39410,0
1794,39440,0
1808,39404,0
1820,39408,0
1834,39434,0
1846,39408,0
1856,39435,0
1872,39428,0
1874,39419,0
1892,39435,0
1892,39405,0
1904,39407,0
1876,39419,0
1873,39419,0
1864,39412,0
1834,39416,0
1820,39428,0
1812,39439,0
1816,39433,0
1806,39417,0
1796,39452,0
1796,39395,0
1808,39425,0
1820,39437,0
1824,39427,0
1852,39424,0
1856,39443,0
1880,39437,0
1876,39443,0
1890,39427,0
1888,39423,0
1888,39452,0
1880,39412,0
1876,39428,0
1845,39446,0
1828,39431,0
1818,39437,0
1810,39456,0
1792,39431,0
1787,39463,0
1780,39423,0
1795,39426,0
1808,39465,0
1824,39426,0
1844,39437,0
1856,39446,0
1876,39460,0
1884,39442,0
1888,39433,0
1892,39453,0
1898,39445,0
1890,39444,0
1880,39470,0
1864,39423,0
1860,39444,0
1833,39460,0
1824,39453,0
1808,39441,0
1791,39464,0
1784,39450,0
1794,39454,0
1797,39450,0
1802,39452,0
1824,39475,0
1828,39426,0
1860,39442,0
1872,39479,0
1877,39452,0
1898,39461,0
1904,39474,0
1908,39442,0
1900,39479,0
1890,39444,0
1884,39456,0
1866,39470,0
1844,39475,0
1832,39462,0
1808,39460,0
1804,39459,0
1800,39458,0
1801,39476,0
1802,39459,0
1804,39466,0
1828,39485,0
1844,39457,0
1860,39488,0
1864,39444,0
1880,39459,0
1892,39476,0
1897,39456,0
1908,39463,0
1904,39481,0
1897,39470,0
1884,39483,0
1872,39459,0
1864,39464,0
1857,39490,0
1841,39441,0
1840,39469,0
1848,39494,0
1848,39472,0
1856,39465,0
1856,39495,0
1856,39464,0
1891,39490,0
1900,39468,0
1912,39465,0
1928,39457,0
1936,39476,0
1932,39486,0
1940,39473,0
1928,39473,0
1926,39450,0
1912,39471,0
1896,39488,0
1888,39471,0
1869,39462,0
1852,39494,0
1848,39460,0
1840,39498,0
1840,39448,0
1840,39464,0
1852,39488,0
1860,39446,0
1880,39453,0
1888,39478,0
1904,39462,0
1916,39465,0
1940,39471,0
1945,39461,0
1952,39472,0
1945,39457,0
1937,39440,0
1932,39469,0
1908,39449,0
1890,39445,0
1892,39463,0
1878,39442,0
1880,39463,0
1872,39457,0
1877,39440,0
1888,39442,0
1888,39452,0
1904,39452,0
1918,39444,0
1928,39439,0
1938,39461,0
1954,39422,0
1952,39449,0
1968,39419,0
1966,39414,0
1957,39439,0
1938,39413,0
1920,39411,0
1912,39433,0
1896,39412,0
1889,39419,0
1874,39419,0
1857,39410,0
1874,39421,0
1876,39383,0
1888,39395,0
1892,39426,0
1916,39400,0
1932,39396,0
1944,39409,0
1952,39401,0
1966,39404,0
1986,39401,0
1994,39381,0
2000,39403,0
1988,39388,0
1978,39363,0
1964,39374,0
1942,39404,0
1930,39393,0
1917,39392,0
1912,39365,0
1906,39361,0
1912,39378,0
1904,39355,0
1912,39360,0
1932,39372,0
1944,39359,0
1976,39357,0
1976,39377,0
1996,39350,0
2000,39370,0
2016,39357,0
2012,39349,0
2008,39365,0
2005,39336,0
2010,39345,0
1986,39365,0
1970,39339,0
1961,39336,0
1956,39359,0
1956,39336,0
1936,39352,0
1936,39323,0
1956,39337,0
1946,39348,0
1968,39312,0
1976,39341,0
2000,39331,0
2000,39320,0
2020,39333,0
2044,39334,0
2047,39349,0
2036,39324,0
2034,39319,0
2028,39337,0
2014,39327,0
1986,39331,0
1976,39329,0
1956,39319,0
1946,39344,0
1928,39306,0
1920,39321,0
1924,39338,0
1932,39311,0
1932,39310,0
1944,39330,0
1960,39310,0
1992,39333,0
2018,39323,0
2028,39309,0
2048,39336,0
2060,39295,0
2064,39309,0
2052,39320,0
2048,39314,0
2044,39307,0
2026,39331,0
2032,39309,0
1992,39311,0
1980,39305,0
1960,39315,0
1957,39318,0
1960,39313,0
1952,39309,0
1964,39333,0
1976,39292,0
1986,39311,0
2000,39326,0
2026,39312,0
2035,39302,0
2036,39337,0
2056,39306,0
2044,39336,0
2044,39302,0
2032,39320,0
2032,39329,0
2000,39305,0
1996,39309,0
1976,39328,0
1984,39320,0
1968,39322,0
1972,39326,0
1964,39322,0
1952,39340,0
1973,39294,0
1970,39318,0
1981,39341,0
2002,39316,0
2008,39314,0
2024,39338,0
2016,39328,0
2025,39316,0
2032,39329,0
2038,39318,0
2012,39318,0
2013,39333,0
2000,39314,0
1984,39339,0
1970,39307,0
1956,39321,0
1960,39344,0
1960,39320,0
1956,39313,0
1968,39348,0
1968,39325,0
1976,39324,0
1980,39341,0
2004,39331,0
2010,39347,0
2032,39302,0
2047,39317,0
2072,39345,0
2070,39317,0
2064,39329,0
2056,39353,0
2040,39327,0
2033,39350,0
1989,39307,0
1975,39318,0
1977,39341,0
1964,39319,0
1956,39324,0
1952,39336,0
1948,39321,0
1956,39320,0
1972,39317,0
1980,39328,0
2004,39330,0
2014,39318,0
2026,39330,0
2040,39343,0
2056,39321,0
2056,39336,0
2142,39327,0
2047,39310,0
2044,39330,0
2024,39313,0
2010,39319,0
1988,39347,0
1992,39320,0
1984,39327,0
1968,39344,0
1970,39321,0
1969,39330,0
1972,39308,0
1985,39320,0
1988,39333,0
2016,39325,0
2016,39334,0
2016,39355,0
2020,39322,0
2038,39349,0
2042,39324,0
2040,39326,0
2032,39345,0
2013,39353,0
2004,39342,0
2004,39351,0
2000,39327,0
1984,39351,0
1978,39300,0
1982,39320,0
1992,39337,0
1996,39323,0
2000,39332,0
2017,39351,0
2024,39340,0
2052,39355,0
2044,39347,0
2060,39343,0
2058,39360,0
2072,39318,0
2068,39332,0
2072,39353,0
2044,39336,0
2056,39341,0
2040,39362,0
2032,39336,0
2024,39358,0
2004,39349,0
1997,39347,0
1988,39365,0
1982,39328,0
2008,39335,0
2007,39356,0
2032,39373,0
2047,39322,0
2064,39337,0
2076,39372,0
2100,39332,0
2096,39357,0
2096,39374,0
2092,39344,0
2072,39371,0
2058,39359,0
2032,39356,0
2006,39372,0
2008,39331,0
2000,39351,0
2000,39375,0
2001,39348,0
1986,39351,0
1996,39381,0
2000,39358,0
2010,39381,0
2036,39350,0
2056,39355,0
2080,39376,0
2091,39350,0
2108,39356,0
2104,39379,0
2096,39359,0
2084,39362,0
2080,39386,0
2076,39356,0
2058,39388,0
2056,39345,0
2020,39373,0
2006,39368,0
2000,39359,0
1992,39367,0
1994,39366,0
1996,39389,0
1996,39371,0
2008,39378,0
2020,39382,0
2034,39359,0
2047,39389,0
2073,39363,0
2080,39369,0
2098,39375,0
2096,39363,0
2100,39365,0
2092,39382,0
2090,39369,0
2068,39381,0
2064,39392,0
2016,39372,0
2032,39393,0
2052,39349,0
2024,39358,0
2018,39386,0
2024,39356,0
2019,39365,0
2024,39391,0
2036,39366,0
2057,39366,0
2068,39403,0
2096,39377,0
2080,39367,0
2088,39374,0
2088,39371,0
2086,39382,0
2084,39374,0
2084,39370,0
2072,39396,0
2064,39372,0
2060,39361,0
2047,39385,0
2066,39359,0
2076,39361,0
2072,39385,0
2098,39373,0
2098,39377,0
2124,39380,0
2140,39373,0
2156,39394,0
2161,39359,0
2172,39366,0
2168,39387,0
2200,39381,0
2192,39370,0
2184,39399,0
2168,39363,0
2150,39389,0
2136,39347,0
2100,39357,0
2088,39389,0
2077,39377,0
2068,39367,0
2080,39387,0
2060,39357,0
2068,39373,0
2060,39370,0
2080,39375,0
2100,39359,0
2104,39383,0
2112,39368,0
2128,39387,0
2144,39378,0
2132,39361,0
2144,39391,0
2142,39361,0
2136,39365,0
2128,39384,0
2100,39379,0
2096,39384,0
2072,39376,0
2072,39380,0
2056,39403,0
2060,39356,0
2056,39359,0
2068,39391,0
2080,39359,0
2086,39371,0
2096,39399,0
2118,39365,0
2130,39394,0
2134,39358,0
2141,39375,0
2160,39391,0
2149,39358,0
2164,39368,0
2116,39372,0
2112,39362,0
2108,39377,0
2086,39394,0
2068,39385,0
2056,39376,0
2052,39403,0
2046,39384,0
2044,39400,0
2040,39362,0
2064,39377,0
2072,39399,0
2092,39373,0
2100,39379,0
2108,39399,0
2120,39378,0
2112,39406,0
2128,39367,0
2120,39378,0
2112,39407,0
2106,39383,0
2116,39382,0
2100,39404,0
2088,39386,0
2082,39401,0
2074,39379,0
2064,39378,0
2044,39392,0
2040,39367,0
2056,39378,0
2056,39410,0
2080,39379,0
2068,39375,0
2084,39390,0
2088,39392,0
2108,39383,0
2112,39391,0
2096,39370,0
2121,39378,0
2120,39399,0
2104,39377,0
2092,39384,0
2084,39402,0
2063,39388,0
2056,39416,0
2060,39383,0
2036,39381,0
2040,39403,0
2024,39373,0
2048,39387,0
2040,39410,0
2064,39391,0
2068,39409,0
2100,39385,0
2116,39383,0
2122,39410,0
2136,39383,0
2136,39393,0
2136,39414,0
2116,39402,0
2112,39393,0
2100,39402,0
2084,39385,0
2082,39411,0
2044,39391,0
2047,39388,0
2026,39405,0
2028,39399,0
2016,39410,0
2006,39400,0
1994,39409,0
1992,39391,0
1986,39419,0
1977,39381,0
1981,39390,0
1991,39406,0
1964,39385,0
1970,39388,0
1952,39410,0
1944,39387,0
1924,39394,0
1924,39420,0
1900,39397,0
1896,39414,0
1892,39381,0
1906,39400,0
1922,39421,0
1936,39401,0
1946,39403,0
1976,39421,0
2016,39407,0
2058,39428,0
2112,39392,0
2184,39404,0
2265,39414,0
2388,39395,0
2468,39397,0
2592,39407,0
2736,39410,0
2876,39419,0
3044,39451,0
3199,39405,0
3360,39416,0
3516,39409,0
3664,39396,0
3818,39425,0
3952,39381,0
4095,39400,0
4094,39429,0
4095,39423,0
4095,39420,0
4095,39432,0
4095,39414,0
4095,39437,0
4095,39397,0
4095,39419,0
4095,39428,0
4095,39418,0
4095,39414,0
4095,39435,0
4095,39414,0
4095,39439,0
4095,39410,0
4084,39409,0
3977,39434,0
3856,39411,0
3685,39420,0
3560,39436,0
3308,39424,0
3128,39421,0
2960,39445,0
2828,39421,0
2696,39421,0
2592,39437,0
2506,39427,0
2436,39423,0
2380,39439,0
2336,39422,0
2300,39452,0
2266,39411,0
2228,39416,0
2228,39450,0
2168,39424,0
2148,39430,0
2112,39448,0
2100,39443,0
2068,39461,0
2044,39419,0
2016,39426,0
2012,39459,0
1992,39436,0
1984,39442,0
1977,39447,0
1973,39439,0
1968,39469,0
1964,39430,0
1952,39428,0
1948,39459,0
1938,39451,0
1912,39455,0
1892,39431,0
1873,39437,0
1846,39432,0
1832,39439,0
1810,39413,0
1808,39436,0
1802,39457,0
1792,39433,0
1790,39440,0
1793,39452,0
1807,39450,0
1820,39466,0
1828,39431,0
1833,39435,0
1840,39469,0
1852,39447,0
1856,39442,0
1840,39467,0
1832,39446,0
1842,39465,0
1824,39429,0
1808,39451,0
1800,39462,0
1779,39444,0
1776,39443,0
1774,39460,0
1768,39447,0
1766,39464,0
1784,39442,0
1794,39440,0
1808,39476,0
1840,39479,0
1828,39454,0
1844,39451,0
1852,39448,0
1856,39464,0
1868,39450,0
1860,39473,0
1860,39450,0
1844,39458,0
1832,39480,0
1824,39455,0
1808,39478,0
1802,39437,0
1792,39453,0
1784,39476,0
1770,39462,0
1768,39459,0
1780,39488,0
1794,39468,0
1816,39472,0
1834,39446,0
1856,39455,0
1876,39492,0
1890,39467,0
1891,39484,0
1898,39477,0
1896,39460,0
1892,39477,0
1874,39458,0
1864,39460,0
1850,39490,0
1844,39471,0
1818,39479,0
1812,39485,0
1820,39478,0
1791,39464,0
1788,39472,0
1780,39487,0
1784,39464,0
1798,39472,0
1812,39497,0
1824,39489,0
1840,39496,0
1858,39474,0
1856,39463,0
1884,39497,0
1880,39458,0
1880,39462,0
1866,39504,0
1860,39485,0
1858,39471,0
1852,39502,0
1824,39486,0
1826,39502,0
1832,39467,0
1814,39479,0
1820,39498,0
1824,39481,0
1844,39489,0
1844,39498,0
1848,39478,0
1872,39505,0
1880,39479,0
1898,39481,0
1896,39499,0
1904,39497,0
1896,39473,0
1886,39474,0
1884,39506,0
1864,39488,0
1860,39486,0
1830,39507,0
1832,39493,0
1820,39517,0
1824,39497,0
1827,39490,0
1816,39502,0
1826,39471,0
1836,39482,0
1856,39507,0
1862,39495,0
1892,39491,0
1898,39510,0
1928,39484,0
1928,39508,0
1952,39482,0
1952,39498,0
1948,39514,0
1936,39492,0
1921,39507,0
1900,39501,0
1888,39506,0
1872,39511,0
1870,39482,0
1860,39495,0
1856,39513,0
1856,39503,0
1840,39490,0
1864,39491,0
1872,39498,0
1896,39500,0
1909,39490,0
1920,39512,0
1932,39478,0
1941,39483,0
1948,39509,0
1953,39483,0
1953,39492,0
1944,39520,0
1936,39487,0
1920,39517,0
1904,39483,0
1896,39480,0
1888,39505,0
1876,39478,0
1880,39493,0
1881,39501,0
1896,39491,0
1900,39498,0
1920,39472,0
1929,39469,0
1953,39493,0
1961,39473,0
1968,39497,0
1974,39462,0
1984,39468,0
1982,39493,0
1985,39467,0
1972,39468,0
1956,39474,0
1940,39465,0
1924,39474,0
1912,39464,0
1909,39476,0
1908,39457,0
1900,39461,0
1898,39468,0
1912,39454,0
1914,39465,0
1941,39418,0
1944,39440,0
1976,39465,0
1976,39441,0
1988,39440,0
1993,39460,0
1996,39444,0
1996,39456,0
2000,39410,0
1984,39426,0
1988,39440,0
1962,39426,0
1960,39426,0
1960,39431,0
1936,39420,0
1930,39428,0
1928,39397,0
1938,39396,0
1957,39415,0
1966,39400,0
1992,39397,0
1996,39410,0
2020,39402,0
2026,39393,0
2032,39390,0
2046,39403,0
2060,39409,0
2052,39380,0
2040,39403,0
2028,39359,0
2010,39373,0
2000,39391,0
1994,39364,0
1976,39362,0
1968,39385,0
1952,39367,0
1952,39377,0
1944,39351,0
1968,39357,0
1952,39374,0
1972,39357,0
1984,39357,0
2016,39375,0
2032,39359,0
2048,39361,0
2074,39333,0
2064,39347,0
2068,39356,0
2052,39341,0
2050,39339,0
2040,39356,0
2016,39331,0
2020,39346,0
1994,39332,0
1986,39345,0
1984,39325,0
1981,39327,0
1980,39348,0
1992,39330,0
2004,39343,0
2008,39321,0
2044,39335,0
2050,39335,0
2064,39318,0
2080,39328,0
2084,39296,0
2098,39315,0
2088,39344,0
2100,39317,0
2076,39324,0
2050,39338,0
2036,39317,0
2012,39337,0
2004,39305,0
2000,39305,0
2000,39331,0
1998,39311,0
1984,39306,0
2000,39335,0
1997,39311,0
2002,39340,0
2025,39317,0
2045,39314,0
2056,39335,0
2080,39303,0
2074,39311,0
2076,39310,0
2080,39318,0
2085,39314,0
2080,39324,0
2068,39310,0
2032,39315,0
2020,39339,0
2016,39323,0
1996,39339,0
1976,39319,0
1996,39325,0
1976,39325,0
1992,39308,0
1985,39323,0
2004,39341,0
2012,39321,0
2032,39317,0
2038,39342,0
2056,39322,0
2066,39340,0
2090,39296,0
2092,39311,0
2080,39347,0
2080,39322,0
2060,39323,0
2048,39349,0
2024,39327,0
2014,39349,0
2012,39312,0
2002,39335,0
2000,39355,0
1990,39332,0
2016,39334,0
2018,39336,0
2040,39315,0
2061,39320,0
2068,39321,0
2082,39347,0
2088,39325,0
2088,39351,0
2084,39318,0
2087,39331,0
2068,39347,0
2070,39321,0
2040,39328,0
2041,39359,0
2008,39328,0
2020,39346,0
2004,39357,0
1988,39342,0
2016,39355,0
2016,39318,0
2026,39331,0
2036,39357,0
2060,39341,0
2080,39347,0
2088,39364,0
2080,39345,0
2100,39366,0
2112,39333,0
2114,39339,0
2116,39358,0
2092,39366,0
2074,39344,0
2064,39335,0
2047,39348,0
2044,39363,0
2032,39354,0
2028,39349,0
2020,39371,0
2024,39327,0
2028,39342,0
2036,39365,0
2056,39354,0
2052,39359,0
2088,39374,0
2088,39356,0
2104,39377,0
2096,39337,0
2112,39355,0
2096,39369,0
2090,39362,0
2080,39374,0
2084,39369,0
2072,39353,0
2069,39382,0
2050,39344,0
2048,39357,0
2034,39375,0
2026,39374,0
2024,39365,0
2037,39369,0
2044,39352,0
2066,39384,0
2064,39366,0
2076,39362,0
2088,39374,0
2104,39355,0
2108,39366,0
2112,39386,0
2114,39364,0
2104,39372,0
2096,39394,0
2088,39372,0
2064,39390,0
2056,39368,0
2046,39377,0
2040,39395,0
2034,39368,0
2028,39368,0
2034,39396,0
2032,39379,0
2040,39391,0
2058,39394,0
2072,39373,0
2100,39405,0
2114,39367,0
2124,39381,0
2129,39409,0
2226,39384,0
2133,39401,0
2116,39412,0
2101,39392,0
2106,39413,0
2074,39369,0
2080,39398,0
2056,39434,0
2052,39410,0
2046,39402,0
2052,39400,0
2036,39395,0
2052,39395,0
2072,39410,0
2104,39403,0
2116,39416,0
2144,39411,0
2168,39397,0
2175,39420,0
2180,39393,0
2200,39402,0
2176,39423,0
2176,39410,0
2168,39423,0
2152,39392,0
2128,39414,0
2120,39427,0
2096,39412,0
2100,39395,0
2093,39422,0
2088,39415,0
2088,39420,0
2090,39426,0
2100,39410,0
2098,39432,0
2112,39402,0
2128,39413,0
2128,39426,0
2160,39412,0
2144,39435,0
2137,39445,0
2140,39420,0
2136,39412,0
2117,39415,0
2104,39422,0
2088,39435,0
2068,39413,0
2047,39418,0
2057,39436,0
2064,39413,0
2064,39405,0
2068,39434,0
2096,39411,0
2096,39439,0
2128,39400,0
2132,39407,0
2176,39437,0
2185,39402,0
2200,39414,0
2228,39440,0
2250,39408,0
2252,39454,0
2252,39422,0
2229,39412,0
2212,39434,0
2192,39413,0
2160,39420,0
2148,39434,0
2138,39417,0
2129,39448,0
2128,39395,0
2116,39434,0
2128,39428,0
2132,39441,0
2145,39415,0
2160,39416,0
2172,39432,0
2184,39426,0
2182,39427,0
2184,39420,0
2188,39432,0
2184,39406,0
2188,39407,0
2156,39441,0
2160,39423,0
2128,39420,0
2120,39422,0
2096,39426,0
2104,39436,0
2088,39403,0
2084,39421,0
2088,39442,0
2112,39411,0
2116,39426,0
2138,39416,0
2160,39428,0
2170,39435,0
2178,39404,0
2178,39408,0
2176,39440,0
2192,39421,0
2186,39443,0
2196,39399,0
2156,39416,0
2140,39420,0
2128,39411,0
2112,39415,0
2088,39425,0
2096,39423,0
2072,39424,0
2072,39434,0
2080,39412,0
2081,39416,0
2088,39430,0
2119,39417,0
2120,39442,0
2160,39412,0
2168,39419,0
2176,39428,0
2192,39414,0
2192,39415,0
2176,39422,0
2170,39410,0
2152,39434,0
2168,39398,0
2140,39397,0
2120,39426,0
2112,39409,0
2101,39422,0
2093,39430,0
2084,39420,0
2088,39440,0
2113,39395,0
2112,39416,0
2144,39437,0
2132,39427,0
2146,39447,0
2152,39456,0
2170,39424,0
2172,39421,0
2184,39409,0
2180,39408,0
2164,39431,0
2148,39409,0
2132,39413,0
2120,39436,0
2108,39427,0
2090,39441,0
2104,39410,0
2080,39421,0
2080,39444,0
2072,39424,0
2088,39420,0
2092,39445,0
2100,39418,0
2120,39448,0
2160,39410,0
2163,39411,0
2169,39447,0
2176,39432,0
2192,39425,0
2188,39447,0
2164,39423,0
2148,39453,0
2152,39410,0
2124,39429,0
2128,39445,0
2096,39433,0
2092,39430,0
2084,39442,0
2104,39427,0
2080,39446,0
2088,39446,0
2092,39431,0
2112,39450,0
2108,39422,0
2110,39425,0
2116,39454,0
2128,39432,0
2100,39448,0
2106,39443,0
2068,39438,0
2046,39463,0
2024,39430,0
1996,39431,0
1960,39451,0
1940,39437,0
1921,39460,0
1912,39425,0
1896,39432,0
1892,39455,0
1896,39429,0
1910,39425,0
1930,39456,0
1944,39441,0
1964,39465,0
2012,39419,0
2035,39436,0
2092,39457,0
2132,39456,0
2160,39462,0
2210,39473,0
2260,39465,0
2332,39440,0
2426,39455,0
2544,39451,0
2664,39451,0
2828,39455,0
2992,39450,0
3175,39465,0
3332,39422,0
3576,39438,0
3704,39466,0
3936,39440,0
4048,39471,0
4095,39440,0
4095,39441,0
4095,39466,0
4095,39445,0
4095,39452,0
4095,39469,0
4095,39448,0
4095,39477,0
4095,39429,0
4095,39449,0
4095,39477,0
4095,39460,0
4095,39468,0
4095,39476,0
4095,39453,0
4095,39486,0
4095,39468,0
4080,39453,0
4016,39439,0
3916,39459,0
3768,39476,0
3604,39448,0
3420,39461,0
3224,39480,0
3048,39468,0
2880,39467,0
2728,39487,0
2576,39468,0
2480,39486,0
2362,39448,0
2297,39458,0
2224,39489,0
2184,39468,0
2160,39474,0
2144,39479,0
2136,39467,0
2165,39495,0
2176,39452,0
2176,39473,0
2184,39480,0
2182,39466,0
2166,39484,0
2140,39460,0
2125,39467,0
2112,39490,0
2080,39468,0
2064,39474,0
1996,39486,0
1964,39477,0
1928,39488,0
1896,39485,0
1876,39481,0
1840,39475,0
1828,39505,0
1816,39463,0
1820,39473,0
1821,39503,0
1818,39495,0
1851,39507,0
1856,39489,0
1880,39485,0
1890,39499,0
1892,39485,0
1910,39492,0
1908,39518,0
1902,39487,0
1880,39516,0
1856,39491,0
1860,39497,0
1852,39508,0
1820,39491,0
1816,39489,0
1800,39512,0
1792,39495,0
1792,39503,0
1789,39509,0
1813,39504,0
1824,39521,0
1836,39474,0
1856,39495,0
1856,39491,0
1868,39505,0
1880,39510,0
1884,39519,0
1896,39524,0
1880,39507,0
1872,39533,0
1864,39489,0
1848,39504,0
1844,39522,0
1832,39507,0
1820,39513,0
1820,39515,0
1800,39505,0
1808,39535,0
1804,39501,0
1824,39501,0
1826,39531,0
1840,39511,0
1854,39531,0
1876,39505,0
1893,39512,0
1904,39524,0
1920,39503,0
1906,39512,0
1912,39531,0
1904,39519,0
1882,39537,0
1891,39521,0
1856,39506,0
1844,39540,0
1832,39522,0
1816,39543,0
1810,39536,0
1806,39544,0
1818,39537,0
1828,39513,0
1836,39535,0
1852,39526,0
1880,39525,0
1882,39539,0
1888,39514,0
1910,39543,0
1909,39506,0
1916,39519,0
1906,39551,0
1912,39534,0
1894,39545,0
1864,39528,0
1864,39524,0
1856,39549,0
1840,39519,0
1836,39522,0
1842,39547,0
1844,39531,0
1840,39549,0
1856,39511,0
1856,39531,0
1872,39552,0
1872,39532,0
1908,39538,0
1910,39562,0
1920,39534,0
1924,39535,0
1921,39544,0
1924,39542,0
1914,39538,0
1904,39543,0
1885,39560,0
1872,39540,0
1846,39541,0
1842,39562,0
1845,39543,0
1832,39559,0
1837,39527,0
1829,39542,0
1856,39566,0
1866,39537,0
1880,39546,0
1892,39577,0
1904,39547,0
1916,39570,0
1928,39534,0
1928,39541,0
1936,39563,0
1930,39544,0
1928,39575,0
1910,39544,0
1904,39547,0
1884,39571,0
1872,39533,0
1860,39546,0
1882,39554,0
1854,39545,0
1856,39567,0
1858,39574,0
1865,39551,0
1888,39553,0
1898,39540,0
1916,39551,0
1928,39521,0
1940,39542,0
1941,39569,0
1956,39557,0
1942,39572,0
1952,39562,0
1944,39548,0
1920,39563,0
1914,39532,0
1892,39546,0
1896,39578,0
1888,39557,0
1874,39569,0
1876,39541,0
1872,39546,0
1868,39564,0
1896,39543,0
1904,39550,0
1929,39564,0
1945,39543,0
1952,39566,0
1961,39538,0
1976,39527,0
1974,39560,0
1988,39537,0
1982,39555,0
1992,39534,0
1960,39532,0
1944,39552,0
1929,39525,0
1928,39536,0
1908,39544,0
1906,39532,0
1900,39548,0
1904,39520,0
1896,39514,0
1922,39541,0
1940,39522,0
1964,39542,0
1976,39513,0
1992,39512,0
2016,39527,0
2020,39512,0
2010,39508,0
2020,39524,0
2008,39505,0
2002,39527,0
1992,39490,0
1984,39494,0
1972,39523,0
1968,39497,0
1956,39487,0
1945,39509,0
1948,39484,0
1946,39515,0
1948,39469,0
1960,39486,0
1972,39499,0
2002,39472,0
1992,39482,0
2018,39473,0
2026,39480,0
2040,39476,0
2036,39456,0
2040,39483,0
2040,39461,0
2036,39478,0
2021,39471,0
2008,39444,0
1980,39469,0
1984,39448,0
1972,39448,0
1972,39463,0
1968,39440,0
1964,39466,0
1968,39432,0
1984,39445,0
1996,39451,0
2016,39425,0
2026,39437,0
2056,39445,0
2064,39422,0
2072,39444,0
2080,39415,0
2084,39412,0
2080,39447,0
2056,39411,0
2045,39413,0
2033,39437,0
2016,39406,0
2000,39378,0
1996,39402,0
1984,39412,0
1996,39398,0
1992,39395,0
2012,39382,0
2020,39390,0
2030,39410,0
2047,39402,0
2057,39400,0
2076,39397,0
2089,39379,0
2096,39408,0
2096,39394,0
2090,39390,0
2088,39407,0
2064,39385,0
2052,39407,0
2016,39371,0
2016,39377,0
2016,39401,0
2009,39375,0
2009,39395,0
2008,39360,0
2008,39374,0
2020,39395,0
2052,39367,0
2040,39381,0
2057,39395,0
2068,39371,0
2080,39402,0
2096,39357,0
2092,39382,0
2092,39382,0
2080,39371,0
2080,39374,0
2076,39370,0
2056,39348,0
2032,39367,0
2021,39379,0
2025,39367,0
2016,39373,0
2008,39363,0
2019,39365,0
2012,39380,0
2038,39358,0
2040,39365,0
2048,39393,0
2068,39375,0
2084,39385,0
2096,39348,0
2096,39371,0
2096,39387,0
2120,39366,0
2112,39366,0
2104,39392,0
2080,39368,0
2074,39391,0
2048,39363,0
2032,39364,0
2021,39383,0
2016,39382,0
2010,39373,0
2017,39384,0
2008,39382,0
2008,39393,0
2028,39370,0
2056,39367,0
2084,39377,0
2082,39394,0
2088,39378,0
2100,39394,0
2096,39360,0
2088,39376,0
2082,39400,0
2084,39356,0
2056,39378,0
2040,39392,0
2018,39383,0
2012,39388,0
1994,39389,0
2008,39378,0
1984,39399,0
1989,39357,0
2016,39373,0
2028,39397,0
2048,39381,0
2050,39382,0
2080,39399,0
2088,39388,0
2112,39393,0
2100,39386,0
2098,39377,0
2116,39403,0
2104,39381,0
2112,39408,0
2068,39378,0
2053,39395,0
2024,39410,0
2021,39399,0
2008,39394,0
1996,39415,0
1996,39369,0
1992,39384,0
2000,39416,0
2016,39390,0
2032,39400,0
2052,39397,0
2058,39381,0
2084,39410,0
2088,39379,0
2100,39385,0
2096,39427,0
2106,39393,0
2088,39421,0
2076,39379,0
2060,39388,0
2080,39412,0
2050,39389,0
2032,39400,0
2028,39416,0
2027,39404,0
2012,39419,0
2008,39390,0
2013,39394,0
2030,39423,0
2048,39397,0
2080,39423,0
2080,39389,0
2096,39396,0
2106,39400,0
2120,39405,0
2112,39419,0
2112,39414,0
2104,39401,0
2096,39407,0
2084,39423,0
2054,39394,0
2040,39428,0
2027,39397,0
2018,39408,0
2016,39429,0
2000,39412,0
2008,39428,0
2008,39398,0
2036,39400,0
2028,39434,0
2047,39414,0
2064,39428,0
2100,39400,0
2114,39417,0
2114,39435,0
2132,39408,0
2124,39420,0
2124,39448,0
2104,39420,0
2090,39443,0
2081,39402,0
2066,39421,0
2072,39442,0
2038,39453,0
2032,39441,0
2044,39453,0
2028,39448,0
2044,39436,0
2060,39447,0
2068,39429,0
2085,39451,0
2100,39414,0
2100,39444,0
2116,39459,0
2128,39442,0
2128,39441,0
2132,39449,0
2112,39445,0
2112,39456,0
2088,39426,0
2088,39445,0
2056,39470,0
2060,39442,0
2046,39476,0
2056,39437,0
2056,39435,0
2052,39464,0
2072,39450,0
2060,39449,0
2084,39477,0
2092,39438,0
2109,39471,0
2128,39434,0
2136,39451,0
2148,39465,0
2144,39460,0
2138,39451,0
2128,39445,0
2120,39446,0
2096,39436,0
2090,39455,0
2072,39465,0
2056,39470,0
2047,39446,0
2047,39469,0
2046,39446,0
2054,39452,0
2047,39479,0
2072,39460,0
2080,39474,0
2088,39444,0
2092,39454,0
2105,39483,0
2104,39445,0
2116,39456,0
2128,39487,0
2146,39464,0
2148,39478,0
2132,39437,0
2120,39453,0
2112,39480,0
2100,39455,0
2068,39462,0
2076,39477,0
2064,39460,0
2056,39473,0
2072,39438,0
2044,39456,0
2068,39455,0
2072,39469,0
2084,39463,0
2096,39468,0
2108,39479,0
2116,39442,0
2144,39441,0
2130,39472,0
2128,39457,0
2120,39468,0
2121,39449,0
2104,39464,0
2105,39470,0
2084,39452,0
2088,39446,0
2080,39477,0
2090,39452,0
2088,39481,0
2104,39436,0
2114,39450,0
2160,39470,0
2168,39460,0
2201,39486,0
2208,39459,0
2220,39452,0
2230,39470,0
2216,39451,0
2208,39450,0
2218,39476,0
2208,39454,0
2200,39472,0
2160,39477,0
2148,39480,0
2128,39485,0
2114,39476,0
2104,39456,0
2096,39477,0
2096,39448,0
2096,39478,0
2104,39467,0
2116,39459,0
2121,39467,0
2154,39440,0
2156,39446,0
2176,39479,0
2180,39457,0
2200,39477,0
2184,39452,0
2200,39454,0
2180,39467,0
2164,39463,0
2152,39452,0
2149,39478,0
2130,39464,0
2132,39482,0
2117,39440,0
2112,39458,0
2104,39479,0
2096,39455,0
2096,39457,0
2124,39465,0
2120,39465,0
2160,39491,0
2144,39459,0
2148,39461,0
2162,39459,0
2156,39467,0
2156,39482,0
2156,39443,0
2144,39457,0
2136,39476,0
2120,39458,0
2104,39461,0
2084,39483,0
2086,39462,0
2064,39488,0
2084,39446,0
2076,39458,0
2080,39480,0
2084,39472,0
2096,39484,0
2116,39460,0
2121,39459,0
2140,39480,0
2176,39457,0
2176,39472,0
2184,39487,0
2188,39473,0
2196,39493,0
2192,39444,0
2156,39461,0
2140,39488,0
2130,39476,0
2112,39483,0
2088,39498,0
2081,39486,0
2074,39482,0
2080,39475,0
2082,39480,0
2089,39463,0
2104,39488,0
2120,39472,0
2128,39492,0
2140,39473,0
2156,39468,0
2159,39479,0
2144,39478,0
2155,39478,0
2144,39497,0
2145,39469,0
2120,39507,0
2105,39455,0
2088,39467,0
2080,39493,0
2084,39481,0
2092,39488,0
2080,39479,0
2082,39471,0
2090,39501,0
2112,39478,0
2122,39483,0
2120,39493,0
2128,39480,0
2154,39511,0
2153,39462,0
2156,39485,0
2152,39498,0
2132,39469,0
2128,39478,0
2124,39478,0
2104,39482,0
2088,39504,0
2082,39491,0
2068,39508,0
2058,39493,0
2047,39491,0
2047,39510,0
2058,39482,0
2040,39478,0
2060,39504,0
2036,39489,0
2052,39507,0
2036,39469,0
2030,39487,0
2024,39511,0
2016,39495,0
2012,39507,0
2000,39492,0
1978,39492,0
1960,39506,0
1932,39479,0
1920,39487,0
1896,39523,0
1888,39496,0
1877,39527,0
1902,39481,0
1906,39493,0
1932,39523,0
1948,39502,0
2000,39513,0
2036,39515,0
2096,39497,0
2168,39516,0
2266,39493,0
2384,39522,0
2512,39482,0
2665,39503,0
2832,39520,0
3000,39497,0
3192,39517,0
3336,39493,0
3557,39497,0
3672,39523,0
3896,39492,0
4016,39488,0
4095,39530,0
4095,39502,0
4095,39520,0
4095,39481,0
4095,39498,0
4095,39523,0
4095,39504,0
4095,39512,0
4095,39518,0
4095,39496,0
4095,39518,0
4095,39494,0
4095,39505,0
4095,39531,0
4095,39510,0
4095,39513,0
4095,39509,0
4095,39517,0
4095,39526,0
4095,39532,0
4095,39517,0
4066,39519,0
3960,39514,0
3808,39530,0
3616,39491,0
3408,39506,0
3191,39514,0
2960,39520,0
2776,39538,0
2576,39512,0
2416,39504,0
2264,39525,0
2164,39512,0
2076,39519,0
2024,39534,0
1976,39509,0
1961,39529,0
1952,39499,0
1956,39515,0
1969,39534,0
1972,39517,0
1992,39525,0
2000,39537,0
2008,39521,0
2032,39545,0
2032,39506,0
2040,39522,0
2040,39511,0
2016,39515,0
2004,39527,0
1981,39522,0
1964,39523,0
1936,39538,0
1905,39528,0
1880,39545,0
1840,39516,0
1812,39525,0
1790,39546,0
1780,39529,0
1768,39544,0
1768,39539,0
1768,39531,0
1768,39549,0
1784,39526,0
1800,39536,0
1788,39547,0
1820,39533,0
1832,39548,0
1848,39520,0
1857,39534,0
1862,39564,0
1864,39536,0
1866,39574,0
1864,39529,0
1832,39540,0
1824,39559,0
1812,39538,0
1793,39547,0
1785,39555,0
1772,39533,0
1770,39554,0
1766,39544,0
1758,39537,0
1772,39555,0
1800,39539,0
1808,39561,0
1814,39546,0
1820,39567,0
1846,39540,0
1850,39542,0
1848,39561,0
1856,39549,0
1864,39556,0
1852,39564,0
1834,39554,0
1824,39573,0
1816,39545,0
1796,39542,0
1796,39575,0
1790,39557,0
1788,39573,0
1792,39524,0
1802,39539,0
1813,39568,0
1820,39552,0
1828,39571,0
1840,39555,0
1845,39556,0
1896,39573,0
1872,39549,0
1880,39560,0
1880,39558,0
1868,39568,0
1857,39586,0
1842,39582,0
1824,39572,0
1812,39561,0
1796,39590,0
1790,39566,0
1776,39580,0
1772,39550,0
1768,39561,0
1771,39585,0
1784,39567,0
1808,39593,0
1824,39541,0
1828,39558,0
1860,39588,0
1872,39562,0
1880,39583,0
1892,39562,0
1890,39565,0
1892,39582,0
1872,39572,0
1876,39576,0
1856,39588,0
1826,39570,0
1813,39594,0
1804,39555,0
1798,39567,0
1798,39602,0
1790,39564,0
1797,39599,0
1802,39562,0
1816,39569,0
1852,39592,0
1856,39579,0
1864,39597,0
1872,39574,0
1884,39604,0
1892,39563,0
1888,39573,0
1880,39597,0
1869,39588,0
1874,39597,0
1844,39592,0
1840,39576,0
1824,39602,0
1816,39579,0
1800,39578,0
1792,39599,0
1791,39574,0
1800,39600,0
1808,39576,0
1836,39575,0
1840,39608,0
1861,39579,0
1872,39613,0
1880,39568,0
1892,39565,0
1892,39595,0
1894,39580,0
1901,39597,0
1884,39589,0
1874,39578,0
1848,39609,0
1840,39592,0
1832,39599,0
1816,39596,0
1826,39580,0
1812,39608,0
1818,39598,0
1816,39596,0
1828,39588,0
1853,39591,0
1856,39610,0
1884,39583,0
1896,39584,0
1904,39605,0
1918,39587,0
1932,39607,0
1928,39576,0
1920,39579,0
1912,39603,0
1892,39575,0
1872,39578,0
1864,39591,0
1858,39579,0
1846,39599,0
1824,39562,0
1824,39575,0
1832,39588,0
1826,39569,0
1846,39583,0
1866,39580,0
1872,39557,0
1904,39492,0
1914,39553,0
1932,39571,0
1940,39568,0
1932,39572,0
1919,39549,0
1920,39572,0
1912,39540,0
1900,39537,0
1880,39574,0
1872,39543,0
1859,39567,0
1844,39520,0
1856,39527,0
1842,39547,0
1856,39533,0
1850,39543,0
1878,39536,0
1888,39522,0
1896,39540,0
1920,39525,0
1945,39525,0
1946,39541,0
1968,39508,0
1970,39533,0
1958,39490,0
1956,39507,0
1936,39524,0
1922,39492,0
1913,39516,0
1900,39496,0
1893,39489,0
1861,39492,0
1866,39484,0
1880,39474,0
1890,39485,0
1880,39472,0
1908,39479,0
1928,39477,0
1940,39487,0
1952,39460,0
1968,39471,0
1985,39489,0
1997,39458,0
2008,39483,0
2000,39448,0
1980,39463,0
1972,39485,0
1944,39456,0
1938,39474,0
1925,39433,0
1918,39440,0
1916,39461,0
1928,39449,0
1920,39458,0
1940,39446,0
1936,39424,0
1965,39458,0
1972,39438,0
1970,39427,0
1984,39455,0
2004,39420,0
2005,39442,0
2024,39405,0
2016,39418,0
2012,39424,0
2008,39426,0
2002,39416,0
1978,39420,0
1960,39438,0
1956,39411,0
1952,39411,0
1940,39441,0
1944,39415,0
1940,39407,0
1965,39420,0
1968,39407,0
1984,39423,0
1992,39387,0
2020,39400,0
2025,39422,0
2044,39403,0
2047,39430,0
2056,39396,0
2052,39395,0
2064,39420,0
2049,39398,0
2024,39395,0
2020,39410,0
1992,39388,0
1977,39415,0
1968,39388,0
1952,39397,0
1964,39407,0
1952,39392,0
1972,39415,0
1964,39384,0
1980,39388,0
1992,39404,0
2010,39400,0
2018,39394,0
2026,39410,0
2036,39375,0
2040,39386,0
2040,39413,0
2034,39393,0
2032,39394,0
2035,39402,0
2012,39382,0
2012,39403,0
1976,39382,0
1978,39384,0
1964,39395,0
1972,39391,0
1972,39399,0
1968,39382,0
1984,39382,0
2004,39399,0
2025,39387,0
2041,39408,0
2049,39368,0
2060,39380,0
2075,39410,0
2064,39390,0
2064,39417,0
2064,39392,0
2050,39391,0
2040,39403,0
2008,39394,0
1996,39424,0
1984,39399,0
1982,39403,0
1968,39403,0
1974,39404,0
1972,39392,0
1977,39416,0
1980,39363,0
2002,39389,0
2020,39406,0
2034,39395,0
2036,39421,0
2064,39364,0
2056,39393,0
2064,39408,0
2056,39397,0
2076,39416,0
2032,39398,0
2024,39388,0
2004,39405,0
2008,39404,0
1990,39394,0
1980,39417,0
1980,39389,0
1978,39422,0
1970,39390,0
1968,39401,0
1972,39414,0
2000,39402,0
2004,39426,0
2034,39392,0
2032,39403,0
2040,39402,0
2044,39408,0
2052,39399,0
2060,39396,0
2044,39394,0
2036,39423,0
2024,39383,0
2004,39407,0
1990,39427,0
1973,39393,0
1974,39430,0
1964,39381,0
1976,39401,0
1984,39403,0
1976,39403,0
1980,39403,0
2012,39420,0
2024,39396,0
2032,39428,0
2044,39388,0
2072,39386,0
2084,39422,0
2072,39400,0
2080,39416,0
2065,39410,0
2066,39400,0
2032,39424,0
2010,39405,0
2013,39407,0
1988,39430,0
1996,39405,0
1968,39414,0
1965,39414,0
1960,39410,0
1980,39391,0
1980,39419,0
1996,39413,0
2012,39427,0
2025,39408,0
2032,39426,0
2042,39391,0
2064,39408,0
2061,39428,0
2060,39412,0
2070,39428,0
2044,39397,0
2040,39410,0
2016,39422,0
2016,39414,0
2008,39423,0
1986,39421,0
1986,39413,0
1984,39441,0
1978,39408,0
1994,39415,0
2004,39435,0
2022,39409,0
2032,39443,0
2040,39412,0
2057,39427,0
2072,39438,0
2077,39418,0
2092,39445,0
2080,39450,0
2080,39438,0
2044,39426,0
2042,39438,0
2024,39424,0
2008,39441,0
2000,39422,0
1992,39445,0
1988,39409,0
1984,39423,0
1988,39444,0
1999,39436,0
1996,39449,0
2026,39408,0
2032,39422,0
2052,39447,0
2056,39430,0
2072,39435,0
2068,39429,0
2074,39432,0
2068,39444,0
2088,39434,0
2072,39431,0
2064,39444,0
2052,39430,0
2028,39459,0
2026,39428,0
2000,39434,0
1993,39451,0
2000,39431,0
2000,39454,0
2016,39418,0
2010,39430,0
2026,39444,0
2032,39440,0
2045,39437,0
2064,39430,0
2072,39461,0
2080,39441,0
2084,39449,0
2096,39426,0
2088,39426,0
2076,39456,0
2068,39445,0
2047,39454,0
2042,39426,0
2024,39423,0
2024,39456,0
2016,39441,0
2010,39435,0
2004,39465,0
2012,39449,0
2012,39459,0
2064,39427,0
2076,39441,0
2093,39457,0
2097,39444,0
2112,39462,0
2132,39435,0
2120,39444,0
2120,39458,0
2120,39445,0
2101,39440,0
2068,39465,0
2064,39450,0
2044,39441,0
2036,39439,0
2032,39440,0
2005,39462,0
2018,39447,0
2028,39464,0
2040,39450,0
2044,39449,0
2064,39459,0
2091,39443,0
2090,39460,0
2114,39460,0
2112,39437,0
2136,39459,0
2116,39435,0
2136,39454,0
2116,39450,0
2096,39452,0
2104,39459,0
2082,39452,0
2064,39451,0
2053,39461,0
2048,39437,0
2053,39467,0
2034,39431,0
2028,39448,0
2032,39472,0
2056,39448,0
2061,39474,0
2080,39435,0
2084,39465,0
2096,39453,0
2096,39435,0
2101,39459,0
2104,39450,0
2096,39462,0
2088,39442,0
2084,39457,0
2076,39476,0
2069,39444,0
2065,39474,0
2077,39432,0
2076,39444,0
2104,39471,0
2104,39452,0
2120,39472,0
2120,39425,0
2144,39447,0
2146,39464,0
2154,39456,0
2154,39455,0
2185,39462,0
2188,39453,0
2188,39469,0
2177,39436,0
2176,39452,0
2149,39475,0
2124,39448,0
2115,39481,0
2122,39429,0
2096,39456,0
2089,39466,0
2072,39454,0
2080,39454,0
2068,39448,0
2088,39453,0
2088,39446,0
2114,39455,0
2112,39471,0
2128,39444,0
2132,39467,0
2144,39456,0
2152,39451,0
2160,39476,0
2152,39454,0
2168,39484,0
2144,39454,0
2136,39448,0
2112,39467,0
2092,39456,0
2082,39469,0
2080,39440,0
2064,39449,0
2090,39469,0
2080,39450,0
2082,39486,0
2096,39431,0
2116,39461,0
2124,39475,0
2124,39459,0
2132,39481,0
2150,39439,0
2146,39458,0
2162,39481,0
2136,39462,0
2130,39470,0
2116,39461,0
2112,39472,0
2088,39452,0
2065,39465,0
2064,39478,0
2054,39451,0
2047,39458,0
2042,39479,0
2060,39461,0
2065,39493,0
2072,39452,0
2112,39467,0
2112,39477,0
2129,39472,0
2144,39480,0
2164,39483,0
2152,39471,0
2162,39484,0
2148,39452,0
2160,39462,0
2144,39493,0
2132,39470,0
2114,39492,0
2092,39457,0
2096,39461,0
2068,39505,0
2064,39483,0
2076,39489,0
2066,39460,0
2090,39467,0
2084,39465,0
2092,39471,0
2112,39494,0
2128,39483,0
2144,39502,0
2132,39462,0
2148,39473,0
2148,39508,0
2144,39480,0
2128,39513,0
2136,39470,0
2111,39482,0
2084,39499,0
2097,39485,0
2072,39506,0
2068,39477,0
2042,39474,0
2056,39504,0
2047,39491,0
2060,39477,0
2072,39507,0
2104,39483,0
2120,39506,0
2134,39472,0
2146,39484,0
2152,39514,0
2160,39494,0
2144,39523,0
2152,39468,0
2144,39500,0
2129,39507,0
2116,39488,0
2092,39483,0
2068,39501,0
2056,39490,0
2056,39485,0
2036,39501,0
2040,39494,0
2020,39518,0
2020,39478,0
2026,39485,0
2028,39520,0
2020,39501,0
2036,39517,0
2020,39489,0
2040,39496,0
2000,39517,0
1986,39495,0
1968,39498,0
1952,39510,0
1928,39503,0
1912,39514,0
1890,39498,0
1888,39506,0
1872,39520,0
1876,39500,0
1882,39516,0
1895,39485,0
1920,39500,0
1936,39522,0
1982,39504,0
2027,39533,0
2090,39486,0
2176,39504,0
2244,39514,0
2356,39515,0
2480,39524,0
2618,39536,0
2784,39533,0
2942,39527,0
3092,39494,0
3258,39512,0
3432,39520,0
3592,39515,0
3768,39526,0
3964,39511,0
4088,39506,0
4095,39528,0
4095,39513,0
4095,39534,0
4095,39521,0
4095,39508,0
4095,39551,0
4095,39507,0
4095,39520,0
4095,39539,0
4095,39518,0
4095,39537,0
4095,39504,0
4095,39526,0
4095,39543,0
4095,39522,0
4095,39549,0
4095,39521,0
4095,39524,0
4095,39554,0
4088,39532,0
3992,39549,0
3864,39533,0
3680,39525,0
3492,39564,0
3288,39530,0
3088,39544,0
2888,39538,0
2696,39537,0
2530,39560,0
2384,39539,0
2279,39531,0
2178,39553,0
2124,39543,0
2056,39558,0
2024,39519,0
1993,39539,0
1992,39572,0
1988,39547,0
1978,39577,0
1994,39522,0
2016,39534,0
2032,39557,0
2020,39542,0
2034,39556,0
2032,39526,0
2037,39547,0
2016,39556,0
2001,39546,0
2000,39550,0
1978,39571,0
1976,39548,0
1936,39563,0
1898,39557,0
1876,39559,0
1854,39542,0
1824,39544,0
1800,39569,0
1777,39541,0
1772,39544,0
1760,39567,0
1760,39547,0
1738,39574,0
1776,39536,0
1784,39550,0
1802,39574,0
1816,39560,0
1840,39567,0
1836,39557,0
1856,39555,0
1852,39566,0
1860,39550,0
1856,39548,0
1868,39577,0
1844,39559,0
1840,39582,0
1805,39540,0
1795,39550,0
1796,39569,0
1776,39566,0
1765,39588,0
1779,39553,0
1778,39557,0
1790,39583,0
1804,39568,0
1836,39590,0
1842,39582,0
1848,39563,0
1872,39578,0
1872,39565,0
1870,39556,0
1860,39575,0
1861,39558,0
1852,39569,0
1838,39577,0
1820,39557,0
1816,39580,0
1796,39557,0
1790,39573,0
1784,39596,0
1780,39578,0
1781,39588,0
1792,39554,0
1816,39570,0
1830,39589,0
1844,39572,0
1862,39588,0
1876,39552,0
1884,39567,0
1881,39591,0
1882,39575,0
1872,39593,0
1869,39571,0
1858,39569,0
1842,39593,0
1824,39583,0
1816,39594,0
1792,39592,0
1796,39564,0
1789,39602,0
1780,39591,0
1780,39572,0
1786,39572,0
1804,39590,0
1818,39574,0
1840,39568,0
1866,39594,0
1868,39570,0
1896,39598,0
1880,39554,0
1892,39562,0
1874,39596,0
1866,39582,0
1844,39598,0
1840,39564,0
1804,39576,0
1800,39599,0
1812,39584,0
1776,39596,0
1772,39562,0
1785,39574,0
1777,39603,0
1788,39583,0
1793,39612,0
1828,39562,0
1844,39577,0
1872,39606,0
1880,39584,0
1866,39586,0
1892,39594,0
1918,39588,0
1896,39587,0
1889,39610,0
1880,39576,0
1852,39589,0
1832,39612,0
1820,39595,0
1808,39609,0
1800,39594,0
1794,39587,0
1791,39606,0
1790,39582,0
1788,39589,0
1808,39622,0
1832,39591,0
1848,39611,0
1864,39583,0
1876,39597,0
1900,39605,0
1896,39597,0
1908,39614,0
1908,39586,0
1904,39597,0
1888,39617,0
1872,39600,0
1848,39625,0
1852,39575,0
1829,39594,0
1828,39612,0
1820,39598,0
1820,39599,0
1828,39599,0
1824,39593,0
1844,39595,0
1856,39599,0
1872,39620,0
1892,39579,0
1898,39601,0
1905,39617,0
1913,39599,0
1912,39625,0
1904,39574,0
1900,39589,0
1880,39614,0
1876,39596,0
1852,39614,0
1844,39568,0
1836,39589,0
1828,39599,0
1824,39587,0
1832,39606,0
1829,39587,0
1840,39583,0
1850,39601,0
1876,39587,0
1888,39592,0
1896,39598,0
1901,39574,0
1926,39595,0
1927,39567,0
1928,39568,0
1920,39585,0
1928,39577,0
1912,39572,0
1888,39589,0
1868,39584,0
1864,39561,0
1856,39578,0
1848,39539,0
1864,39548,0
1852,39578,0
1852,39552,0
1866,39570,0
1872,39525,0
1892,39548,0
1900,39559,0
1925,39534,0
1924,39566,0
1936,39513,0
1944,39524,0
1946,39545,0
1937,39531,0
1940,39537,0
1928,39506,0
1916,39513,0
1896,39531,0
1888,39516,0
1880,39525,0
1876,39511,0
1860,39502,0
1878,39518,0
1869,39488,0
1890,39487,0
1900,39522,0
1916,39497,0
1918,39494,0
1956,39473,0
1968,39509,0
1970,39501,0
1980,39479,0
1982,39472,0
1972,39492,0
1976,39470,0
1972,39483,0
1960,39451,0
1948,39460,0
1936,39486,0
1930,39461,0
1932,39480,0
1928,39435,0
1932,39456,0
1918,39462,0
1944,39448,0
1952,39464,0
1980,39423,0
2006,39442,0
2005,39457,0
2016,39433,0
2033,39446,0
2048,39437,0
2024,39429,0
2018,39456,0
2016,39430,0
2000,39422,0
1996,39444,0
1968,39440,0
1953,39445,0
1936,39465,0
1919,39392,0
1928,39416,0
1930,39421,0
1936,39419,0
1949,39414,0
1968,39423,0
1976,39401,0
1980,39417,0
2000,39422,0
2008,39396,0
2036,39423,0
2024,39399,0
2028,39404,0
2020,39418,0
2020,39408,0
1992,39422,0
1984,39382,0
1964,39392,0
1968,39418,0
1970,39394,0
1960,39422,0
1956,39372,0
1956,39395,0
1984,39415,0
1972,39410,0
1980,39410,0
2008,39378,0
2017,39394,0
2032,39417,0
2032,39397,0
2044,39398,0
2040,39430,0
2041,39405,0
2032,39392,0
2032,39382,0
2016,39381,0
1993,39410,0
1973,39397,0
1964,39401,0
1962,39394,0
1955,39382,0
1952,39407,0
1952,39392,0
1960,39394,0
1972,39414,0
1984,39396,0
2004,39414,0
2020,39384,0
2032,39390,0
2032,39411,0
2056,39386,0
2052,39414,0
2052,39375,0
2048,39389,0
2040,39417,0
2010,39398,0
1994,39428,0
1973,39366,0
1978,39382,0
1952,39411,0
1940,39385,0
1944,39422,0
1934,39410,0
1952,39419,0
1952,39404,0
1964,39387,0
2000,39392,0
2008,39421,0
2022,39394,0
2034,39427,0
2064,39375,0
2056,39392,0
2056,39415,0
2056,39403,0
2056,39418,0
2026,39395,0
2028,39396,0
2000,39416,0
1992,39402,0
1968,39408,0
1960,39405,0
1972,39394,0
1964,39411,0
1968,39405,0
1972,39407,0
1994,39411,0
1996,39394,0
2016,39420,0
2018,39400,0
2038,39400,0
2056,39417,0
2050,39411,0
2042,39414,0
2021,39410,0
2005,39409,0
1988,39406,0
1980,39412,0
1964,39401,0
1954,39403,0
1956,39422,0
1954,39402,0
1960,39435,0
1952,39392,0
1980,39405,0
1984,39419,0
2008,39411,0
2004,39427,0
2044,39413,0
2036,39418,0
2052,39425,0
2052,39409,0
2072,39418,0
2064,39417,0
2036,39405,0
2030,39438,0
2012,39417,0
2016,39416,0
1984,39441,0
1984,39419,0
1962,39433,0
1962,39405,0
1973,39419,0
1974,39446,0
2000,39416,0
1988,39414,0
2000,39417,0
2016,39424,0
2024,39433,0
2032,39418,0
2046,39417,0
2032,39450,0
2052,39430,0
2052,39451,0
2036,39420,0
2020,39427,0
2021,39452,0
1992,39442,0
1992,39450,0
1988,39405,0
1984,39429,0
1960,39458,0
1973,39433,0
1978,39452,0
1992,39424,0
2000,39437,0
2028,39456,0
2041,39441,0
2060,39454,0
2080,39439,0
2088,39438,0
2076,39463,0
2072,39442,0
2060,39454,0
2060,39454,0
2033,39443,0
2040,39463,0
2000,39439,0
1992,39457,0
1980,39452,0
1984,39456,0
1984,39447,0
1984,39446,0
1992,39474,0
2000,39429,0
2020,39450,0
2032,39465,0
2040,39455,0
2068,39478,0
2080,39438,0
2080,39454,0
2084,39478,0
2090,39463,0
2088,39469,0
2080,39459,0
2047,39458,0
2036,39474,0
2012,39458,0
2018,39457,0
2004,39486,0
2004,39462,0
1992,39481,0
1986,39459,0
2002,39457,0
2000,39482,0
2010,39461,0
2044,39469,0
2048,39459,0
2072,39452,0
2084,39450,0
2080,39472,0
2096,39475,0
2100,39470,0
2096,39467,0
2072,39452,0
2064,39455,0
2040,39481,0
2036,39465,0
2016,39493,0
2008,39447,0
2007,39458,0
1992,39489,0
1996,39472,0
1996,39489,0
2024,39457,0
2024,39463,0
2040,39488,0
2068,39470,0
2072,39495,0
2084,39453,0
2104,39468,0
2112,39499,0
2104,39475,0
2112,39493,0
2096,39460,0
2086,39482,0
2057,39496,0
2046,39480,0
2057,39502,0
2035,39466,0
2040,39472,0
2032,39473,0
2040,39477,0
2038,39479,0
2044,39480,0
2056,39484,0
2073,39505,0
2088,39477,0
2002,39498,0
2112,39464,0
2124,39477,0
2112,39509,0
2135,39479,0
2120,39504,0
2112,39462,0
2080,39484,0
2074,39511,0
2056,39478,0
2052,39493,0
2021,39477,0
2032,39472,0
2028,39501,0
2048,39485,0
2037,39503,0
2056,39459,0
2068,39479,0
2082,39512,0
2093,39485,0
2106,39506,0
2118,39472,0
2122,39480,0
2124,39500,0
2144,39485,0
2104,39498,0
2096,39496,0
2074,39485,0
2068,39493,0
2047,39491,0
2036,39483,0
2032,39505,0
2024,39488,0
2018,39507,0
2010,39477,0
2032,39482,0
2028,39497,0
2044,39485,0
2080,39501,0
2088,39477,0
2112,39467,0
2136,39505,0
2152,39491,0
2160,39495,0
2156,39494,0
2180,39477,0
2176,39497,0
2168,39485,0
2164,39486,0
2149,39502,0
2128,39480,0
2124,39504,0
2104,39484,0
2089,39479,0
2090,39509,0
2092,39481,0
2112,39504,0
2104,39485,0
2112,39497,0
2128,39504,0
2140,39506,0
2148,39505,0
2152,39487,0
2164,39500,0
2164,39458,0
2152,39488,0
2132,39505,0
2112,39480,0
2093,39514,0
2080,39469,0
2088,39485,0
2068,39508,0
2072,39484,0
2056,39513,0
2068,39476,0
2068,39480,0
2100,39515,0
2080,39485,0
2144,39514,0
2152,39474,0
2176,39489,0
2184,39520,0
2182,39493,0
2192,39514,0
2176,39477,0
2164,39491,0
2149,39517,0
2132,39496,0
2121,39513,0
2090,39507,0
2080,39491,0
2074,39490,0
2072,39512,0
2064,39530,0
2064,39501,0
2056,39520,0
2072,39478,0
2088,39501,0
2102,39518,0
2112,39499,0
2130,39524,0
2128,39485,0
2160,39491,0
2136,39518,0
2148,39508,0
2128,39517,0
2120,39484,0
2112,39492,0
2084,39518,0
2072,39496,0
2072,39516,0
2064,39491,0
2048,39507,0
2048,39526,0
2040,39504,0
2056,39509,0
2056,39508,0
2072,39502,0
2093,39508,0
2098,39497,0
2120,39522,0
2120,39514,0
2129,39506,0
2136,39512,0
2124,39510,0
2120,39525,0
2108,39506,0
2084,39521,0
2080,39511,0
2064,39514,0
2052,39532,0
2047,39502,0
2047,39515,0
2040,39524,0
2052,39516,0
2056,39536,0
2072,39511,0
2080,39526,0
2112,39537,0
2112,39506,0
2129,39532,0
2128,39520,0
2152,39519,0
2168,39522,0
2152,39519,0
2144,39535,0
2132,39521,0
2120,39534,0
2085,39511,0
2076,39514,0
2058,39552,0
2052,39519,0
2029,39550,0
2026,39519,0
2052,39526,0
2064,39534,0
2068,39520,0
2096,39525,0
2100,39554,0
2120,39530,0
2124,39542,0
2132,39518,0
2128,39537,0
2128,39549,0
2112,39535,0
2090,39542,0
2060,39521,0
2032,39539,0
1992,39544,0
1976,39532,0
1944,39542,0
1924,39537,0
1908,39544,0
1904,39548,0
1897,39531,0
1906,39553,0
1912,39537,0
1932,39545,0
1944,39547,0
1952,39539,0
1956,39552,0
1990,39554,0
1992,39550,0
2018,39537,0
2016,39550,0
2016,39555,0
2036,39549,0
2040,39570,0
2060,39558,0
2076,39566,0
2136,39540,0
2200,39544,0
2300,39571,0
2424,39553,0
2524,39565,0
2702,39543,0
2860,39556,0
3072,39565,0
3224,39554,0
3444,39558,0
3582,39550,0
3816,39557,0
3924,39566,0
4080,39567,0
4095,39574,0
4095,39543,0
4095,39552,0
4095,39579,0
4095,39569,0
4095,39580,0
4095,39552,0
4095,39565,0
4095,39581,0
4095,39566,0
4095,39580,0
4095,39543,0
4095,39549,0
4095,39560,0
4095,39569,0
4095,39580,0
4084,39575,0
4032,39587,0
3940,39558,0
3784,39578,0
3612,39582,0
3428,39567,0
3240,39588,0
3065,39578,0
2868,39579,0
2740,39583,0
2568,39571,0
2474,39585,0
2368,39561,0
2312,39585,0
2256,39600,0
2228,39581,0
2216,39592,0
2224,39581,0
2216,39571,0
2214,39603,0
2224,39578,0
2208,39606,0
2200,39571,0
2156,39590,0
2134,39614,0
2102,39581,0
2062,39612,0
2024,39576,0
1973,39596,0
1932,39581,0
1912,39601,0
1872,39612,0
1860,39580,0
1842,39604,0
1836,39571,0
1840,39588,0
1842,39612,0
1858,39593,0
1864,39613,0
1876,39579,0
1874,39586,0
1893,39611,0
1890,39597,0
1892,39620,0
1880,39579,0
1868,39596,0
1848,39613,0
1932,39605,0
1816,39619,0
1802,39587,0
1802,39598,0
1784,39627,0
1784,39603,0
1784,39626,0
1787,39591,0
1796,39610,0
1800,39620,0
1821,39594,0
1827,39631,0
1840,39591,0
1828,39609,0
1840,39601,0
1844,39608,0
1828,39596,0
1816,39605,0
1810,39624,0
1791,39614,0
1780,39606,0
1752,39624,0
1760,39612,0
1754,39630,0
1762,39602,0
1760,39610,0
1768,39620,0
1776,39618,0
1784,39630,0
1808,39602,0
1826,39613,0
1832,39624,0
1852,39603,0
1856,39625,0
1872,39618,0
1872,39609,0
1864,39631,0
1856,39606,0
1840,39635,0
1814,39612,0
1800,39622,0
1780,39621,0
1778,39614,0
1760,39630,0
1772,39605,0
1766,39618,0
1762,39647,0
1777,39647,0
1794,39632,0
1808,39617,0
1816,39637,0
1840,39618,0
1844,39631,0
1856,39619,0
1860,39619,0
1876,39653,0
1873,39620,0
1868,39645,0
1861,39606,0
1840,39616,0
1840,39651,0
1812,39618,0
1808,39645,0
1794,39624,0
1788,39629,0
1780,39650,0
1800,39633,0
1801,39644,0
1804,39617,0
1825,39630,0
1832,39656,0
1846,39628,0
1857,39651,0
1858,39630,0
1880,39633,0
1877,39665,0
1888,39638,0
1864,39647,0
1856,39654,0
1841,39630,0
1826,39642,0
1816,39661,0
1808,39660,0
1800,39638,0
1800,39629,0
1808,39671,0
1816,39649,0
1824,39665,0
1840,39634,0
1856,39636,0
1880,39675,0
1884,39644,0
1904,39673,0
1900,39641,0
1916,39648,0
1910,39663,0
1908,39649,0
1897,39673,0
1890,39638,0
1881,39646,0
1852,39683,0
1856,39656,0
1834,39678,0
1832,39638,0
1813,39651,0
1809,39683,0
1836,39655,0
1834,39680,0
1844,39644,0
1858,39649,0
1860,39653,0
1890,39666,0
1890,39652,0
1908,39633,0
1918,39652,0
1918,39678,0
1920,39665,0
1908,39682,0
1904,39640,0
1880,39665,0
1878,39685,0
1860,39668,0
1856,39683,0
1860,39645,0
1848,39657,0
1844,39682,0
1860,39655,0
1864,39682,0
1882,39655,0
1890,39658,0
1920,39687,0
1932,39653,0
1944,39675,0
1955,39653,0
1964,39656,0
1964,39663,0
1960,39648,0
1947,39672,0
1944,39646,0
1922,39644,0
1920,39663,0
1896,39663,0
1888,39668,0
1876,39642,0
1880,39633,0
1864,39649,0
1876,39665,0
1892,39636,0
1896,39630,0
1916,39652,0
1928,39630,0
1936,39644,0
1955,39623,0
1968,39625,0
1976,39643,0
1960,39625,0
1976,39644,0
1956,39616,0
1954,39609,0
1948,39634,0
1928,39608,0
1916,39622,0
1924,39596,0
1923,39603,0
1920,39621,0
1920,39593,0
1921,39617,0
1929,39567,0
1930,39587,0
1949,39609,0
1973,39585,0
1988,39611,0
2016,39494,0
2008,39582,0
2010,39559,0
2024,39571,0
2000,39551,0
2000,39585,0
1985,39562,0
1978,39587,0
1962,39543,0
1948,39557,0
1944,39569,0
1953,39539,0
1944,39563,0
1952,39528,0
1952,39541,0
1968,39555,0
1984,39536,0
2008,39535,0
2020,39522,0
2028,39525,0
2032,39542,0
2048,39517,0
2052,39535,0
2032,39523,0
2026,39509,0
2018,39531,0
2010,39506,0
1977,39525,0
1964,39493,0
1968,39495,0
1952,39523,0
1952,39494,0
1944,39494,0
1966,39492,0
1960,39482,0
1970,39491,0
1988,39480,0
2016,39503,0
2024,39485,0
2032,39492,0
2046,39486,0
2060,39468,0
2056,39503,0
2066,39483,0
2041,39478,0
2040,39471,0
2028,39462,0
2016,39484,0
1996,39466,0
1996,39478,0
1984,39469,0
1994,39471,0
1977,39479,0
2012,39469,0
2013,39477,0
2028,39457,0
2040,39457,0
2060,39473,0
2068,39461,0
2073,39461,0
2076,39452,0
2085,39453,0
2094,39469,0
2084,39452,0
2052,39447,0
2040,39451,0
2020,39443,0
2016,39463,0
1992,39455,0
1984,39461,0
1964,39449,0
1964,39449,0
1970,39464,0
1970,39453,0
1980,39469,0
1995,39459,0
2002,39447,0
2036,39463,0
2044,39446,0
2060,39459,0
2064,39444,0
2074,39456,0
2072,39468,0
2064,39448,0
2060,39460,0
2060,39446,0
2029,39445,0
2028,39467,0
2000,39437,0
1992,39465,0
1980,39454,0
1973,39443,0
1972,39468,0
1988,39450,0
1994,39461,0
2008,39454,0
2020,39473,0
2036,39481,0
2047,39491,0
2068,39452,0
2064,39442,0
2072,39476,0
2068,39447,0
2080,39456,0
2052,39450,0
2042,39449,0
2040,39474,0
2011,39452,0
2000,39466,0
2004,39462,0
1984,39469,0
1996,39479,0
1980,39464,0
2000,39477,0
1984,39449,0
2012,39465,0
2016,39482,0
2058,39464,0
2064,39493,0
2082,39451,0
2081,39465,0
2089,39496,0
2088,39471,0
2066,39487,0
2053,39460,0
2044,39471,0
2027,39483,0
2024,39466,0
1992,39477,0
1985,39457,0
1988,39466,0
1984,39475,0
1984,39454,0
1996,39482,0
2008,39457,0
2024,39477,0
2032,39487,0
2056,39471,0
2064,39489,0
2076,39447,0
2074,39476,0
2089,39492,0
2080,39478,0
2088,39498,0
2072,39463,0
2060,39480,0
2041,39503,0
2034,39470,0
2018,39498,0
2024,39469,0
2024,39478,0
2021,39490,0
2020,39490,0
2028,39507,0
2032,39474,0
2052,39477,0
2059,39495,0
2084,39486,0
2088,39483,0
2097,39474,0
2100,39490,0
2096,39486,0
2100,39501,0
2096,39507,0
2088,39454,0
2070,39488,0
2047,39492,0
2040,39483,0
2028,39502,0
2016,39494,0
2012,39506,0
2031,39475,0
2016,39488,0
2032,39516,0
2032,39481,0
2064,39515,0
2072,39467,0
2096,39490,0
2096,39515,0
2100,39505,0
2112,39521,0
2128,39470,0
2130,39504,0
2128,39526,0
2114,39498,0
2092,39523,0
2075,39480,0
2046,39502,0
2044,39532,0
2040,39510,0
2037,39522,0
2036,39493,0
2028,39491,0
2032,39503,0
2046,39516,0
2060,39511,0
2076,39522,0
2096,39512,0
2096,39527,0
2116,39519,0
2122,39522,0
2118,39501,0
2116,39509,0
2144,39529,0
2108,39512,0
2096,39524,0
2084,39504,0
2080,39504,0
2047,39540,0
2049,39513,0
2028,39537,0
2036,39511,0
2032,39513,0
2060,39541,0
2066,39511,0
2073,39539,0
2096,39511,0
2104,39506,0
2124,39532,0
2120,39521,0
2120,39542,0
2136,39516,0
2130,39530,0
2137,39527,0
2108,39508,0
2101,39522,0
2096,39518,0
2056,39527,0
2047,39501,0
2042,39526,0
2046,39545,0
2036,39530,0
2040,39547,0
2044,39511,0
2068,39519,0
2090,39556,0
2080,39529,0
2116,39542,0
2120,39511,0
2144,39522,0
2122,39551,0
2136,39532,0
2124,39548,0
2128,39518,0
2106,39524,0
2116,39558,0
2097,39535,0
2074,39548,0
2068,39528,0
2056,39552,0
2050,39531,0
2040,39535,0
2040,39554,0
2064,39532,0
2070,39552,0
2092,39539,0
2112,39535,0
2132,39524,0
2136,39537,0
2152,39526,0
2162,39546,0
2152,39518,0
2140,39532,0
2130,39557,0
2128,39536,0
2096,39554,0
2093,39524,0
2064,39526,0
2072,39553,0
2052,39524,0
2064,39543,0
2056,39534,0
2072,39552,0
2074,39525,0
2092,39530,0
2120,39557,0
2133,39546,0
2149,39562,0
2152,39518,0
2164,39529,0
2168,39563,0
2156,39530,0
2140,39562,0
2124,39529,0
2128,39540,0
2100,39543,0
2088,39529,0
2088,39545,0
2060,39531,0
2056,39525,0
2060,39563,0
2066,39543,0
2080,39521,0
2100,39532,0
2114,39555,0
2136,39537,0
2152,39555,0
2170,39527,0
2200,39536,0
2208,39550,0
2232,39539,0
2216,39546,0
2224,39540,0
2200,39538,0
2200,39537,0
2172,39530,0
2160,39555,0
2144,39536,0
2160,39562,0
2144,39517,0
2148,39529,0
2148,39551,0
2160,39540,0
2153,39562,0
2156,39518,0
2168,39545,0
2188,39558,0
2192,39544,0
2216,39548,0
2200,39545,0
2204,39549,0
2202,39559,0
2188,39554,0
2176,39532,0
2162,39542,0
2140,39560,0
2120,39537,0
2108,39553,0
2102,39533,0
2096,39550,0
2096,39559,0
2096,39549,0
2122,39571,0
2112,39528,0
2140,39532,0
2148,39558,0
2172,39543,0
2174,39571,0
2188,39529,0
2192,39531,0
2216,39560,0
2217,39549,0
2208,39566,0
2196,39537,0
2170,39544,0
2148,39569,0
2122,39542,0
2106,39555,0
2101,39551,0
2092,39559,0
2088,39551,0
2080,39551,0
2100,39562,0
2096,39562,0
2108,39569,0
2124,39563,0
2128,39570,0
2144,39557,0
2168,39566,0
2160,39553,0
2174,39550,0
2176,39577,0
2175,39564,0
2156,39576,0
2148,39549,0
2128,39554,0
2120,39578,0
2098,39562,0
2098,39574,0
2080,39560,0
2092,39552,0
2088,39581,0
2116,39567,0
2128,39591,0
2150,39542,0
2156,39560,0
2170,39584,0
2184,39562,0
2176,39591,0
2176,39544,0
2178,39569,0
2176,39584,0
2176,39576,0
2144,39576,0
2122,39587,0
2105,39579,0
2096,39569,0
2088,39571,0
2084,39596,0
2076,39576,0
2080,39598,0
2084,39559,0
2080,39581,0
2092,39597,0
2120,39587,0
2124,39601,0
2152,39572,0
2148,39586,0
2170,39608,0
2168,39582,0
2180,39607,0
2173,39570,0
2160,39589,0
2152,39602,0
2148,39590,0
2136,39600,0
2122,39582,0
2112,39582,0
2104,39611,0
2104,39591,0
2082,39615,0
2088,39582,0
2098,39593,0
2107,39603,0
2136,39594,0
2128,39588,0
2144,39608,0
2152,39613,0
2200,39606,0
2172,39616,0
2170,39577,0
2160,39605,0
2148,39618,0
2120,39598,0
2092,39613,0
2056,39593,0
2032,39605,0
1992,39602,0
1976,39603,0
1940,39619,0
1928,39606,0
1908,39613,0
1912,39585,0
1912,39598,0
1916,39627,0
1928,39610,0
1962,39647,0
1968,39592,0
1984,39606,0
2000,39634,0
2016,39614,0
2040,39625,0
2040,39598,0
2052,39609,0
2067,39640,0
2088,39609,0
2128,39632,0
2160,39626,0
2232,39618,0
2336,39620,0
2468,39620,0
2584,39626,0
2752,39625,0
2940,39636,0
3132,39622,0
3336,39647,0
3540,39613,0
3732,39629,0
3939,39636,0
4084,39625,0
4095,39653,0
4095,39625,0
4095,39641,0
4095,39619,0
4095,39626,0
4095,39657,0
4095,39636,0
4095,39654,0
4095,39612,0
4095,39634,0
4095,39637,0
4095,39640,0
4095,39649,0
4095,39617,0
4095,39632,0
4095,39644,0
4095,39635,0
4095,39649,0
4095,39610,0
4095,39644,0
4064,39637,0
3984,39643,0
3824,39634,0
3656,39640,0
3432,39653,0
3234,39635,0
3008,39638,0
2804,39663,0
2624,39642,0
2468,39664,0
2348,39638,0
2248,39656,0
2192,39663,0
2138,39650,0
2116,39670,0
2108,39639,0
2128,39643,0
2132,39663,0
2144,39634,0
2152,39665,0
2184,39649,0
2170,39658,0
2156,39659,0
2144,39644,0
2096,39666,0
2072,39660,0
2020,39663,0
1984,39652,0
1961,39656,0
1930,39667,0
1920,39658,0
1890,39679,0
1888,39677,0
1872,39690,0
1874,39678,0
1880,39657,0
1896,39680,0
1889,39659,0
1896,39684,0
1904,39643,0
1904,39649,0
1893,39679,0
1893,39668,0
1882,39683,0
1873,39636,0
1848,39658,0
1844,39680,0
1825,39662,0
1824,39681,0
1816,39650,0
1808,39658,0
1804,39692,0
1824,39658,0
1824,39678,0
1848,39665,0
1856,39659,0
1880,39689,0
1882,39662,0
1884,39688,0
1876,39668,0
1904,39668,0
1892,39700,0
1872,39692,0
1860,39672,0
1840,39698,0
1840,39687,0
1816,39679,0
1816,39690,0
1814,39675,0
1816,39685,0
1813,39679,0
1837,39679,0
1836,39693,0
1858,39682,0
1864,39692,0
1888,39654,0
1892,39678,0
1912,39699,0
1920,39680,0
1914,39705,0
1913,39673,0
1896,39684,0
1904,39706,0
1881,39688,0
1872,39708,0
1844,39671,0
1832,39680,0
1817,39711,0
1816,39690,0
1812,39707,0
1808,39679,0
1841,39691,0
1846,39694,0
1872,39691,0
1876,39692,0
1893,39679,0
1900,39680,0
1908,39689,0
1912,39708,0
1916,39703,0
1908,39689,0
1898,39715,0
1882,39697,0
1874,39700,0
1858,39690,0
1842,39694,0
1828,39713,0
1828,39705,0
1820,39711,0
1828,39686,0
1826,39688,0
1824,39724,0
1848,39696,0
1864,39712,0
1880,39686,0
1908,39697,0
1912,39717,0
1920,39703,0
1939,39725,0
1924,39689,0
1924,39701,0
1908,39724,0
1890,39696,0
1894,39726,0
1872,39704,0
1860,39712,0
1840,39722,0
1840,39733,0
1832,39730,0
1832,39718,0
1836,39712,0
1844,39706,0
1860,39724,0
1870,39709,0
1884,39726,0
1890,39702,0
1910,39703,0
1915,39733,0
1918,39717,0
1920,39733,0
1912,39696,0
1904,39717,0
1880,39737,0
1876,39720,0
1846,39737,0
1834,39713,0
1824,39722,0
1816,39737,0
1816,39712,0
1824,39739,0
1833,39708,0
1848,39722,0
1860,39734,0
1880,39720,0
1889,39741,0
1922,39717,0
1932,39731,0
1952,39712,0
1944,39715,0
1956,39746,0
1944,39740,0
1924,39743,0
1926,39725,0
1901,39740,0
1889,39715,0
1864,39737,0
1852,39708,0
1852,39719,0
1852,39744,0
1851,39726,0
1848,39735,0
1866,39699,0
1874,39719,0
1892,39737,0
1908,39712,0
1932,39722,0
1928,39717,0
1956,39718,0
1960,39720,0
1976,39708,0
1968,39728,0
1957,39713,0
1952,39729,0
1936,39696,0
1910,39698,0
1892,39731,0
1878,39704,0
1893,39728,0
1868,39688,0
1874,39688,0
1888,39688,0
1890,39683,0
1909,39716,0
1916,39700,0
1948,39702,0
1952,39682,0
1972,39704,0
1984,39664,0
1964,39676,0
1980,39701,0
1977,39674,0
1973,39695,0
1956,39665,0
1948,39666,0
1916,39688,0
1940,39661,0
1912,39680,0
1906,39651,0
1904,39666,0
1908,39676,0
1908,39656,0
1930,39672,0
1940,39652,0
1958,39654,0
1984,39649,0
2004,39646,0
2017,39650,0
2018,39629,0
2023,39651,0
2037,39623,0
2028,39633,0
2048,39654,0
2002,39614,0
2000,39633,0
1968,39623,0
1972,39624,0
1956,39631,0
1952,39632,0
1952,39613,0
1952,39612,0
1952,39636,0
1956,39611,0
1968,39627,0
1984,39589,0
2008,39599,0
2028,39618,0
2024,39600,0
2064,39614,0
2040,39601,0
2064,39600,0
2064,39590,0
2044,39581,0
2028,39613,0
2026,39584,0
2010,39590,0
1997,39584,0
1992,39572,0
1988,39602,0
1992,39560,0
1980,39591,0
1978,39565,0
1998,39567,0
2004,39583,0
2024,39565,0
2032,39577,0
2032,39565,0
2036,39549,0
2052,39559,0
2060,39555,0
2064,39532,0
2047,39559,0
2056,39578,0
2040,39545,0
2024,39572,0
2024,39534,0
2008,39541,0
2004,39569,0
2004,39545,0
1992,39556,0
1992,39534,0
1994,39547,0
2016,39565,0
2020,39546,0
2044,39561,0
2046,39531,0
2088,39542,0
2092,39566,0
2098,39534,0
2108,39556,0
2116,39547,0
2112,39561,0
2080,39522,0
2061,39523,0
2064,39563,0
2040,39543,0
2057,39557,0
2016,39552,0
2004,39553,0
1992,39542,0
2000,39537,0
1993,39553,0
2000,39561,0
2008,39540,0
2025,39554,0
2036,39522,0
2064,39528,0
2064,39564,0
2083,39536,0
2088,39565,0
2097,39526,0
2080,39526,0
2080,39560,0
2056,39539,0
2048,39560,0
2024,39529,0
2012,39543,0
2001,39556,0
2000,39537,0
2008,39552,0
2006,39539,0
2019,39569,0
2022,39519,0
2050,39531,0
2044,39554,0
2060,39540,0
2082,39568,0
2092,39511,0
2112,39523,0
2088,39519,0
2100,39534,0
2088,39534,0
2086,39554,0
2065,39539,0
2047,39560,0
2040,39545,0
2025,39555,0
2016,39546,0
2012,39550,0
2004,39528,0
2010,39544,0
2008,39564,0
2020,39541,0
2028,39552,0
2056,39537,0
2046,39541,0
2064,39567,0
2064,39548,0
2084,39567,0
2084,39549,0
2098,39552,0
2096,39540,0
2076,39541,0
2065,39571,0
2048,39540,0
2032,39558,0
2020,39527,0
2004,39540,0
2016,39572,0
1997,39544,0
1992,39591,0
2008,39565,0
2028,39547,0
2034,39547,0
2047,39556,0
2056,39550,0
2072,39569,0
2076,39533,0
2082,39548,0
2076,39567,0
2064,39546,0
2073,39585,0
2060,39541,0
2056,39548,0
2021,39569,0
2025,39554,0
2002,39569,0
2006,39559,0
1988,39571,0
2000,39549,0
2016,39543,0
2032,39577,0
2050,39549,0
2054,39572,0
2068,39543,0
2075,39551,0
2086,39564,0
2080,39546,0
2094,39574,0
2092,39555,0
2081,39559,0
2082,39565,0
2047,39591,0
2040,39590,0
2028,39566,0
2013,39569,0
1996,39579,0
1996,39558,0
1996,39579,0
1992,39565,0
2004,39588,0
2020,39552,0
2026,39561,0
2051,39591,0
2058,39572,0
2096,39579,0
2088,39564,0
2112,39575,0
2092,39582,0
2106,39563,0
2088,39586,0
2080,39569,0
2064,39584,0
2088,39550,0
2048,39568,0
2036,39598,0
2032,39578,0
2026,39605,0
2025,39565,0
2016,39573,0
2026,39591,0
2036,39579,0
2051,39590,0
2072,39571,0
2068,39574,0
2088,39577,0
2096,39577,0
2096,39576,0
2100,39587,0
2106,39605,0
2084,39571,0
2088,39570,0
2072,39593,0
2056,39581,0
2044,39600,0
2040,39585,0
2024,39587,0
2024,39575,0
2016,39580,0
2024,39597,0
2028,39578,0
2040,39610,0
2047,39575,0
2066,39582,0
2080,39598,0
2114,39586,0
2128,39600,0
2156,39581,0
2148,39586,0
2146,39571,0
2146,39580,0
2122,39602,0
2102,39578,0
2090,39613,0
2072,39575,0
2084,39576,0
2046,39570,0
2040,39600,0
2028,39606,0
2033,39579,0
2046,39599,0
2052,39565,0
2064,39575,0
2084,39594,0
2088,39586,0
2100,39606,0
2104,39577,0
2123,39588,0
2112,39582,0
2144,39578,0
2112,39603,0
2112,39585,0
2096,39607,0
2088,39565,0
2072,39578,0
2056,39592,0
2040,39572,0
2060,39596,0
2049,39591,0
2042,39600,0
2056,39562,0
2084,39582,0
2073,39604,0
2084,39591,0
2096,39603,0
2122,39567,0
2123,39578,0
2144,39603,0
2128,39601,0
2121,39586,0
2114,39598,0
2110,39589,0
2098,39581,0
2082,39604,0
2066,39573,0
2068,39586,0
2044,39585,0
2040,39574,0
2046,39599,0
2039,39585,0
2047,39610,0
2065,39563,0
2060,39580,0
2096,39601,0
2092,39583,0
2113,39596,0
2116,39588,0
2132,39586,0
2128,39571,0
2152,39570,0
2148,39597,0
2124,39589,0
2128,39608,0
2100,39565,0
2090,39582,0
2072,39611,0
2065,39575,0
2070,39596,0
2061,39575,0
2080,39583,0
2056,39602,0
2068,39571,0
2076,39570,0
2096,39570,0
2108,39574,0
2116,39568,0
2124,39561,0
2136,39600,0
2140,39575,0
2144,39600,0
2144,39578,0
2145,39578,0
2120,39582,0
2124,39589,0
2088,39595,0
2096,39577,0
2076,39602,0
2080,39563,0
2068,39580,0
2058,39604,0
2068,39583,0
2100,39597,0
2100,39579,0
2116,39570,0
2132,39599,0
2136,39569,0
2144,39604,0
2130,39582,0
2132,39590,0
2152,39566,0
2160,39579,0
2152,39599,0
2136,39584,0
2118,39608,0
2120,39591,0
2120,39587,0
2128,39605,0
2124,39576,0
2122,39602,0
2144,39580,0
2148,39595,0
2162,39593,0
2164,39580,0
2192,39598,0
2200,39582,0
2208,39594,0
2200,39580,0
2220,39586,0
2208,39605,0
2208,39590,0
2200,39607,0
2176,39576,0
2160,39586,0
2165,39611,0
2149,39584,0
2138,39609,0
2128,39585,0
2120,39590,0
2113,39613,0
2104,39591,0
2114,39613,0
2123,39583,0
2136,39599,0
2164,39591,0
2160,39581,0
2168,39593,0
2176,39605,0
2192,39597,0
2184,39597,0
2184,39615,0
2172,39592,0
2168,39617,0
2156,39574,0
2140,39591,0
2120,39624,0
2106,39602,0
2090,39623,0
2096,39590,0
2072,39599,0
2097,39609,0
2092,39598,0
2104,39623,0
2120,39608,0
2140,39630,0
2144,39576,0
2184,39598,0
2188,39631,0
2187,39605,0
2208,39617,0
2192,39596,0
2184,39595,0
2162,39618,0
2145,39605,0
2137,39623,0
2112,39607,0
2120,39632,0
2084,39623,0
2080,39613,0
2072,39612,0
2072,39619,0
2082,39630,0
2096,39605,0
2104,39642,0
2120,39604,0
2132,39619,0
2144,39635,0
2154,39613,0
2176,39638,0
2162,39623,0
2176,39642,0
2148,39590,0
2156,39620,0
2120,39633,0
2116,39627,0
2104,39637,0
2096,39609,0
2084,39622,0
2100,39630,0
2084,39616,0
2096,39640,0
2100,39613,0
2120,39643,0
2140,39610,0
2128,39615,0
2133,39651,0
2176,39622,0
2161,39643,0
2174,39636,0
2160,39617,0
2164,39631,0
2153,39648,0
2136,39641,0
2116,39652,0
2096,39606,0
2092,39629,0
2088,39646,0
2070,39633,0
2066,39662,0
2080,39619,0
2072,39625,0
2100,39649,0
2104,39642,0
2114,39654,0
2124,39637,0
2144,39646,0
2136,39638,0
2160,39636,0
2176,39660,0
2168,39635,0
2176,39653,0
2148,39620,0
2128,39639,0
2112,39639,0
2101,39644,0
2073,39665,0
2064,39649,0
2064,39670,0
2044,39630,0
2048,39640,0
2028,39636,0
2020,39638,0
2016,39645,0
2020,39651,0
2016,39661,0
2008,39654,0
2000,39681,0
1990,39635,0
1980,39646,0
1970,39667,0
1956,39644,0
1934,39667,0
1914,39649,0
1912,39656,0
1896,39664,0
1892,39647,0
1898,39676,0
1912,39659,0
1930,39666,0
1964,39649,0
2000,39654,0
2074,39679,0
2132,39661,0
2228,39687,0
2338,39647,0
2464,39653,0
2612,39685,0
2744,39653,0
2909,39672,0
3098,39664,0
3260,39666,0
3476,39675,0
3576,39653,0
3720,39672,0
3884,39662,0
4040,39684,0
4095,39678,0
4095,39669,0
4095,39682,0
4095,39671,0
4095,39685,0
4095,39660,0
4095,39665,0
4095,39689,0
4095,39673,0
4095,39687,0
4095,39663,0
4095,39655,0
4095,39690,0
4095,39662,0
4095,39689,0
4095,39659,0
4095,39670,0
4095,39694,0
4095,39664,0
4095,39694,0
4095,39667,0
4068,39670,0
3916,39683,0
3660,39681,0
3450,39692,0
3240,39683,0
3016,39701,0
2856,39660,0
2624,39677,0
2456,39681,0
2338,39682,0
2240,39681,0
2156,39677,0
2096,39679,0
2060,39699,0
2032,39691,0
2016,39704,0
2016,39679,0
2016,39681,0
2016,39707,0
2020,39688,0
2025,39708,0
2016,39678,0
2016,39685,0
2008,39691,0
2016,39686,0
2004,39707,0
1996,39694,0
1984,39696,0
1985,39689,0
1968,39677,0
1962,39706,0
1936,39690,0
1920,39714,0
1896,39679,0
1864,39690,0
1830,39708,0
1817,39685,0
1798,39710,0
1784,39698,0
1768,39697,0
1768,39714,0
1780,39690,0
1786,39701,0
1777,39703,0
1808,39688,0
1826,39692,0
1842,39712,0
1840,39703,0
1864,39714,0
1880,39679,0
1871,39694,0
1866,39719,0
1864,39696,0
1864,39731,0
1840,39679,0
1824,39701,0
1802,39723,0
1786,39694,0
1781,39726,0
1768,39702,0
1760,39712,0
1760,39713,0
1680,39704,0
1780,39726,0
1805,39701,0
1814,39736,0
1828,39688,0
1838,39702,0
1865,39729,0
1872,39711,0
1888,39725,0
1880,39709,0
1872,39700,0
1860,39713,0
1848,39708,0
1824,39704,0
1812,39726,0
1804,39699,0
1785,39705,0
1777,39740,0
1784,39714,0
1772,39743,0
1785,39689,0
1790,39707,0
1810,39731,0
1812,39713,0
1832,39738,0
1840,39717,0
1856,39713,0
1864,39730,0
1868,39710,0
1876,39737,0
1876,39725,0
1865,39738,0
1848,39707,0
1836,39715,0
1818,39737,0
1817,39723,0
1796,39754,0
1790,39695,0
1796,39715,0
1790,39743,0
1796,39724,0
1800,39727,0
1818,39723,0
1832,39722,0
1846,39727,0
1860,39734,0
1876,39715,0
1884,39721,0
1880,39749,0
1888,39727,0
1876,39752,0
1872,39712,0
1864,39721,0
1834,39749,0
1834,39726,0
1816,39749,0
1794,39734,0
1796,39743,0
1790,39723,0
1788,39727,0
1784,39750,0
1800,39738,0
1832,39758,0
1845,39714,0
1858,39729,0
1876,39756,0
1892,39732,0
1894,39753,0
1900,39719,0
1892,39728,0
1904,39747,0
1885,39732,0
1876,39761,0
1856,39739,0
1833,39733,0
1824,39731,0
1805,39732,0
1800,39742,0
1808,39760,0
1800,39730,0
1800,39739,0
1812,39758,0
1810,39747,0
1836,39750,0
1855,39740,0
1864,39743,0
1872,39750,0
1877,39745,0
1900,39764,0
1888,39750,0
1888,39775,0
1888,39730,0
1876,39748,0
1864,39761,0
1844,39741,0
1842,39761,0
1832,39752,0
1824,39772,0
1816,39729,0
1822,39738,0
1830,39773,0
1828,39743,0
1850,39758,0
1864,39739,0
1881,39751,0
1868,39753,0
1901,39743,0
1904,39735,0
1916,39735,0
1912,39754,0
1908,39732,0
1900,39762,0
1890,39717,0
1872,39732,0
1857,39761,0
1858,39729,0
1846,39755,0
1840,39734,0
1848,39747,0
1829,39703,0
1841,39719,0
1852,39747,0
1860,39716,0
1877,39743,0
1896,39705,0
1904,39717,0
1928,39719,0
1948,39707,0
1945,39730,0
1952,39700,0
1936,39731,0
1930,39694,0
1912,39698,0
1888,39708,0
1892,39692,0
1876,39710,0
1848,39598,0
1848,39687,0
1856,39686,0
1864,39677,0
1872,39681,0
1882,39703,0
1900,39670,0
1908,39697,0
1928,39649,0
1938,39668,0
1937,39683,0
1967,39663,0
1960,39669,0
1948,39634,0
1944,39645,0
1932,39652,0
1913,39648,0
1904,39655,0
1888,39650,0
1877,39649,0
1888,39617,0
1884,39626,0
1888,39639,0
1896,39628,0
1920,39636,0
1928,39613,0
1946,39632,0
1952,39598,0
1948,39600,0
1996,39616,0
1995,39594,0
2016,39623,0
2000,39598,0
1990,39594,0
1980,39607,0
1980,39601,0
1968,39610,0
1968,39578,0
1936,39597,0
1917,39579,0
1912,39596,0
1916,39553,0
1918,39571,0
1925,39572,0
1928,39560,0
1972,39573,0
1964,39557,0
2001,39582,0
2000,39540,0
2024,39552,0
2032,39558,0
2036,39544,0
2044,39564,0
2054,39543,0
2048,39564,0
2033,39526,0
2008,39536,0
2010,39537,0
1988,39529,0
1972,39548,0
1960,39528,0
1977,39540,0
1970,39517,0
1984,39519,0
1972,39540,0
1993,39558,0
2008,39550,0
2014,39492,0
2036,39513,0
2036,39532,0
2040,39511,0
2047,39527,0
2046,39511,0
2036,39534,0
2032,39494,0
2024,39503,0
2000,39527,0
2002,39496,0
1976,39515,0
1964,39488,0
1964,39503,0
1972,39508,0
1961,39500,0
1972,39520,0
1980,39508,0
2004,39521,0
2024,39489,0
2038,39493,0
2048,39515,0
2060,39500,0
2064,39507,0
2058,39492,0
2053,39495,0
2056,39501,0
2042,39487,0
2028,39510,0
2008,39490,0
1994,39491,0
1984,39499,0
1972,39486,0
1968,39515,0
1968,39490,0
1964,39512,0
1962,39493,0
1978,39497,0
1996,39483,0
2012,39492,0
2028,39515,0
2040,39493,0
2072,39522,0
2080,39484,0
2088,39493,0
2064,39504,0
2080,39485,0
2057,39504,0
2046,39495,0
2032,39501,0
2026,39478,0
2012,39488,0
2004,39517,0
1995,39491,0
1986,39514,0
1980,39495,0
1984,39487,0
1986,39501,0
2007,39483,0
2020,39516,0
2040,39502,0
2044,39496,0
2053,39499,0
2068,39495,0
2077,39502,0
2073,39504,0
2069,39526,0
2056,39491,0
2056,39517,0
2032,39498,0
2024,39514,0
2004,39477,0
1995,39487,0
1980,39519,0
1982,39506,0
1984,39529,0
1994,39484,0
1988,39494,0
2008,39526,0
2020,39502,0
2034,39509,0
2046,39502,0
2072,39514,0
2088,39485,0
2089,39498,0
2085,39529,0
2080,39492,0
2070,39532,0
2040,39501,0
2032,39498,0
2020,39513,0
2014,39497,0
2008,39522,0
1988,39504,0
1980,39505,0
1992,39499,0
1998,39506,0
2000,39504,0
2012,39504,0
2036,39518,0
2044,39501,0
2068,39515,0
2066,39493,0
2080,39512,0
2088,39528,0
2072,39500,0
2080,39514,0
2056,39488,0
2045,39507,0
2026,39510,0
2032,39500,0
1996,39521,0
1992,39510,0
1988,39522,0
1996,39489,0
1996,39500,0
1996,39530,0
2012,39497,0
2028,39523,0
2040,39504,0
2052,39507,0
2064,39516,0
2081,39505,0
2080,39529,0
2096,39509,0
2084,39506,0
2068,39505,0
2064,39514,0
2046,39508,0
2042,39519,0
2016,39545,0
2008,39514,0
2001,39528,0
1992,39500,0
1994,39514,0
1990,39533,0
2000,39513,0
2016,39539,0
2034,39516,0
2044,39531,0
2064,39494,0
2072,39515,0
2088,39532,0
2092,39512,0
2092,39540,0
2088,39522,0
2104,39529,0
2080,39539,0
2072,39530,0
2056,39544,0
2030,39524,0
2026,39565,0
2010,39518,0
2004,39529,0
2014,39545,0
2018,39536,0
2040,39544,0
2028,39541,0
2056,39541,0
2056,39541,0
2080,39544,0
2088,39548,0
2080,39531,0
2104,39549,0
2112,39537,0
2116,39537,0
2112,39560,0
2096,39541,0
2087,39559,0
2052,39524,0
2051,39537,0
2032,39563,0
2026,39543,0
2010,39557,0
2016,39537,0
2016,39563,0
2016,39535,0
2026,39535,0
2060,39569,0
2072,39544,0
2100,39570,0
2113,39544,0
2136,39544,0
2132,39553,0
2130,39542,0
2118,39555,0
2128,39561,0
2104,39573,0
2080,39556,0
2064,39550,0
2041,39547,0
2026,39558,0
2024,39553,0
2020,39563,0
2032,39548,0
2028,39559,0
2047,39546,0
2047,39549,0
2068,39579,0
2107,39552,0
2100,39571,0
2136,39553,0
2128,39549,0
2136,39570,0
2120,39551,0
2128,39566,0
2104,39557,0
2096,39583,0
2080,39539,0
2064,39555,0
2056,39578,0
2052,39552,0
2036,39580,0
2030,39542,0
2030,39558,0
2032,39570,0
2044,39551,0
2068,39568,0
2080,39554,0
2113,39576,0
2104,39556,0
2120,39564,0
2120,39559,0
2122,39561,0
2136,39547,0
2128,39554,0
2106,39563,0
2080,39570,0
2072,39558,0
2060,39577,0
2040,39551,0
2040,39570,0
2036,39541,0
2042,39543,0
2036,39575,0
2056,39557,0
2047,39576,0
2064,39552,0
2068,39560,0
2080,39554,0
2106,39546,0
2124,39571,0
2128,39556,0
2140,39579,0
2124,39548,0
2124,39559,0
2124,39577,0
2096,39551,0
2088,39564,0
2088,39556,0
2065,39569,0
2080,39543,0
2047,39553,0
2056,39567,0
2040,39569,0
2038,39567,0
2064,39582,0
2074,39559,0
2080,39580,0
2088,39551,0
2100,39568,0
2102,39538,0
2112,39553,0
2124,39570,0
2104,39547,0
2104,39573,0
2096,39554,0
2080,39561,0
2064,39561,0
2064,39547,0
2056,39568,0
2060,39547,0
2064,39567,0
2092,39547,0
2120,39557,0
2128,39562,0
2152,39549,0
2182,39580,0
2192,39550,0
2194,39583,0
2202,39534,0
2217,39551,0
2205,39581,0
2224,39553,0
2188,39566,0
2176,39576,0
2160,39580,0
2130,39570,0
2112,39559,0
2102,39578,0
2084,39559,0
2084,39574,0
2072,39541,0
2080,39557,0
2080,39571,0
2095,39557,0
2112,39572,0
2132,39561,0
2146,39577,0
2160,39546,0
2160,39562,0
2176,39584,0
2172,39566,0
2176,39580,0
2168,39564,0
2184,39578,0
2170,39555,0
2160,39545,0
2136,39586,0
2129,39558,0
2120,39580,0
2081,39553,0
2072,39567,0
2072,39565,0
2068,39555,0
2080,39584,0
2084,39578,0
2093,39575,0
2100,39574,0
2120,39582,0
2136,39576,0
2144,39559,0
2140,39592,0
2144,39563,0
2132,39585,0
2128,39562,0
2112,39582,0
2096,39551,0
2072,39568,0
2072,39597,0
2046,39563,0
2044,39591,0
2036,39565,0
2040,39579,0
2044,39586,0
2052,39568,0
2064,39589,0
2100,39572,0
2112,39586,0
2129,39556,0
2144,39583,0
2148,39602,0
2162,39570,0
2144,39597,0
2136,39582,0
2142,39594,0
2140,39570,0
2104,39577,0
2088,39621,0
2074,39598,0
2064,39566,0
2052,39588,0
2060,39602,0
2052,39587,0
2056,39596,0
2068,39569,0
2074,39575,0
2088,39622,0
2100,39579,0
2123,39606,0
2124,39593,0
2146,39590,0
2144,39604,0
2144,39593,0
2136,39609,0
2140,39607,0
2116,39612,0
2104,39573,0
2084,39575,0
2096,39621,0
2080,39599,0
2074,39613,0
2068,39591,0
2064,39602,0
2064,39596,0
2064,39599,0
2068,39610,0
2084,39607,0
2101,39623,0
2128,39585,0
2112,39626,0
2128,39600,0
2128,39607,0
2124,39601,0
2128,39607,0
2116,39613,0
2100,39600,0
2092,39618,0
2080,39608,0
2072,39635,0
2064,39582,0
2059,39601,0
2058,39625,0
2080,39611,0
2060,39629,0
2080,39623,0
2064,39619,0
2080,39596,0
2068,39610,0
2068,39635,0
2056,39617,0
2056,39637,0
2040,39596,0
2024,39621,0
2000,39631,0
1973,39620,0
1944,39642,0
1916,39616,0
1888,39636,0
1885,39603,0
1870,39615,0
1872,39646,0
1864,39635,0
1872,39647,0
1888,39618,0
1922,39623,0
1952,39628,0
1997,39646,0
2036,39629,0
2080,39639,0
2144,39611,0
2208,39629,0
2332,39654,0
2374,39629,0
2480,39646,0
2624,39621,0
2744,39635,0
2912,39632,0
3044,39632,0
3284,39650,0
3376,39631,0
3552,39647,0
3720,39622,0
3984,39632,0
4095,39657,0
4095,39637,0
4095,39660,0
4095,39628,0
4095,39649,0
4095,39631,0
4095,39641,0
4095,39670,0
4095,39648,0
4095,39664,0
4095,39648,0
4095,39670,0
4095,39655,0
4095,39646,0
4095,39666,0
4095,39648,0
4095,39650,0
4095,39662,0
4092,39639,0
4080,39668,0
4008,39649,0
3909,39670,0
3720,39634,0
3592,39644,0
3344,39676,0
3184,39655,0
2952,39676,0
2784,39652,0
2604,39651,0
2460,39656,0
2328,39642,0
2264,39678,0
2188,39659,0
2128,39674,0
2085,39640,0
2060,39650,0
2048,39660,0
2020,39658,0
2018,39686,0
2028,39661,0
2044,39678,0
2044,39674,0
2047,39654,0
2040,39665,0
2042,39673,0
2034,39657,0
2020,39680,0
2000,39642,0
1980,39663,0
1944,39688,0
1921,39672,0
1896,39684,0
1870,39667,0
1832,39675,0
1824,39668,0
1802,39663,0
1772,39688,0
1768,39672,0
1776,39697,0
1772,39671,0
1784,39680,0
1792,39681,0
1809,39671,0
1817,39696,0
1842,39674,0
1858,39696,0
1850,39658,0
1858,39677,0
1856,39702,0
1844,39678,0
1841,39699,0
1824,39679,0
1824,39695,0
1800,39674,0
1762,39694,0
1768,39682,0
1760,39678,0
1756,39689,0
1756,39682,0
1758,39698,0
1766,39688,0
1776,39709,0
1788,39666,0
1789,39680,0
1812,39683,0
1824,39688,0
1836,39710,0
1836,39693,0
1836,39707,0
1832,39682,0
1836,39692,0
1820,39702,0
1798,39696,0
1790,39711,0
1776,39698,0
1769,39712,0
1756,39691,0
1757,39701,0
1752,39689,0
1740,39694,0
1756,39717,0
1762,39694,0
1792,39721,0
1801,39682,0
1824,39682,0
1828,39718,0
1834,39727,0
1844,39703,0
1850,39710,0
1832,39712,0
1832,39706,0
1812,39724,0
1804,39704,0
1780,39724,0
1769,39682,0
1757,39709,0
1756,39692,0
1748,39696,0
1746,39722,0
1796,39705,0
1764,39732,0
1774,39703,0
1800,39710,0
1809,39706,0
1826,39699,0
1824,39723,0
1850,39703,0
1842,39722,0
1848,39709,0
1836,39707,0
1856,39726,0
1814,39704,0
1800,39721,0
1776,39710,0
1787,39728,0
1769,39691,0
1778,39699,0
1768,39713,0
1766,39725,0
1768,39705,0
1780,39732,0
1791,39700,0
1800,39708,0
1820,39710,0
1836,39723,0
1850,39710,0
1850,39738,0
1852,39712,0
1855,39745,0
1848,39698,0
1845,39719,0
1826,39746,0
1808,39725,0
1804,39738,0
1792,39720,0
1780,39715,0
1770,39731,0
1776,39722,0
1770,39737,0
1785,39726,0
1805,39747,0
1808,39720,0
1840,39723,0
1848,39748,0
1864,39727,0
1872,39750,0
1898,39736,0
1885,39745,0
1898,39715,0
1876,39728,0
1872,39748,0
1858,39736,0
1844,39741,0
1828,39719,0
1808,39761,0
1812,39714,0
1808,39735,0
1800,39763,0
1796,39733,0
1800,39748,0
1812,39730,0
1824,39749,0
1840,39725,0
1856,39726,0
1864,39755,0
1880,39738,0
1898,39757,0
1880,39729,0
1894,39733,0
1892,39745,0
1890,39728,0
1876,39754,0
1866,39734,0
1852,39752,0
1842,39707,0
1828,39724,0
1816,39750,0
1801,39723,0
1814,39745,0
1810,39734,0
1829,39743,0
1840,39724,0
1848,39717,0
1876,39725,0
1882,39717,0
1897,39716,0
1898,39712,0
1904,39700,0
1904,39711,0
1896,39729,0
1880,39714,0
1888,39726,0
1864,39718,0
1852,39721,0
1848,39696,0
1832,39700,0
1834,39701,0
1832,39693,0
1848,39708,0
1856,39667,0
1865,39687,0
1868,39699,0
1892,39680,0
1924,39713,0
1936,39663,0
1936,39672,0
1944,39658,0
1944,39663,0
1944,39689,0
1932,39671,0
1941,39685,0
1912,39637,0
1898,39647,0
1880,39646,0
1880,39658,0
1872,39657,0
1858,39642,0
1860,39650,0
1868,39636,0
1861,39649,0
1876,39622,0
1888,39645,0
1906,39605,0
1928,39616,0
1943,39641,0
1954,39621,0
1970,39618,0
1953,39605,0
1972,39620,0
1960,39573,0
1954,39595,0
1944,39613,0
1924,39585,0
1912,39614,0
1920,39579,0
1916,39588,0
1920,39569,0
1914,39566,0
1908,39590,0
1930,39569,0
1944,39584,0
1952,39554,0
1982,39569,0
1994,39553,0
2004,39547,0
2016,39561,0
2024,39558,0
2024,39571,0
2020,39565,0
2020,39566,0
2010,39510,0
1985,39523,0
1969,39552,0
1954,39531,0
1944,39557,0
1932,39515,0
1940,39526,0
1916,39531,0
1924,39508,0
1928,39530,0
1941,39535,0
1952,39550,0
1968,39507,0
1972,39515,0
1988,39538,0
1992,39508,0
2016,39526,0
2029,39509,0
2022,39512,0
2019,39517,0
2018,39497,0
2024,39524,0
1994,39495,0
1968,39530,0
1961,39487,0
1957,39504,0
1956,39527,0
1944,39513,0
1948,39519,0
1956,39515,0
1964,39515,0
1980,39476,0
1989,39488,0
2008,39525,0
2020,39490,0
2024,39524,0
2028,39501,0
2032,39508,0
2024,39504,0
2012,39494,0
2004,39511,0
1980,39496,0
1976,39521,0
1948,39490,0
1936,39497,0
1922,39498,0
1920,39497,0
1916,39519,0
1928,39501,0
1952,39515,0
1962,39480,0
1984,39499,0
2008,39511,0
2016,39505,0
2028,39528,0
2045,39503,0
2050,39522,0
2056,39495,0
2040,39537,0
2026,39509,0
2008,39531,0
1980,39516,0
1962,39527,0
1952,39510,0
1936,39520,0
1933,39497,0
1920,39515,0
1932,39516,0
1930,39518,0
1955,39534,0
1962,39521,0
1988,39530,0
1996,39508,0
2017,39510,0
2020,39524,0
2048,39510,0
2040,39536,0
2042,39522,0
2052,39549,0
2040,39499,0
2020,39511,0
2004,39547,0
1993,39509,0
1988,39545,0
1974,39524,0
1957,39536,0
1950,39508,0
1957,39520,0
1963,39550,0
1986,39527,0
1964,39537,0
1992,39532,0
2012,39528,0
2026,39540,0
2040,39529,0
2056,39559,0
2046,39542,0
2047,39556,0
2040,39517,0
2032,39532,0
2010,39560,0
2004,39536,0
1976,39556,0
1976,39547,0
1956,39555,0
1960,39521,0
1936,39539,0
1944,39556,0
1946,39534,0
1954,39554,0
1968,39548,0
1992,39559,0
2010,39520,0
2032,39536,0
2040,39575,0
2053,39545,0
2074,39569,0
2058,39549,0
2056,39555,0
2048,39537,0
2024,39550,0
2032,39578,0
2008,39544,0
1992,39549,0
1984,39541,0
1972,39555,0
1968,39548,0
1981,39554,0
1976,39576,0
1984,39549,0
1996,39552,0
2005,39547,0
2024,39549,0
2048,39576,0
2056,39565,0
2064,39577,0
2068,39566,0
2072,39574,0
2047,39557,0
2052,39556,0
2020,39580,0
2008,39565,0
2000,39591,0
2000,39552,0
1992,39571,0
1992,39591,0
1992,39578,0
2000,39591,0
2011,39569,0
2018,39595,0
2036,39564,0
2064,39578,0
2069,39602,0
2112,39574,0
2088,39596,0
2096,39589,0
2092,39610,0
2100,39592,0
2092,39593,0
2080,39606,0
2064,39578,0
2034,39610,0
2032,39584,0
2012,39601,0
2000,39571,0
1999,39594,0
2000,39614,0
2008,39611,0
2001,39611,0
2016,39595,0
2020,39620,0
2048,39590,0
2056,39604,0
2072,39626,0
2080,39606,0
2104,39622,0
2105,39603,0
2101,39627,0
2096,39609,0
2082,39610,0
2066,39625,0
2041,39610,0
2029,39630,0
2020,39597,0
2006,39617,0
2016,39613,0
1996,39617,0
2000,39611,0
2018,39615,0
2017,39603,0
2032,39616,0
2046,39641,0
2058,39611,0
2080,39637,0
2092,39603,0
2092,39609,0
2097,39624,0
2101,39623,0
2096,39629,0
2100,39623,0
2064,39628,0
2058,39614,0
2036,39619,0
2020,39643,0
2008,39624,0
2010,39644,0
2004,39610,0
2026,39625,0
2028,39648,0
2048,39616,0
2048,39642,0
2066,39618,0
2084,39642,0
2088,39612,0
2088,39622,0
2106,39644,0
2100,39627,0
2120,39645,0
2080,39629,0
2069,39629,0
2058,39631,0
2036,39621,0
2032,39628,0
2010,39632,0
2010,39640,0
2008,39628,0
2004,39642,0
2004,39618,0
2016,39630,0
2027,39645,0
2046,39622,0
2064,39638,0
2072,39626,0
2098,39651,0
2108,39601,0
2116,39621,0
2108,39651,0
2114,39622,0
2072,39644,0
2096,39630,0
2096,39640,0
2080,39617,0
2066,39633,0
2056,39661,0
2056,39631,0
2042,39654,0
2038,39636,0
2051,39645,0
2054,39622,0
2080,39623,0
2076,39623,0
2092,39630,0
2090,39641,0
2108,39644,0
2116,39645,0
2112,39614,0
2104,39629,0
2104,39626,0
2098,39623,0
2080,39644,0
2047,39634,0
2046,39655,0
2028,39613,0
2032,39627,0
2016,39652,0
2018,39617,0
2012,39644,0
2032,39628,0
2028,39652,0
2074,39616,0
2074,39630,0
2128,39655,0
2160,39625,0
2177,39648,0
2192,39630,0
2210,39646,0
2220,39609,0
2204,39627,0
2196,39652,0
2196,39625,0
2158,39650,0
2152,39624,0
2116,39632,0
2096,39631,0
2080,39632,0
2082,39635,0
2072,39632,0
2076,39650,0
2072,39629,0
2080,39641,0
2112,39608,0
2124,39627,0
2124,39653,0
2151,39626,0
2148,39650,0
2176,39634,0
2160,39652,0
2164,39624,0
2144,39626,0
2146,39652,0
2112,39642,0
2096,39656,0
2092,39633,0
2088,39633,0
2082,39630,0
2085,39630,0
2076,39651,0
2080,39631,0
2085,39660,0
2084,39624,0
2100,39628,0
2114,39656,0
2133,39631,0
2140,39651,0
2152,39634,0
2156,39652,0
2145,39640,0
2144,39663,0
2134,39663,0
2104,39620,0
2094,39625,0
2080,39664,0
2060,39632,0
2056,39674,0
2052,39648,0
2056,39656,0
2064,39627,0
2060,39634,0
2076,39669,0
2080,39639,0
2112,39660,0
2105,39642,0
2124,39643,0
2156,39642,0
2160,39646,0
2165,39666,0
2154,39657,0
2160,39667,0
2128,39638,0
2123,39645,0
2088,39645,0
2076,39642,0
2072,39656,0
2060,39643,0
2072,39673,0
2056,39669,0
2056,39659,0
2064,39655,0
2080,39653,0
2092,39657,0
2072,39660,0
2105,39656,0
2132,39680,0
2128,39654,0
2140,39675,0
2146,39637,0
2151,39651,0
2138,39659,0
2140,39653,0
2112,39670,0
2096,39662,0
2080,39685,0
2088,39638,0
2056,39650,0
2056,39677,0
2032,39658,0
2064,39677,0
2064,39666,0
2080,39678,0
2096,39643,0
2097,39655,0
2124,39675,0
2122,39660,0
2134,39683,0
2150,39666,0
2148,39684,0
2160,39646,0
2140,39669,0
2118,39663,0
2112,39679,0
2080,39661,0
2076,39665,0
2064,39699,0
2044,39658,0
2060,39686,0
2044,39663,0
2042,39678,0
2040,39653,0
2061,39667,0
2072,39694,0
2104,39669,0
2089,39690,0
2112,39672,0
2108,39692,0
2104,39670,0
2084,39664,0
2066,39704,0
2044,39669,0
2028,39699,0
1996,39674,0
1968,39682,0
1938,39684,0
1920,39673,0
1904,39704,0
1885,39686,0
1873,39699,0
1880,39686,0
1886,39693,0
1908,39685,0
1918,39681,0
1936,39696,0
1968,39695,0
1990,39684,0
2020,39692,0
2047,39705,0
2076,39676,0
2112,39693,0
2132,39711,0
2176,39696,0
2212,39714,0
2304,39686,0
2378,39698,0
2512,39695,0
2624,39689,0
2804,39713,0
2936,39702,0
3152,39723,0
3292,39689,0
3488,39695,0
3660,39717,0
3936,39703,0
4095,39732,0
4095,39709,0
4095,39710,0
4095,39690,0
4095,39697,0
4095,39731,0
4095,39697,0
4095,39721,0
4095,39714,0
4095,39711,0
4095,39708,0
4095,39724,0
4095,39710,0
4095,39711,0
4095,39742,0
4095,39713,0
4095,39738,0
4095,39726,0
4044,39740,0
3952,39694,0
3812,39722,0
3665,39748,0
3480,39730,0
3344,39743,0
3124,39735,0
2976,39737,0
2776,39698,0
2664,39733,0
2505,39753,0
2410,39721,0
2324,39743,0
2288,39718,0
2241,39725,0
2209,39736,0
2185,39729,0
2176,39739,0
2168,39724,0
2154,39750,0
2154,39711,0
2160,39724,0
2160,39748,0
2160,39735,0
2136,39734,0
2120,39746,0
2092,39738,0
2058,39746,0
2016,39737,0
1986,39747,0
1944,39727,0
1906,39756,0
1877,39744,0
1852,39762,0
1832,39719,0
1812,39723,0
1793,39765,0
1796,39751,0
1820,39765,0
1828,39741,0
1832,39763,0
1858,39731,0
1872,39742,0
1874,39764,0
1888,39745,0
1904,39762,0
1896,39745,0
1897,39754,0
1892,39741,0
1873,39743,0
1852,39764,0
1834,39755,0
1814,39767,0
1808,39745,0
1793,39743,0
1793,39755,0
1780,39761,0
1792,39757,0
1790,39769,0
1812,39762,0
1816,39737,0
1837,39779,0
1844,39753,0
1852,39768,0
1856,39750,0
1864,39753,0
1856,39747,0
1864,39758,0
1852,39772,0
1840,39757,0
1828,39771,0
1812,39751,0
1797,39760,0
1788,39758,0
1784,39753,0
1778,39781,0
1784,39756,0
1792,39777,0
1804,39754,0
1828,39756,0
1836,39756,0
1840,39761,0
1857,39773,0
1868,39764,0
1864,39773,0
1882,39741,0
1876,39758,0
1873,39770,0
1860,39771,0
1853,39741,0
1832,39779,0
1824,39756,0
1816,39774,0
1816,39778,0
1800,39745,0
1791,39760,0
1786,39777,0
1802,39758,0
1808,39774,0
1816,39762,0
1832,39784,0
1836,39746,0
1864,39755,0
1880,39775,0
1880,39755,0
1884,39782,0
1890,39760,0
1884,39770,0
1870,39779,0
1864,39762,0
1856,39781,0
1836,39770,0
1824,39796,0
1820,39754,0
1808,39758,0
1804,39779,0
1804,39753,0
1825,39783,0
1828,39775,0
1848,39797,0
1856,39772,0
1860,39789,0
1880,39782,0
1899,39787,0
1912,39786,0
1910,39776,0
1920,39787,0
1904,39767,0
1906,39771,0
1888,39788,0
1868,39787,0
1861,39799,0
1840,39783,0
1832,39780,0
1824,39788,0
1826,39785,0
1812,39791,0
1832,39779,0
1832,39803,0
1850,39772,0
1874,39779,0
1892,39779,0
1904,39785,0
1920,39797,0
1924,39783,0
1936,39813,0
1936,39781,0
1928,39795,0
1916,39775,0
1922,39782,0
1893,39805,0
1860,39811,0
1840,39799,0
1832,39797,0
1840,39779,0
1833,39796,0
1842,39797,0
1858,39812,0
1856,39778,0
1872,39794,0
1898,39818,0
1906,39792,0
1917,39813,0
1944,39789,0
1944,39815,0
1938,39772,0
1941,39798,0
1924,39817,0
1928,39791,0
1904,39816,0
1888,39780,0
1896,39806,0
1890,39821,0
1884,39791,0
1880,39816,0
1888,39797,0
1892,39806,0
1904,39790,0
1916,39778,0
1924,39807,0
1952,39789,0
1960,39807,0
1968,39795,0
1964,39720,0
1968,39807,0
1960,39773,0
1961,39795,0
1952,39789,0
1936,39806,0
1920,39772,0
1910,39778,0
1904,39793,0
1896,39765,0
1888,39796,0
1894,39776,0
1904,39802,0
1920,39747,0
1916,39761,0
1948,39771,0
1952,39750,0
1972,39776,0
1988,39757,0
2000,39776,0
2008,39731,0
2020,39736,0
2020,39758,0
2016,39743,0
2000,39748,0
1984,39726,0
1970,39734,0
1946,39734,0
1928,39723,0
1940,39745,0
1929,39716,0
1932,39742,0
1920,39720,0
1944,39733,0
1952,39715,0
1966,39708,0
1984,39731,0
1994,39702,0
2020,39710,0
2018,39692,0
2036,39688,0
2036,39684,0
2026,39683,0
2033,39693,0
2010,39674,0
2020,39686,0
1986,39668,0
1988,39661,0
1968,39649,0
1969,39654,0
1960,39674,0
1962,39654,0
1964,39669,0
2001,39639,0
2000,39642,0
2016,39645,0
2028,39630,0
2041,39654,0
2060,39627,0
2064,39648,0
2069,39619,0
2081,39632,0
2076,39619,0
2088,39616,0
2047,39635,0
2052,39607,0
2026,39607,0
2020,39606,0
2004,39586,0
1986,39592,0
1992,39613,0
1980,39586,0
1976,39607,0
1988,39593,0
1994,39600,0
2005,39568,0
2024,39587,0
2045,39600,0
2058,39575,0
2080,39594,0
2080,39584,0
2096,39607,0
2084,39558,0
2080,39571,0
2072,39589,0
2088,39566,0
2048,39587,0
2028,39568,0
2024,39586,0
2016,39553,0
2004,39555,0
1992,39577,0
1992,39558,0
2002,39588,0
2004,39556,0
2026,39559,0
2040,39562,0
2056,39555,0
2064,39552,0
2072,39574,0
2072,39537,0
2084,39565,0
2088,39539,0
2080,39550,0
2072,39572,0
2056,39557,0
2038,39561,0
2021,39563,0
2008,39568,0
2000,39541,0
1992,39551,0
1992,39576,0
1988,39548,0
2000,39567,0
2000,39566,0
2024,39580,0
2032,39543,0
2080,39547,0
2080,39560,0
2098,39552,0
2112,39579,0
2112,39549,0
2112,39574,0
2098,39552,0
2077,39561,0
2064,39558,0
2042,39541,0
2048,39583,0
2024,39567,0
2024,39568,0
2008,39568,0
1994,39563,0
2008,39561,0
2013,39557,0
2010,39591,0
2026,39561,0
2040,39585,0
2047,39556,0
2064,39572,0
2095,39549,0
2092,39555,0
2105,39585,0
2096,39564,0
2100,39581,0
2086,39565,0
2072,39575,0
2046,39545,0
2032,39565,0
2009,39589,0
2026,39573,0
2021,39588,0
2016,39572,0
2018,39595,0
2021,39554,0
2052,39581,0
2045,39597,0
2054,39570,0
2080,39600,0
2084,39587,0
2112,39591,0
2096,39575,0
2096,39568,0
2096,39575,0
2082,39573,0
2092,39578,0
2060,39584,0
2046,39604,0
2034,39571,0
2024,39576,0
2016,39588,0
2020,39571,0
2000,39605,0
2002,39573,0
2010,39602,0
2016,39580,0
2036,39598,0
2036,39573,0
2064,39580,0
2072,39604,0
2084,39581,0
2096,39611,0
2122,39580,0
2126,39601,0
2112,39564,0
2100,39583,0
2088,39609,0
2076,39577,0
2045,39605,0
2038,39583,0
2040,39597,0
2028,39571,0
2036,39593,0
2032,39601,0
2032,39609,0
2044,39589,0
2052,39602,0
2064,39619,0
2084,39605,0
2098,39591,0
2100,39599,0
2100,39619,0
2116,39601,0
2112,39619,0
2128,39600,0
2092,39609,0
2088,39586,0
2072,39592,0
2064,39630,0
2036,39594,0
2045,39617,0
2028,39613,0
2028,39627,0
2040,39594,0
2048,39597,0
2056,39627,0
2080,39607,0
2090,39629,0
2112,39596,0
2120,39630,0
2120,39602,0
2130,39606,0
2133,39627,0
2128,39619,0
2132,39633,0
2104,39604,0
2092,39614,0
2080,39625,0
2060,39620,0
2046,39609,0
2037,39643,0
2028,39622,0
2024,39631,0
2032,39617,0
2038,39638,0
2058,39605,0
2075,39616,0
2080,39639,0
2112,39620,0
2106,39634,0
2130,39633,0
2124,39639,0
2144,39607,0
2132,39626,0
2120,39632,0
2116,39627,0
2121,39648,0
2105,39625,0
2100,39653,0
2080,39626,0
2064,39620,0
2064,39634,0
2050,39632,0
2053,39650,0
2059,39634,0
2072,39657,0
2104,39675,0
2122,39659,0
2128,39643,0
2144,39642,0
2146,39631,0
2160,39635,0
2148,39643,0
2144,39625,0
2122,39632,0
2124,39672,0
2096,39641,0
2088,39661,0
2072,39645,0
2080,39661,0
2072,39626,0
2064,39640,0
2060,39673,0
2080,39646,0
2072,39674,0
2096,39656,0
2122,39660,0
2144,39630,0
2148,39654,0
2165,39673,0
2160,39651,0
2163,39677,0
2162,39664,0
2144,39674,0
2130,39648,0
2116,39653,0
2098,39672,0
2096,39664,0
2068,39656,0
2072,39658,0
2080,39661,0
2076,39661,0
2076,39668,0
2088,39679,0
2098,39651,0
2110,39687,0
2116,39646,0
2140,39658,0
2152,39658,0
2156,39656,0
2162,39678,0
2176,39660,0
2160,39683,0
2154,39656,0
2124,39667,0
2136,39646,0
2108,39657,0
2084,39683,0
2072,39649,0
2084,39678,0
2085,39658,0
2080,39681,0
2100,39642,0
2114,39650,0
2122,39668,0
2130,39658,0
2146,39671,0
2170,39654,0
2176,39679,0
2200,39652,0
2176,39656,0
2180,39653,0
2174,39668,0
2168,39657,0
2156,39656,0
2134,39667,0
2120,39643,0
2104,39649,0
2096,39673,0
2080,39653,0
2088,39664,0
2083,39660,0
2088,39670,0
2104,39645,0
2100,39655,0
2112,39669,0
2130,39661,0
2156,39687,0
2144,39666,0
2172,39673,0
2164,39644,0
2186,39654,0
2176,39661,0
2166,39650,0
2156,39681,0
2140,39656,0
2125,39678,0
2104,39650,0
2096,39652,0
2090,39656,0
2093,39652,0
2112,39677,0
2092,39649,0
2114,39646,0
2140,39653,0
2170,39660,0
2192,39665,0
2208,39653,0
2217,39654,0
2228,39647,0
2236,39681,0
2248,39648,0
2228,39678,0
2232,39648,0
2208,39657,0
2200,39663,0
2180,39658,0
2160,39677,0
2148,39656,0
2160,39668,0
2128,39646,0
2128,39656,0
2132,39641,0
2154,39642,0
2176,39671,0
2176,39654,0
2184,39669,0
2210,39649,0
2218,39650,0
2208,39636,0
2206,39652,0
2213,39677,0
2204,39656,0
2208,39672,0
2192,39655,0
2160,39667,0
2160,39675,0
2168,39637,0
2132,39667,0
2128,39669,0
2114,39654,0
2120,39650,0
2116,39670,0
2132,39650,0
2144,39678,0
2164,39647,0
2170,39679,0
2192,39652,0
2208,39661,0
2224,39641,0
2216,39648,0
2224,39683,0
2200,39660,0
2192,39676,0
2176,39667,0
2184,39684,0
2170,39647,0
2144,39650,0
2140,39686,0
2118,39667,0
2114,39685,0
2092,39669,0
2092,39685,0
2112,39649,0
2118,39650,0
2144,39684,0
2156,39672,0
2160,39682,0
2176,39679,0
2178,39661,0
2192,39663,0
2188,39666,0
2184,39693,0
2168,39665,0
2156,39683,0
2136,39676,0
2124,39688,0
2115,39667,0
2096,39667,0
2116,39693,0
2092,39670,0
2104,39690,0
2088,39670,0
2112,39692,0
2112,39657,0
2140,39672,0
2136,39696,0
2180,39664,0
2192,39697,0
2208,39682,0
2212,39700,0
2212,39675,0
2208,39679,0
2186,39678,0
2165,39680,0
2152,39696,0
2136,39681,0
2132,39702,0
2100,39681,0
2100,39695,0
2088,39682,0
2096,39704,0
2096,39710,0
2096,39684,0
2128,39693,0
2128,39686,0
2144,39710,0
2152,39694,0
2176,39718,0
2176,39685,0
2176,39697,0
2194,39687,0
2176,39696,0
2176,39720,0
2154,39693,0
2148,39705,0
2112,39704,0
2105,39721,0
2090,39696,0
2097,39714,0
2088,39678,0
2089,39703,0
2101,39718,0
2097,39692,0
2114,39714,0
2112,39691,0
2113,39715,0
2118,39690,0
2117,39689,0
2124,39699,0
2096,39716,0
2084,39685,0
2056,39696,0
2036,39715,0
2004,39704,0
1972,39726,0
1952,39706,0
1924,39729,0
1904,39705,0
1890,39728,0
1878,39687,0
1871,39708,0
1884,39727,0
1904,39706,0
1922,39732,0
1960,39706,0
1992,39730,0
2032,39696,0
2073,39710,0
2112,39732,0
2136,39715,0
2250,39740,0
2336,39709,0
2412,39733,0
2544,39706,0
2676,39718,0
2836,39708,0
2976,39718,0
3141,39740,0
3328,39707,0
3505,39732,0
3748,39716,0
3839,39699,0
4036,39737,0
4095,39738,0
4095,39718,0
4095,39744,0
4095,39719,0
4095,39722,0
4095,39723,0
4095,39719,0
4095,39745,0
4095,39725,0
4095,39746,0
4095,39727,0
4095,39738,0
4095,39707,0
4095,39720,0
4095,39738,0
4095,39712,0
4095,39745,0
4095,39733,0
4095,39754,0
4095,39726,0
4095,39735,0
4095,39729,0
4076,39725,0
3920,39766,0
3736,39732,0
3472,39755,0
3240,39736,0
3025,39758,0
2806,39712,0
2424,39769,0
2280,39732,0
2160,39752,0
2068,39756,0
2008,39741,0
1973,39731,0
1960,39746,0
1961,39737,0
1960,39758,0
2021,39732,0
2024,39754,0
2061,39735,0
2074,39754,0
2104,39721,0
2108,39742,0
2104,39760,0
2082,39749,0
2080,39764,0
2044,39753,0
2004,39786,0
1984,39736,0
1942,39750,0
1892,39743,0
1864,39740,0
1836,39770,0
1818,39742,0
1810,39773,0
1796,39747,0
1778,39780,0
1802,39731,0
1812,39750,0
1824,39773,0
1840,39769,0
1864,39772,0
1872,39750,0
1884,39753,0
1885,39780,0
1888,39777,0
1881,39749,0
1884,39787,0
1864,39740,0
1842,39750,0
1816,39771,0
1805,39757,0
1797,39791,0
1786,39769,0
1780,39779,0
1784,39760,0
1776,39772,0
1792,39766,0
1808,39764,0
1824,39792,0
1832,39766,0
1852,39794,0
1856,39766,0
1866,39777,0
1876,39747,0
1873,39765,0
1876,39802,0
1858,39771,0
1842,39795,0
1840,39776,0
1808,39796,0
1808,39765,0
1784,39771,0
1776,39788,0
1780,39783,0
1776,39781,0
1786,39787,0
1796,39791,0
1808,39775,0
1832,39802,0
1848,39773,0
1860,39801,0
1872,39773,0
1897,39787,0
1882,39788,0
1902,39768,0
1876,39794,0
1872,39774,0
1856,39811,0
1841,39778,0
1820,39793,0
1808,39785,0
1796,39784,0
1784,39802,0
1784,39773,0
1792,39798,0
1794,39781,0
1808,39795,0
1829,39769,0
1842,39784,0
1861,39801,0
1878,39777,0
1888,39805,0
1896,39787,0
1898,39803,0
1896,39795,0
1882,39811,0
1872,39807,0
1858,39810,0
1830,39804,0
1824,39786,0
1810,39785,0
1772,39777,0
1796,39774,0
1798,39807,0
1798,39787,0
1808,39812,0
1828,39781,0
1820,39814,0
1844,39782,0
1856,39793,0
1880,39772,0
1876,39782,0
1892,39807,0
1884,39785,0
1904,39799,0
1884,39781,0
1873,39816,0
1872,39764,0
1846,39778,0
1842,39805,0
1824,39788,0
1818,39803,0
1816,39791,0
1816,39812,0
1816,39775,0
1816,39782,0
1836,39808,0
1840,39808,0
1868,39793,0
1876,39787,0
1896,39798,0
1906,39800,0
1912,39793,0
1916,39807,0
1916,39793,0
1908,39809,0
1900,39778,0
1892,39798,0
1876,39792,0
1857,39785,0
1844,39815,0
1836,39789,0
1828,39814,0
1836,39794,0
1836,39802,0
1828,39779,0
1856,39785,0
1864,39808,0
1896,39772,0
1892,39815,0
1920,39783,0
1932,39803,0
1932,39772,0
1932,39786,0
1942,39802,0
1920,39783,0
1921,39806,0
1904,39795,0
1876,39776,0
1860,39794,0
1852,39788,0
1846,39774,0
1850,39785,0
1840,39799,0
1844,39781,0
1852,39790,0
1868,39780,0
1880,39808,0
1903,39759,0
1912,39780,0
1936,39771,0
1936,39770,0
1953,39793,0
1944,39774,0
1968,39797,0
1956,39749,0
1944,39766,0
1916,39757,0
1908,39753,0
1901,39781,0
1893,39752,0
1868,39762,0
1873,39744,0
1872,39756,0
1861,39724,0
1866,39735,0
1888,39750,0
1896,39726,0
1920,39750,0
1928,39729,0
1960,39729,0
1952,39725,0
1968,39742,0
1981,39721,0
1985,39712,0
1984,39724,0
1972,39696,0
1956,39725,0
1948,39696,0
1936,39721,0
1917,39694,0
1906,39696,0
1912,39659,0
1900,39674,0
1920,39701,0
1924,39673,0
1936,39692,0
1954,39665,0
1952,39686,0
1978,39656,0
1988,39665,0
2008,39650,0
2024,39644,0
2032,39665,0
2020,39644,0
2034,39660,0
1992,39633,0
1968,39652,0
1964,39607,0
1949,39618,0
1944,39642,0
1928,39619,0
1928,39611,0
1920,39612,0
1936,39604,0
1940,39608,0
1962,39614,0
1972,39604,0
1984,39623,0
2016,39580,0
2012,39585,0
2024,39601,0
2046,39584,0
2036,39604,0
2056,39581,0
2040,39604,0
2040,39559,0
2032,39579,0
2008,39583,0
1980,39568,0
1984,39588,0
