2088
2084
2088
2090
2098
2096
2100
2104
2084
2096
2096
2088
2094
2088
2092
2084
2080
2080
2080
2096
2090
2092
2099
2114
2106
2108
2112
2106
2112
2100
2100
2099
2089
2088
2082
2084
2080
2076
2184
2096
2112
2128
2140
2153
2149
2160
2176
2168
2177
2168
2168
2170
2155
2155
2148
2144
2134
2132
2136
2130
2135
2141
2138
2140
2138
2140
2144
2140
2136
2116
2120
2112
2104
2104
2100
2085
2082
2072
2070
2066
2072
2069
2080
2091
2083
2098
2102
2096
2104
2093
2085
2092
2071
2073
2064
2064
2060
2047
2047
2052
2060
2066
2076
2072
2088
2096
2088
2089
2089
2088
2096
2091
2081
2080
2080
2080
2083
2074
2076
2078
2076
2077
2076
2073
2080
2080
2080
2083
2068
2060
2058
2056
2064
2046
2056
2056
2047
2056
2056
2052
2060
2061
2056
2049
2049
2036
2028
1997
1970
1939
1895
1834
1788
1729
1664
1595
1536
1469
1413
1376
1356
1322
1312
1300
1301
1314
1322
1329
1354
1360
1382
1419
1466
1521
1610
1728
1865
2050
2246
2504
2769
3064
3352
3640
3925
4095
4095
4095
4095
4095
4095
4095
4092
4094
4095
4092
4095
4092
4092
4092
4095
4095
4095
4095
4095
4088
4001
3830
3650
3448
3226
3017
2809
2627
2472
2344
2252
2188
2158
2140
2129
2144
2152
2180
2174
2192
2196
2194
2194
2180
2164
2144
2117
2100
2080
2049
2026
2002
1979
1957
1956
1946
1932
1928
1925
1928
1916
1913
1922
1916
1922
1913
1908
1911
1896
1888
1877
1872
1866
1864
1860
1856
1850
1848
1850
1850
1856
1850
1852
1852
1856
1861
1859
1847
1846
1853
1840
1840
1849
1845
1840
1844
1841
1841
1848
1840
1845
1840
1842
1840
1842
1846
1850
1840
1849
1850
1842
1836
1832
1832
1832
1834
1834
1842
1837
1830
1848
1842
1856
1842
1853
1861
1856
1869
1872
1864
1866
1868
1872
1859
1864
1860
1860
1852
1856
1844
1836
1836
1840
1832
1836
1840
1840
1844
1842
1837
1848
1840
1850
1856
1840
1850
1844
1836
1838
1842
1828
1837
1832
1841
1834
1852
1856
1858
1860
1864
1865
1864
1868
1868
1862
1860
1856
1856
1840
1851
1845
1839
1836
1848
1856
1848
1860
1861
1872
1868
1869
1868
1870
1869
1873
1874
1873
1873
1868
1874
1944
1877
1880
1888
1896
1904
1884
1906
1912
1915
1924
1925
1932
1933
1933
1933
1936
1937
1944
1949
1956
1963
1964
1974
1984
1986
2002
2001
2012
2025
2016
2016
2028
2034
2032
2036
2036
2032
2032
2036
2032
2048
2048
2054
2056
2070
2074
2086
2096
2100
2105
2106
2112
2112
2112
2106
2102
2098
2090
2087
2096
2100
2092
2096
2098
2104
2112
2108
2112
2112
2116
2113
2120
2116
2124
2116
2104
2097
2084
2092
2080
2081
2081
2080
2082
2089
2100
2102
2102
2116
2097
2105
2098
2114
2092
2084
2080
2060
2056
2046
2047
2040
2053
2056
2064
2060
2064
2073
2074
2072
2076
2072
2065
2062
2056
2058
2056
2041
2034
2036
2025
2026
2033
2036
2054
2050
2047
2064
2058
2072
2064
2064
2064
2066
2064
2056
2052
2036
2036
2026
2028
2025
2016
2028
2032
2040
2064
2068
2072
2080
2084
2086
2093
2093
2084
2076
2072
2068
2047
2040
2040
2044
2040
2040
2046
2047
2056
2066
2072
2068
2064
2074
2074
2070
2064
2054
2048
2041
2033
2034
2032
2024
2026
2020
2032
2042
2048
2050
2070
2064
2060
2064
2072
2066
2066
2068
2052
2040
2042
2044
2032
2026
2048
2037
2038
2037
2058
2056
2060
2066
2066
2080
2080
2083
2070
2072
2080
2062
2051
2050
2034
2032
2036
2042
2034
2047
2047
2047
2060
2064
2072
2080
2076
2068
2068
2061
2056
2061
2042
2040
2036
2032
2032
2038
2049
2056
2058
2074
2087
2088
2094
2098
2100
2096
2096
2092
2092
2088
2076
2080
2070
2072
2076
2074
2092
2093
2090
2084
2089
2091
2098
2093
2096
2096
2102
2085
2082
2080
2088
2086
2088
2096
2080
2088
2088
2105
2096
2088
2097
2096
2096
2098
2096
2096
2096
2088
2088
2076
2080
2082
2082
2067
2082
2085
2086
2097
2102
2104
2104
2112
2112
2104
2106
2091
2099
2097
2084
2082
2068
2056
2064
2066
2066
2068
2072
2084
2090
2098
2112
2112
2122
2124
2122
2121
2121
2120
2102
2099
2096
2103
2096
2100
2096
2089
2096
2106
2102
2112
2112
2116
2106
2104
2104
2106
2112
2104
2092
2092
2096
2096
2096
2096
2104
2118
2116
2132
2137
2144
2157
2169
2176
2182
2182
2192
2176
2185
2176
2166
2153
2144
2144
2140
2128
2128
2136
2140
2144
2152
2148
2148
2160
2160
2168
2160
2157
2150
2140
2132
2120
2112
2105
2106
2108
2107
2105
2112
2112
2112
2120
2116
2121
2120
2120
2120
2112
2096
2096
2088
2082
2076
2074
2080
2088
2096
2116
2120
2130
2117
2134
2136
2058
2140
2144
2137
2134
2122
2116
2105
2104
2093
2094
2084
2093
2101
2112
2114
2112
2116
2114
2120
2120
2116
2121
2120
2106
2104
2106
2101
2080
2082
2085
2088
2086
2096
2096
2112
2112
2114
2112
2112
2100
2089
2065
2027
2005
1960
1908
1863
1802
1754
1688
1640
1584
1530
1480
1434
1400
1368
1332
1315
1313
1306
1303
1305
1323
1331
1361
1399
1449
1516
1613
1732
1892
2077
2308
2568
2848
3128
3424
3728
3932
4080
4092
4095
4092
4095
4095
4095
4092
4095
4095
4095
4095
4095
4095
4095
4095
4095
4095
4095
4095
4095
4095
3994
3841
3640
3425
3189
2969
2764
2576
2424
2300
2212
2160
2128
2136
2137
2180
2184
2192
2212
2228
2248
2236
2228
2196
2177
2154
2128
2104
2086
2072
2058
2048
2018
2024
2013
2004
1996
1988
1978
1968
1957
1944
1933
1922
1916
1912
1913
1916
1916
1912
1922
1926
1950
1944
1939
1944
1938
1940
1936
1929
1909
1897
1889
1877
1856
1862
1861
1859
1864
1864
1872
1884
1884
1896
1898
1900
1896
1904
1905
1896
1900
1884
1880
1868
1859
1845
1844
1844
1842
1848
1865
1876
1870
1864
1875
1884
1891
1896
1888
1877
1864
1866
1847
1852
1840
1829
1824
1828
1828
1836
1844
1848
1848
1860
1864
1868
1877
1877
1876
1876
1870
1856
1851
1840
1840
1828
1834
1834
1826
1845
1842
1856
1876
1868
1876
1872
1873
1874
1864
1858
1856
1849
1836
1828
1824
1818
1816
1824
1832
1829
1844
1848
1858
1864
1828
1873
1867
1867
1863
1858
1854
1848
1834
1824
1820
1816
1809
1808
1820
1826
1840
1848
1848
1856
1860
1864
1860
1860
1864
1864
1860
1852
1844
1833
1837
1845
1840
1849
1852
1864
1876
1888
1890
1904
1910
1920
1922
1928
1928
1928
1928
1928
1924
1921
1914
1924
1928
1940
1944
1956
1972
1986
2002
2012
2013
2038
2030
2032
2032
2036
2041
2037
2040
2025
2024
2028
2034
2033
2051
2052
2064
2073
2082
2080
2088
2096
2096
2096
2084
2096
2084
2080
2076
2072
2075
2061
2064
2064
2070
2082
2092
2092
2096
2100
2112
2112
2112
2108
2107
2108
2100
2096
2080
2068
2064
2060
2042
2047
2047
2064
2068
2072
2076
2080
2084
2090
2089
2089
2085
2072
2072
2066
2052
2052
2032
2032
2032
2048
2036
2048
2052
2056
2064
2049
2064
2058
2060
2056
2064
2047
2044
2036
2032
2028
2024
2024
2028
2036
2041
2053
2061
2072
2080
2088
2080
2082
2077
2082
2089
2080
2069
2058
2048
2048
2037
2037
2034
2036
2042
2037
2042
2047
2057
2068
2064
2066
2064
2165
2072
2060
2068
2058
2056
2052
2048
2040
2041
2048
2048
2052
2056
2064
2068
2069
2073
2080
2085
2080
2308
2076
2070
2060
2040
2064
2040
2036
2044
2036
2056
2056
2064
2084
2085
2080
2084
2086
2088
2088
2088
2082
2066
2058
2062
2052
2048
2048
2041
2050
2059
2072
2073
2080
2075
2072
2088
2080
2088
2084
2080
2072
2066
2066
2052
2048
2048
2036
2033
2040
2052
2056
2058
2058
2073
2062
2080
2082
2080
2070
2072
2064
2053
2037
2034
2022
2020
2016
2016
2021
2028
2032
2018
2047
2058
2068
2068
2085
2083
2084
2080
2073
2072
2064
2054
2057
2051
2040
2052
2053
2056
2067
2080
2076
2074
2088
2082
2082
2084
2072
2080
2072
2058
2064
2044
2040
2032
2036
2044
2040
2060
2060
2064
2069
2075
2080
2084
2086
2089
2088
2080
2080
2083
2068
2056
2064
2052
2056
2056
2050
2058
2056
2072
2068
2085
2081
2072
2084
2084
2088
2088
2074
2074
2072
2052
2064
2048
2050
2048
2060
2061
2061
2072
2073
2077
2097
2085
2090
2091
2090
2086
2080
2074
2056
2052
2047
2040
2044
2045
2047
2068
2076
2088
2080
2096
2106
2100
2112
2101
2108
2098
2092
2088
2076
2070
2067
2059
2057
2066
2074
2084
2088
2096
2096
1968
2104
2104
2108
2106
2100
2104
2092
2084
2080
2080
2068
2064
2058
2060
2064
2075
2072
2080
2085
2084
2102
2100
2109
2112
2125
2124
2131
2136
2130
2138
2132
2136
2124
2128
2128
2132
2133
2136
2140
2140
2138
2144
2156
2155
2148
2154
2141
2139
2130
2116
2122
2116
2116
2120
2125
2131
2136
2136
2137
2139
2144
2128
2130
2126
2113
2104
2096
2084
2080
2072
2068
2072
2068
2072
2092
2086
2093
2096
2105
2116
2116
2124
2119
2124
2125
2124
2116
2114
2105
2105
2098
2088
2099
2093
2098
2104
2100
2108
2116
2122
2124
2128
2120
2124
2128
2124
2122
2128
2112
2104
2104
2099
2112
2104
2098
2113
2107
2122
2128
2133
2126
2136
2131
2131
2133
2124
2112
2106
2080
2064
2056
2034
2104
2000
1976
1948
1912
1872
1828
1772
1721
1660
1588
1530
1468
1424
1365
1318
1274
1226
1202
1178
1170
1172
1184
1216
1264
1304
1386
1474
1608
1752
1940
2156
2400
2664
2944
3240
3528
3864
4095
4095
4095
4095
4095
4095
4095
4095
4095
4095
4095
4095
4095
4095
4095
4095
4095
4095
4095
4095
4095
4095
4072
4044
3944
3776
3580
3360
3124
2896
2688
2522
2380
2254
2168
2120
2085
2082
2096
2123
2144
2176
2208
2228
2240
2256
2258
2254
2242
2232
2208
2228
2162
2137
2104
2080
2052
2028
2004
1988
1970
1964
1956
1960
1964
1964
1960
1964
1964
1976
1980
1985
1984
1973
1978
1964
1956
1952
1934
1920
1910
1909
1899
1908
1900
1906
1913
1916
1916
1920
1924
1919
1928
1921
1916
1920
1908
1904
1892
1888
1874
1865
1862
1868
1872
1878
1888
1886
1898
1908
1904
1907
1904
1908
1905
1900
1883
1875
1866
1856
1848
1844
1840
1844
1848
1856
1860
1864
1872
1870
1873
1880
1880
1875
1876
1866
1861
1842
1840
1819
1816
1816
1816
1819
1815
1824
1836
1833
1841
1848
1850
1856
1860
1852
1864
1848
1840
1826
1808
1802
1798
1792
1792
1796
1812
1817
1816
1834
1838
1836
1844
1856
1843
1840
1836
1820
1813
1796
1799
1781
1786
1770
1786
1790
1796
1802
1817
1816
1820
1836
1848
1844
1856
1849
1848
1837
1832
1824
1809
1802
1792
1794
1792
1808
1812
1824
1837
1845
1862
1876
1883
1894
1904
1895
1897
1893
1889
1880
1873
1874
1864
1872
1876
1876
1893
1910
1924
1933
1950
1961
1972
1984
1991
1988
1984
1984
1977
1964
1960
1952
1944
1953
1952
1964
1973
1988
2004
2017
2020
2040
2058
2064
2068
2074
2066
2064
2068
2058
2054
2040
2040
2048
2050
2048
2064
2080
2088
2092
2100
2104
2112
2112
2117
2121
2102
2093
2080
2064
2046
2040
2032
2034
2034
2040
2056
2064
2064
2076
2082
2085
2089
2092
2086
2084
2072
2064
2059
2032
2017
2014
2010
2005
2006
2008
2020
2028
2029
2037
2056
2052
2056
2056
2056
2056
2047
2040
2028
2018
2004
2000
1996
1994
1996
2005
2000
2008
2024
2036
2041
2048
2052
2054
2048
2053
2048
2037
2033
2022
2016
2001
2006
2012
2001
2008
2016
2028
2034
2047
2056
2056
2058
2064
2064
2064
2056
2054
2041
2017
2017
2004
2004
2000
2011
2006
2016
2033
2032
2048
2056
2064
2064
2060
2056
2058
2040
2036
2020
2012
2002
1994
2000
1996
1996
2008
2018
2034
2040
2052
2067
2072
2074
2072
2072
2067
2053
2056
2040
2028
2016
2011
2008
2008
2003
2012
2010
2027
2033
2040
2044
2047
2056
2056
2046
2044
2044
2032
2032
2016
2016
2012
2017
2017
2028
2024
2042
2048
2064
2070
2072
2070
2077
2075
2080
2068
2064
2054
2048
2031
2012
2009
2008
2008
2000
2024
2026
2028
2040
2048
2060
2060
2066
2076
2065
2058
2054
2048
2033
2020
2016
2012
2010
2009
2022
2024
2037
2049
2056
2058
2074
2080
2070
2072
2065
2068
2064
2047
2042
2026
2024
2016
2028
2017
2026
2027
2048
2042
2064
2057
2065
2076
2071
2072
2080
2073
2065
2061
2041
2040
2032
2022
2024
2024
2026
2036
2047
2047
2068
2068
2084
2080
2084
2092
2096
2086
2084
2082
2066
2061
2056
2056
2048
2049
2050
2067
2080
2084
2084
2096
2108
2106
2107
2113
2104
2099
2084
2088
2080
2064
2056
2047
2056
2047
2064
2064
2076
2088
2093
2101
2101
2104
2104
2113
2102
2099
2088
2074
2068
2057
2058
2052
2049
2064
2060
2073
2080
2090
2084
2090
2100
2098
2104
2096
2100
2096
2097
2096
2096
2088
2084
2080
2072
2085
2084
2088
2090
2100
2103
2113
2114
2118
2124
2120
2112
2104
2096
2092
2080
2077
2072
2064
2064
2074
2088
2100
2112
2124
2144
2168
2168
2176
2196
2186
2184
2180
2166
2152
2150
2137
2125
2121
2119
2122
2126
2130
2137
2138
2153
2145
2152
2156
2144
2152
2140
2130
2124
2112
2090
2088
2080
2076
2073
2074
2072
2083
2089
2096
2100
2106
2116
2112
2107
2105
2114
2102
2104
2100
2084
2072
2080
2072
2069
2068
2066
2084
2082
2090
2098
2112
2112
2124
2120
2122
2128
2123
2116
2102
2089
2086
2066
2061
2057
2061
2061
2069
2080
2077
2092
2083
2097
2107
2093
2099
2088
2091
2076
2068
2064
2056
2056
2044
2044
2047
2047
2056
2064
2064
2056
2052
2056
2040
2026
1990
1962
1908
1861
1810
1744
1677
1607
1544
1481
1425
1381
1338
1312
1281
1282
1266
1256
1258
1262
1277
1290
1312
1350
1381
1440
1531
1650
1807
2005
2246
2504
2800
3092
3402
3716
4004
4095
4095
4095
4095
4095
4095
4095
4095
4095
4095
4095
4095
4094
4095
4092
4095
4092
4088
4092
4095
4095
4095
4000
3841
3640
3403
3168
2932
2717
2514
2354
2229
2137
2098
2065
2058
2080
2098
2134
2160
2193
2200
2204
2208
2192
2178
2152
2122
2092
2057
2028
2000
1984
1970
1958
1946
1941
1942
1952
1952
1949
1946
1948
1937
1942
1936
1927
1926
1900
1890
1884
1880
1874
1877
1888
1888
1884
1888
1888
1896
1897
1892
1892
1892
1888
1876
1862
1861
1848
1841
1836
1842
1837
1844
1844
1848
1864
1870
1870
1874
1869
1873
1869
1868
1865
1856
1841
1836
1820
1816
1804
1808
1812
1818
1818
1832
1832
1845
1848
1868
1864
1865
1866
1870
1857
1856
1840
1833
1816
1810
1804
1804
1802
1808
1820
1814
1832
1837
1850
1860
1856
1868
1868
1864
1862
1860
1841
1816
1814
1804
1792
1793
1792
1800
1808
1816
1833
1840
1856
1858
1860
1868
1870
1872
1858
1852
1844
1835
1825
1816
1816
1712
1818
1832
1828
1840
1860
1864
1868
1872
1880
1888
1888
1884
1881
1884
1868
1867
1852
1858
1849
1856
1844
1860
1856
1872
1877
1896
1904
1906
1916
1925
1918
1920
1916
1912
1908
1912
1892
1888
1888
1896
1900
1912
1921
1940
1961
1970
1980
1992
2000
2010
2013
2016
2008
2010
2008
1998
1994
1978
1978
1986
1984
1989
2004
2010
2024
2040
2060
2064
2076
2085
2088
2100
2104
2099
2099
2096
2083
2084
2080
2081
2084
2093
2098
2114
2117
2128
2136
2136
2139
2146
2144
2138
2129
2128
2100
2096
2080
2080
2072
2069
2072
2080
2088
2088
2104
2112
2120
2122
2128
2128
2124
2118
2108
2102
2085
2072
2065
2053
2048
2050
2048
2064
2068
2080
2088
2090
2092
2090
2084
2084
2096
2096
2084
2080
2064
2052
2040
2028
2025
2025
2028
2032
2034
2048
2054
2059
2062
2072
2072
2076
2074
2072
2066
2065
2050
2041
2048
2038
2024
2024
2032
2032
2036
2044
2046
2060
2068
2072
2082
2085
2080
2077
2072
2068
2048
2041
2028
2020
2017
2016
2021
2036
2038
2048
2066
2068
2080
2082
2092
2088
2072
2076
2064
2065
2052
2037
2026
2024
2016
2020
2021
2040
2050
2053
2065
2070
2080
2081
2084
2088
2082
2074
2070
2062
2052
2050
2040
2037
2028
2030
2037
2048
2047
2064
2064
2068
2072
2080
2080
2076
2064
2060
2056
2052
2036
2064
2013
2005
2002
2005
2010
2020
2023
2026
2048
2050
2060
2058
2064
2072
2066
2060
2052
2048
2032
2024
2010
2012
2016
2004
2108
2028
2036
2044
2056
2059
2064
2064
2058
2056
2064
2060
2048
2039
2035
2028
2016
2010
2009
2012
2032
2026
2048
2057
2068
2068
2080
2080
2084
2092
2092
2072
2068
2056
2045
2032
2028
2026
2016
2026
2024
2030
2040
2064
2057
2080
2080
2096
2091
2097
2100
2086
2101
2080
2073
2061
2060
2048
2036
2032
2032
2042
2041
2044
2052
2056
2064
2068
2080
2072
2080
2081
2066
2066
2058
2051
2048
2036
2036
2053
2050
2058
2064
2070
2075
2084
2096
2090
2104
2088
2080
2080
2064
2064
2047
2040
2032
2032
2036
2048
2048
2058
2068
2086
2089
2109
2104
2120
2116
2112
2115
2105
2088
2083
2073
2054
2053
2048
2048
2040
2060
2066
2057
2072
2088
2092
2104
2108
2112
2113
2108
2128
2124
2114
2104
2102
2092
2101
2106
2112
2122
2129
2137
2144
2148
2160
2157
2164
2161
2160
2148
2144
2132
2122
2104
2096
2080
2076
2072
2068
2065
2064
2080
2074
2090
2093
2096
2096
2101
2102
2096
2097
2091
2080
2072
2065
2061
2058
2055
2057
2067
2068
2072
2092
2098
2112
2100
2096
2096
2096
2090
2080
2080
2068
2064
2056
2058
2048
2048
2060
2074
2081
2088
2101
2112
2126
2128
2131
2130
2131
2128
2118
2112
2096
2082
2075
2048
2050
2040
2040
2042
2040
2064
2064
2065
2064
2080
2084
2100
2088
2089
2080
2066
2052
2040
2024
1997
1973
1953
1933
1902
1876
1829
1777
1725
1675
1632
1561
1514
1457
1424
1388
1356
1324
1308
1304
1304
1312
1333
1338
1378
1412
1461
1511
1594
1688
1804
1960
2136
2362
2597
2853
3120
3402
3680
3942
4095
4095
4095
4095
4095
4095
4095
4094
4095
4094
4094
4095
4092
4094
4092
4095
4095
4095
4095
4095
4066
3936
3784
3588
3392
3184
2977
2800
2616
2469
2357
2280
2223
2184
2156
2160
2156
2168
2160
2176
2180
2192
2180
2172
2168
2152
2144
2140
2124
2092
2075
2065
2050
2016
1996
1978
1953
1938
1920
1906
1893
1883
1885
1884
1901
1896
1905
1923
1925
1925
1929
1928
2000
1924
1924
1904
1892
1880
1860
1856
1842
1830
1836
1851
1837
1849
1848
1858
1870
1869
1873
1874
1878
1873
1868
1862
1853
1842
1836
1825
1824
1828
1820
1832
1830
1836
1844
1848
1852
1856
1858
1864
1848
1849
1844
1840
1829
1808
1808
1795
1800
1800
1798
1800
1812
1824
1834
1841
1851
1858
1862
1864
1861
1860
1860
1860
1848
1826
1816
1808
1800
1800
1800
1796
1808
1816
1826
1836
1852
1848
1851
1862
1864
1862
1856
1848
1834
1826
1813
1805
1800
1793
1797
1804
1810
1812
1828
1834
1840
1842
1856
1854
1852
1840
1846
1840
1825
1824
1809
1808
1792
1798
1792
1804
1810
1828
1841
1849
1858
1869
1875
1874
1889
1875
1881
1864
1860
1845
1828
1828
1832
1828
1834
1840
1844
1856
1872
1872
1896
1896
1907
1908
1916
1924
1928
1920
1922
1914
1912
1912
1913
1916
1925
1936
1954
1959
1968
1973
1988
2011
2004
2010
2016
2016
2012
2008
2000
2000
1988
1985
2000
2001
2008
2010
2017
2035
2048
2066
2076
2085
2085
2092
2112
2107
2105
2097
2090
2078
2068
2080
2064
2060
2056
2060
2064
2080
2080
2096
2088
2096
2104
2097
2104
2096
2081
2080
2065
2051
2041
2033
2028
2023
2022
2048
2037
2048
2060
2072
2067
2076
2080
2064
2074
2068
2056
2040
2044
2024
2012
2008
2000
2008
2000
2016
2018
2041
2048
2053
2064
2064
2068
2072
2065
2058
2052
2041
2024
2016
2008
2004
1997
1994
1997
2004
2016
2020
2036
2034
2040
2064
2052
2060
2064
2047
2044
2040
2028
2036
2018
2009
2005
2002
2009
2028
2033
2033
2048
2064
2066
2067
2077
2068
2068
2066
2058
2051
2040
2020
2016
2002
2004
2012
2006
2024
2020
2032
2041
2045
2052
2060
2064
2064
2064
2061
2052
2049
2036
2032
2026
2028
2016
2025
2020
2026
2034
2040
2048
2048
2060
2057
2052
2052
2056
2052
2044
2042
2032
2024
2018
2016
2010
2011
2016
2032
2033
2036
2042
2060
2070
2072
2068
2069
2072
2064
2064
2053
2038
2048
2028
2020
2016
2032
2034
2034
2040
2046
2047
2064
2064
2072
2080
2082
2082
2080
2067
2064
2052
2039
2029
2026
2025
2029
2028
2034
2036
2052
2060
2072
2080
2082
2080
2088
2088
2085
2060
2060
2047
2041
2028
2032
2024
2024
2040
2048
2056
2067
2077
2083
2082
2094
2096
2102
2092
2090
2086
2080
2064
2060
2051
2058
2048
2048
2050
2060
2065
2082
2080
2080
2088
2084
2100
2096
2088
2080
2084
2072
2056
2052
2040
2040
2040
2040
2040
2050
2057
2064
2076
2082
2090
2096
2096
2100
2091
2084
2073
2072
2060
2052
2040
2038
2036
2036
2040
2056
2056
2069
2074
2084
2096
2096
2093
2100
2100
2084
2088
2074
2067
2060
2054
2064
2048
2049
2055
2064
2068
2072
2074
2089
2092
2093
2092
2092
2092
2088
2080
2072
2064
2058
2044
2056
2049
2048
2048
2059
2061
2082
2072
2091
2086
2098
2100
2096
2088
2089
2088
2064
2056
2050
2048
2048
2048
2064
2064
2074
2088
2114
2120
2136
2148
2154
2168
2168
2168
2166
2153
2136
2128
2120
2098
2094
2097
2096
2093
2108
2118
2135
2133
2141
2147
2145
2149
2158
2144
2136
2120
2097
2092
2084
2066
2060
2080
2064
2066
2073
2080
2081
2085
2085
2096
2099
2104
2096
2099
2084
2080
2073
2058
2058
2048
2048
2048
2056
2060
2067
2080
2082
2090
2096
2097
2092
2096
2097
2096
2084
2080
2064
2064
2050
2032
2030
2034
2036
2034
2051
2064
2060
2069
2081
2080
2097
2084
2086
2090
2088
2076
2064
2054
2048
2032
2024
2024
2032
2041
2044
2056
2047
2058
2068
2060
2060
2048
2024
1988
1963
1913
1862
1800
1732
1668
1604
1539
1473
1419
1371
1328
1291
1261
1240
1224
1213
1226
1226
1233
1244
1256
1272
1322
1376
1450
1568
1705
1909
2132
2393
2668
2982
3280
3593
3894
4095
4095
4095
4095
4095
4095
4095
4095
4095
4095
4095
4095
4095
4095
4095
4094
4090
4095
4092
4090
4080
4080
4084
4000
3817
3592
3371
3112
2866
2645
2445
2292
2176
2099
2048
2029
2024
2034
2054
2088
2124
2146
2161
2166
2164
2146
2129
2104
2072
2044
2024
2000
1984
1962
1944
1930
1931
1914
1913
1909
1901
1898
1881
1890
1877
1877
1860
1848
1840
1828
1822
1824
1824
1826
1834
1818
1830
1834
1840
1842
1842
1828
1836
1824
1810
1816
1793
1776
1772
1760
1762
1763
1762
1776
1785
1800
1794
1801
1811
1808
1814
1802
1808
1795
1792
1777
1769
1752
1753
1748
1760
1760
1752
1760
1768
1784
1792
1800
1812
1810
1813
1811
1797
1792
1781
1781
1763
1755
1756
1752
1744
1748
1762
1749
1770
1771
1779
1788
1793
1808
1798
1804
1804
1800
1789
1776
1772
1760
1748
1756
1754
1750
1760
1763
1766
1778
1784
1786
1792
1798
1800
1802
1789
1792
1777
1774
1762
1752
1754
1732
1742
1752
1746
1760
1776
1780
1784
1791
1800
1796
1800
1796
1796
1788
1777
1771
1766
1753
1739
1746
1742
1747
1760
1771
1777
1778
1797
1809
1798
1802
1805
1816
1814
1809
1805
1810
1788
1780
1780
1784
1784
1790
1808
1884
1816
1832
1842
1860
1865
1868
1884
1892
1892
1893
1894
1879
1877
1877
1873
1878
1884
1886
1897
1913
1921
1929
1940
1948
1954
1968
1974
1972
1984
1986
1985
1984
1984
1984
1988
1985
1984
1989
1992
2008
2016
2022
2041
2048
2048
2064
2064
2070
2064
2067
2052
2048
2032
2024
2024
2016
2020
2018
2024
2036
2036
2056
2060
2056
2072
2069
2069
2068
2064
2056
2048
2029
2026
2016
2008
2009
1998
2001
2001
2016
2022
2032
2036
2032
2038
2036
2048
2040
2032
2020
2016
2008
1992
1988
1978
1976
1976
1984
1987
1994
2001
2012
2022
2032
2021
2033
2028
2022
2023
2020
2005
1998
1980
1970
1969
1972
1969
1976
1984
1988
1996
2002
2020
2025
2016
2032
2024
2028
2026
2036
2019
2012
1996
1980
1972
1974
1980
1986
1986
1991
2005
2008
2013
2020
2024
2025
2022
2017
2016
2016
1991
1988
1984
1976
1972
1961
1972
1976
1992
1986
2000
2008
2018
2024
2024
2032
2026
2032
2024
2021
2008
2001
1984
1972
1960
1964
1968
1964
1974
1974
1986
2000
2006
2012
2008
2016
2012
2016
2012
2008
2000
1988
1978
1970
1959
1960
1960
1956
1969
1977
1984
1993
1994
2006
2013
2010
2021
2016
2008
2003
2000
1988
1977
1973
1968
1968
1976
1978
1984
1996
2008
2012
2021
2024
2036
2040
2040
2037
2023
2022
2016
1996
1989
1980
1984
1976
1972
1985
1989
1997
1993
2006
2024
2030
2035
2038
2048
2036
2032
2020
2036
2004
2000
1992
1980
1978
1984
2000
2001
2000
2010
2016
2029
2038
2032
2028
2041
2032
2029
2026
2025
2009
2005
1990
1986
1992
1988
1996
1998
2006
2008
2028
2026
2029
2036
2036
2042
2032
2032
2028
2021
2022
2004
2005
1989
1996
1993
2001
2010
2016
2017
2022
2025
2035
2038
2048
2053
2048
2048
2034
2025
2004
2018
1996
1992
1992
2008
2008
2008
2016
2028
2040
2048
2056
2067
2061
2054
2056
2048
2033
2019
2024
2004
1998
1994
2003
1995
2016
2017
2027
2036
2048
2052
2056
2056
2056
2058
2140
2046
2040
2024
2016
2008
2008
2000
1996
2000
2016
2018
2028
2048
2048
2066
2073
2080
2074
2065
2069
2072
2061
2048
2048
2025
2024
2020
2008
2004
2008
2008
2012
2020
2021
2032
2044
2040
2064
2060
2069
2065
2074
2072
2076
2068
2072
2068
2067
2076
2073
2086
2076
2096
2096
2089
2100
2089
2096
2098
2084
2080
2080
2064
2064
2042
2040
2028
2032
2044
2058
2050
2058
2059
2056
2062
2072
2064
2053
2058
2048
2048
2032
2020
2016
2008
2004
2000
2016
2012
2022
2032
2036
2036
2056
2047
2057
2058
2058
2064
2052
2044
2040
2023
2019
2025
2002
2004
2001
2012
2016
2036
2048
2051
2069
2060
2073
2068
2076
2069
2073
2061
2052
2049
2032
2024
2016
2020
2016
2004
2016
2032
2032
2052
2052
2061
2065
2065
2069
2064
2048
2052
2037
2017
1996
1985
1964
1944
1924
1904
1880
1849
1812
1764
1722
1664
1616
1568
1498
1436
1384
1322
1274
1236
1189
1144
1114
1104
1110
1120
1153
1186
1226
1301
1396
1496
1643
1824
2032
2283
2544
2829
3121
3411
3712
4004
4095
4095
4092
4094
4092
4095
4095
4095
4095
4095
4095
4095
4095
4095
4095
4095
4095
4095
4095
4095
4095
4095
4006
3830
3625
3394
3144
2914
2693
2500
2338
2216
2112
2048
2004
1992
1992
2004
2020
2056
2065
2080
2100
2120
2130
2120
2112
2096
2076
2064
2040
2017
1988
1966
1936
1912
1897
1868
1848
1838
1826
1824
1819
1830
1832
1842
1849
1858
1864
1868
1868
1866
1864
1860
1856
1840
1824
1796
1788
1792
1773
1766
1764
1764
1777
1785
1792
1804
1811
1803
1824
1816
1814
1812
1804
1797
1780
1776
1756
1760
1748
1746
1748
1754
1760
1776
1780
1784
1794
1800
1800
1808
1809
1814
1796
1787
1780
1768
1756
1748
1749
1747
1752
1752
1766
1768
1776
1779
1788
1800
1808
1808
1804
1800
1797
1791
1784
1768
1756
1744
1741
1744
1744
1752
1760
1766
1780
1787
1793
1808
1800
1805
1797
1798
1792
1781
1769
1765
1758
1745
1740
1736
1752
1752
1752
1772
1772
1777
1788
1796
1801
1796
1797
1793
1792
1779
1770
1757
1756
1752
1749
1755
1762
1764
1782
1785
1792
1803
1813
1812
1814
1819
1816
1816
1816
1804
1804
1788
1778
1776
1781
1784
1780
1793
1800
1809
1821
1833
1841
1849
1850
1862
1865
1865
1862
1857
1851
1847
1840
1838
1841
1846
1856
1860
1881
1893
1900
1912
1928
1936
1948
1952
1952
1956
1954
1940
1944
1939
1936
1933
1934
1940
1972
1968
1969
1994
2003
2010
2025
2036
2036
2040
2048
2042
2032
2024
2017
2005
2002
2004
1992
1992
2008
2016
2024
2024
2040
2044
2056
2060
2056
2056
2070
2049
2040
2041
2036
2016
2004
2001
1996
2000
2000
2010
2020
2024
2032
2034
2052
2048
2042
2036
2032
2028
2018
2004
1996
1984
1970
1976
1968
1972
1970
1976
1981
1984
1996
1994
1996
1996
2000
1997
1988
1997
1987
1979
1970
1968
1960
1962
1957
1973
1970
1968
1976
1988
1996
1992
2000
2008
2004
2015
2005
1998
1989
1985
1975
1968
1958
1958
1952
1956
1960
1966
1984
1989
1985
1997
2010
2011
2017
2006
2012
1997
1992
1984
1968
1972
1961
1956
1956
1954
1960
1968
1984
1980
1996
1992
2003
2008
2006
2004
2000
1997
1990
1988
1976
1960
1954
1958
1958
1954
1962
1974
1984
1985
1988
2004
2004
2016
2012
2020
2016
2008
2000
1988
1988
1964
1968
1960
1960
1963
1968
1984
1988
1994
2000
2004
2006
2009
2018
2006
2016
1998
1995
1989
1980
1968
1956
1968
1972
1968
1968
1986
1992
2002
2008
2018
2026
2027
2027
2026
2020
2011
2008
1995
1996
1977
1971
1970
1973
1972
1989
1988
2011
2016
2030
2034
2038
2048
2046
2045
2045
2036
2036
2016
2016
2004
2001
1988
1984
1984
1990
1995
2009
2012
2020
2029
2041
2048
2048
2048
2053
2039
2048
2022
2016
2008
2005
2008
2006
2011
2016
2016
2029
2042
2044
2047
2064
2064
2064
2068
2064
2064
2055
2048
2040
2032
2029
2022
2025
2032
2048
2048
2060
2064
2076
2082
2080
2097
2100
2085
2074
2073
2064
2047
2038
2040
2028
2020
2024
2034
2044
2060
2064
2080
2080
2088
2084
2085
2096
2082
2082
2068
2052
2048
2032
2020
2025
2016
2019
2028
2040
2037
2060
2064
2074
2072
2088
2088
2084
2076
2080
2084
2072
2064
2060
2048
2050
2048
2048
2040
2056
2061
2075
2076
2088
2086
2104
2097
2106
2100
2092
2084
2082
2076
2054
2059
2044
2047
2044
2040
2060
2064
2064
2080
2080
2088
2112
2100
2105
2103
2096
2094
2088
2072
2069
2068
2058
2060
2061
2068
2075
2081
2086
2099
2108
2114
2116
2136
2128
2132
2128
2128
2128
2132
2124
2120
2112
2122
2120
2128
2132
2134
2138
2149
2160
2165
2168
2176
2170
2166
2162
2154
2133
2128
2109
2098
2096
2085
2084
2084
2076
2080
2089
2096
2096
2092
2092
2106
2100
2112
2100
2112
2096
2084
2081
2072
2073
2080
2077
2082
2076
2084
2100
2106
2112
2114
2112
2121
2123
2124
2128
2114
2100
2092
2088
2080
2080
2076
2080
2088
2092
2088
2112
2112
2124
2126
2125
2128
2124
2131
2118
2112
2092
2085
2080
2072
2072
2072
2070
2082
2080
2092
2104
2112
2108
2114
2124
2121
2132
2108
2092
2073
1988
2032
2005
1972
1941
1905
1866
1832
1792
1740
1691
1659
1597
1537
1491
1445
1412
1380
1345
1324
1318
1320
1305
1318
1352
1376
1422
1449
1506
1586
1680
1800
1956
2160
2384
2632
2900
3180
3465
3738
4000
4095
4095
4095
4095
4095
4095
4095
4095
4095
4095
4095
4095
4095
4095
4095
4094
3928
4092
4088
4072
4048
3952
3808
3640
3488
3280
3072
2869
2678
2530
2396
2308
2245
2200
2180
2177
2182
2192
2203
2208
2216
2216
2209
2224
2190
2176
2158
2136
2112
2098
2084
2060
2040
2028
2018
2000
1984
1986
1964
1946
1940
1914
1908
1904
1902
1908
1914
1920
1920
1937
1951
1939
1944
1942
1939
1933
1916
1912
1901
1888
1874
1868
1856
1852
1836
1852
1857
1866
1880
1888
1884
1892
1900
1899
1904
1896
1895
1888
1873
1869
1859
1844
1845
1840
1840
1850
1859
1861
1883
1878
1888
1892
1900
1896
1898
1892
1888
1876
1868
1864
1850
1840
1836
1834
1834
1845
1837
1864
1851
1869
1872
1872
1883
1885
1888
1880
1885
1882
1864
1856
1856
1833
1835
1824
1832
1828
1832
1840
1854
1856
1864
1872
1876
1872
1884
1880
1874
1868
1853
1846
1840
1829
1825
1826
1834
1834
1840
1841
1856
1866
1868
1868
1878
1884
1872
1888
1876
1872
1864
1856
1848
1840
1848
1840
1845
1848
1856
1864
1874
1885
1882
1890
1896
1895
1914
1904
1901
1888
1880
1873
1867
1864
1864
1861
1873
1876
1888
1904
1914
1928
1944
1952
1961
1964
1969
1970
1972
1972
1957
1964
1941
1936
1938
1938
1948
1952
1960
1978
1993
2001
2024
2028
2041
2050
2052
2064
2066
2068
2058
2052
2042
2036
2047
2038
2047
2058
2066
2066
2089
2106
2105
2116
2128
2138
2144
2134
2130
2122
2121
2113
2104
2093
2092
2088
2084
2092
2092
2112
2120
2128
2134
2128
2132
2128
2128
2120
2120
2202
2096
2092
2084
2072
2080
2074
2073
2076
2088
2112
2100
2116
2114
2128
2126
2125
2118
2119
2114
2100
2093
2072
2060
2056
2037
2032
2028
2032
2047
2046
2056
2064
2080
2084
2098
2104
2099
2112
2100
2106
2084
2076
2071
2060
2064
2054
2060
2060
2068
2072
2088
2098
2100
2114
2112
2116
2118
2108
2104
2096
2090
2084
2080
2066
2064
2060
2064
2073
2080
2091
2092
2103
2099
2112
2112
2104
2112
2106
2104
2090
2090
2076
2069
2064
2064
2057
2060
2068
2080
2076
2080
2096
2096
2104
2106
2112
2112
2112
2100
2104
2090
2088
2083
2080
2068
2072
2080
2080
2085
2092
2114
2120
2136
2134
2137
2134
2151
2136
2122
2116
2103
2090
2080
2064
2066
2072
2072
2072
2080
2088
2100
2106
2117
2116
2116
2124
2115
2112
2108
2101
2088
2085
2068
2075
2064
2065
2068
2084
2093
2098
2099
2114
2125
2122
2124
2128
2128
2128
2116
2100
2104
2088
2096
2090
2081
2080
2085
2097
2101
2112
2117
2117
2126
2132
2129
2144
2141
2134
2129
2112
2107
2092
2090
2088
2084
2072
2076
2088
2088
2096
2100
2112
2124
2122
2130
2134
2130
2129
2128
2116
2101
2104
2090
2086
2091
2089
2084
2112
2115
2124
2124
2130
2137
2150
2151
2153
2148
2148
2130
2116
2120
2100
2100
2092
2089
2098
2104
2112
2128
2137
2144
2145
2150
2160
2160
2157
2165
2160
2149
2144
2132
2123
2122
2112
2107
2112
2118
2128
2125
2128
2136
2144
2144
2152
2152
2149
2154
2152
2146
2144
2131
2119
2114
2106
2112
2104
2108
2121
2134
2133
2147
2153
2162
2161
2160
2176
2166
2165
2160
2149
2144
2128
2120
2128
2112
2104
2116
2116
2120
2136
2144
2150
2155
2164
2160
2168
2171
2160
2154
2153
2133
2128
2118
2131
2120
2119
2128
2137
2149
2155
2168
2180
2184
2176
2180
2180
2174
2172
2160
2152
2144
2136
2120
2128
2122
2125
2137
2134
2144
2144
2155
2164
2168
2169
2180
2176
2182
2192
2184
2182
2184
2184
2189
2188
2186
2176
2176
2186
2188
2196
2200
2200
2208
2208
2224
2218
2212
2220
2212
2194
2194
2176
2168
2164
2160
2157
2160
2160
2165
2166
2176
2186
2183
2179
2176
2168
2161
2144
2140
2136
2128
2120
2112
2112
2112
2112
2128
2144
2144
2150
2164
2154
2168
2165
2179
2176
2169
2158
2144
2139
2129
2114
2120
2112
2117
2120
2117
2130
2141
2137
2144
2148
2152
2148
2032
2160
2154
2148
2144
2133
2134
2113
2112
2105
2104
2121
2122
2125
2136
2145
2148
2149
2160
2156
2164
2153
2146
2132
2134
2112
2112
2080
2064
2056
2032
2016
1996
1972
1944
1901
1860
1814
1757
1701
1632
1573
1517
1456
1411
1357
1320
1292
1256
1242
1248
1251
1264
1307
1336
1384
1444
1522
1632
1752
1908
2096
2306
2548
2808
3084
3362
3640
3968
4095
4095
4095
4095
4095
4095
4095
4095
4095
4095
4095
4095
4095
4095
4095
4095
4095
4095
4095
4095
4095
4095
4000
3872
3708
3504
3288
3070
2862
2668
2500
2378
2272
2194
2138
2112
2088
2096
2106
2133
2144
2178
2186
2200
2208
2200
2197
2182
2176
2144
2128
2098
2074
2048
2016
1986
1972
1952
1930
1916
1916
1916
1909
1920
1928
1920
1926
1931
1936
1934
1928
1929
1920
1912
1893
1881
1864
1852
1856
1840
1840
1836
1837
1836
1856
1858
1864
1876
1884
1890
1884
1888
1888
1880
1872
1856
1844
1846
1833
1820
1820
1828
1820
1828
1832
1838
1845
1847
1849
1862
1858
1864
1852
1846
1840
1833
1821
1814
1810
1808
1800
1804
1808
1824
1829
1840
1848
1856
1868
1882
1873
1869
1872
1863
1856
1835
1827
1820
1808
1797
1795
1797
1795
1808
1819
1824
1828
1840
1844
1848
1852
1844
1852
1845
1842
1836
1824
1808
1794
1784
1792
1797
1797
1804
1820
1824
1833
1845
1851
1856
1856
1852
1856
1853
1835
1830
1824
1812
1804
1796
1794
1792
1802
1800
1812
1820
1828
1832
1828
1840
1840
1848
1836
1833
1832
1836
1816
1824
1810
1812
1820
1814
1815
1837
1840
1857
1867
1874
1888
1896
1891
1900
1904
1897
1892
1890
1881
1892
1880
1888
1884
1893
1900
1928
1936
1947
1968
1972
2000
1997
2016
2020
2016
2003
2012
2009
1998
1988
2000
1985
2001
2001
2012
2033
2036
2036
2046
2064
2060
2080
2090
2084
2080
2084
2072
2080
2068
2068
2068
2080
2076
2082
2090
2099
2108
2117
2126
2130
2132
2131
2128
2117
2128
2112
2098
2089
2080
2074
2057
2047
2058
2052
2065
2080
2084
2092
2092
2116
2120
2114
2116
2105
2112
2098
2082
2080
2060
2058
2048
2048
2053
2049
2056
2057
2072
2069
2074
2080
2082
2098
2084
2092
2088
2076
2080
2064
2046
2040
2028
2032
2036
2026
2033
2048
2053
2057
2072
2075
2082
2085
2086
2084
2092
2086
2077
2066
2056
2048
2048
2032
2040
2036
2056
2056
2056
2064
2072
2074
2076
2081
2088
2084
2088
2073
2075
2058
2040
2040
2040
2036
2040
2048
2051
2065
2070
2080
2081
2092
2084
2098
2096
2096
2088
2072
2056
2060
2040
2038
2032
2032
2026
2040
2046
2050
2064
2070
2074
2088
2088
2090
2098
2088
2086
2080
2075
2068
2059
2050
2048
2048
2050
2052
2057
2068
2064
2072
2072
2080
2080
2088
2082
2080
2080
2072
2056
2048
2048
2048
2035
2030
2037
2041
2048
2048
2056
2060
2066
2073
2080
2088
2090
2080
2068
2069
2058
2051
2036
2036
2024
2020
2025
2032
2034
2052
2056
2056
2076
2080
2082
2093
2090
2090
2088
2090
2070
2075
2056
2048
2048
2040
2048
2035
2048
2064
2064
2073
2084
2092
2096
2099
2096
2088
2088
2073
2068
2058
2044
2040
2042
2036
2040
2054
2061
2068
2082
2080
2100
2106
2112
2114
2115
2117
2101
2100
2096
2082
2080
2067
2064
2064
2064
2064
2064
2074
2076
2088
2096
2098
2106
2100
2116
2116
2128
2104
2112
2096
2088
2080
2072
2076
2080
2085
2092
2096
2104
2054
2112
2128
2117
2120
2112
2113
2112
2106
2080
2073
2080
2068
2068
2068
2076
2088
2084
2100
2104
2122
2122
2134
2137
2128
2120
2132
2121
2112
2104
2088
2084
2076
2072
2067
2073
2088
2088
2101
2104
2112
2114
2116
2122
2128
2128
2120
2112
2104
2096
2096
2082
2066
2074
2069
2072
2081
2090
2096
2104
2117
2120
2129
2130
2139
2128
2136
2116
2112
2100
2096
2080
2074
2076
2072
2076
2072
2088
2098
2108
2112
2112
2128
2136
2136
2136
2128
2128
2118
2100
2112
2092
2088
2084
2088
2085
2096
2112
2102
2116
2124
2132
2120
2136
2138
2128
2128
2122
2108
2108
2101
2098
2100
2112
2120
2132
2149
2161
2176
2194
2196
2208
2208
2198
2204
2188
2190
2182
2169
2160
2146
2132
2129
2125
2130
2138
2139
2146
2153
2164
2168
2172
2168
2176
2172
2165
2168
2152
2140
2126
2104
2097
2088
2082
2091
2100
2099
2112
2120
2134
2138
2152
2154
2152
2153
2146
2145
2136
2124
2109
2096
2084
2080
2076
2072
2076
2080
2088
2100
2128
2129
2123
2144
2133
2136
2133
2122
2113
2103
2093
2081
2070
2064
2060
2068
2064
2072
2088
2084
2096
2108
2108
2114
2104
2112
2104
2104
2104
2096
2184
2084
2080
2073
2067
2070
2072
2066
2064
2056
2064
2048
2022
1997
1953
1910
1868
1808
1738
1666
1594
1513
1448
1388
1344
1314
1264
1242
1234
1217
1206
1213
1228
1232
1260
1294
1348
1414
1504
1633
1796
2000
2232
2490
2787
3080
3392
3712
4008
4095
4095
4095
4095
4095
4095
4095
4094
4092
4095
4092
4095
4095
4095
4095
4094
4095
4095
4095
4095
4095
4095
4095
4068
3914
3728
3506
3266
3016
2784
2572
2392
2246
2146
2076
2037
2028
2036
2064
2096
2132
2170
2204
2224
2224
2216
2220
2192
2172
2144
2106
2088
2037
2008
1984
1976
1957
1946
1928
1936
1929
1931
1932
1944
1948
1947
1952
1932
1936
1920
1900
1888
1872
1872
1848
1854
1848
1856
1860
1856
1864
1872
1874
1872
1879
1875
1872
1864
1863
1864
1845
1833
1835
1816
1816
1813
1824
1830
1830
1832
1842
1845
1860
1864
1864
1864
1866
1860
1844
1844
1832
1828
1816
1812
1808
1804
1802
1818
1825
1834
1838
1845
1852
1856
1864
1856
1857
1852
1846
1840
1829
1824
1805
1808
1811
1812
1809
1820
1824
1840
1832
1845
1852
1856
1860
1865
1860
1849
1835
1829
1813
1804
1797
1793
1797
1792
1805
1810
1820
1826
1846
1856
1860
1858
1866
1866
1864
1854
1850
1832
1817
1820
1804
1804
1796
1808
1808
1808
1824
1824
1828
1844
1844
1850
1851
1848
1864
1856
1845
1838
1828
1819
1824
1817
1813
1828
1832
1842
1852
1858
1868
1884
1880
1880
1888
1892
1900
1896
1888
1880
1872
1880
1880
1872
1872
1882
1888
1904
1920
1930
1944
1954
1961
1968
1972
1978
1972
1984
1974
1964
1959
1960
1954
1952
1956
1960
1972
1984
2004
2004
2024
2034
2050
2050
2054
2068
2061
2064
2054
2056
2048
2040
2034
2037
2037
2048
2048
2061
2076
2084
2097
2108
2105
2112
2112
2116
2112
2116
2112
2096
2092
2080
2080
2081
2082
2082
2084
2085
2092
2112
2117
2124
2121
2128
2124
2128
2122
2106
2104
2088
2086
2080
2064
2058
2054
2056
2047
2056
2052
2144
2052
2064
2068
2072
2064
2068
2064
2064
2060
2038
2040
2032
2020
2029
2029
2025
2030
2034
2048
2048
2048
2059
2068
2073
2064
2080
2068
2064
2053
2042
2034
2024
2016
2008
2008
2008
2012
2032
2032
2036
2052
2060
2065
2068
2076
2081
2066
2064
2069
2048
2042
2026
2033
2017
2016
2016
2022
2024
2021
2024
2032
2044
2040
2052
2040
2042
2044
2036
2032
2028
2025
2012
2008
2008
2003
2004
2008
2027
2034
2034
2048
2042
2051
2058
2066
2059
2052
2049
2037
2033
2013
2008
1988
1988
1992
1996
2000
2012
2020
2028
2032
2056
2059
2060
2056
2054
2051
2049
2048
2028
2016
2013
2002
2006
2006
2008
2016
2026
2038
2038
2041
2054
2052
2060
2047
2044
2044
2038
2172
2024
2004
2008
2000
2008
2007
2009
2016
2024
2040
2034
2053
2052
2056
2053
2069
2066
2050
2052
2040
2032
2013
2009
2004
2004
2008
2002
2010
2020
2034
2042
2056
2064
2064
2072
2080
2080
2080
2072
2059
2056
2040
2022
2026
2012
2009
2008
2012
2012
2018
2048
2048
2051
2069
2056
2064
2066
2065
2056
2044
2036
2032
2022
2016
2020
2016
2024
2032
2048
2048
2064
2071
2085
2085
2091
2086
2088
2082
2076
2060
2052
2037
2048
2027
2026
2028
2036
2036
2048
2048
2056
2068
2064
2074
2084
2080
2082
2080
2074
2072
2080
2064
2048
2048
2048
2048
2048
2052
2060
2066
2064
2076
2080
2080
2074
2082
2066
2074
2053
2048
2038
2033
2016
2026
2020
2024
2026
2032
2040
2058
2060
2072
2084
2076
2075
2088
2080
2076
2072
2058
2052
2048
2048
2030
2040
2040
2048
2053
2061
2076
2083
2081
2096
2088
2088
2072
2068
2068
2064
2053
2047
2040
2034
2032
2036
2020
2033
2036
2053
2068
2080
2072
2084
2092
2096
2101
2090
2096
2088
2076
2060
2048
2048
2040
2048
2029
2036
2036
2047
2056
2066
2068
2084
2088
2092
2089
2100
2082
2086
2080
2070
2066
2048
2040
2048
2048
2051
2054
2057
2064
2069
2086
2085
2102
2113
2117
2122
2115
2120
2112
2112
2100
2092
2084
2088
2088
2100
2100
2112
2124
2124
2144
2132
2144
2149
2150
2141
2137
2128
2117
2104
2098
2084
2080
2069
2069
2076
2064
2074
2077
2072
2072
2080
2080
2080
2088
2080
2072
2066
2056
2048
2036
2038
2036
2034
2048
2056
2058
2069
2076
2086
2080
2112
2102
2124
2104
2099
2096
2089
2072
2061
2064
2034
2044
2046
2047
2052
2068
2080
2084
2092
2100
2104
2118
2112
2099
2102
2102
2096
2068
2064
2049
2048
2038
2048
2048
2052
2051
2064
2072
2080
2084
2096
2100
2090
2092
2072
2058
2024
2000
1968
1940
1896
1852
1813
1765
1717
1669
1614
1568
1518
1472
1430
1400
1363
1339
1309
1299
1283
1281
1269
1268
1289
1305
1348
1396
1476
1576
1684
1840
2040
2264
2512
2776
3058
3380
3680
3958
4095
4095
4095
4095
4095
4095
4095
4095
4095
4095
4095
4095
4095
4095
4095
4095
4095
4095
4095
4095
4056
3992
3860
3680
3484
3272
3060
2848
2664
2528
2388
2297
2224
2176
2145
2145
2153
2165
2182
2196
2200
2204
2198
2189
2176
2160
2137
2118
2101
2080
2064
2052
2028
2010
1996
1992
1976
1976
1960
1948
1938
1924
1920
1916
1909
1894
1891
1892
1905
1900
1908
1901
1910
1906
1897
1901
1892
1894
1881
1872
1857
1841
1832
1825
1824
1824
1824
1824
1832
1840
1848
1856
1862
1872
1876
1884
1891
1893
1882
1874
1866
1853
1840
1827
1820
1818
1818
1819
1824
1829
1834
1838
1843
1853
1864
1866
1864
1866
1854
1848
1842
1830
1820
1810
1804
1800
1796
1797
1801
1806
1816
1832
1834
1832
1834
1843
1852
1851
1846
1841
1836
1832
1821
1827
1813
1824
1810
1812
1817
1836
1848
1844
1858
1858
1856
1864
1864
1857
1864
1849
1840
1833
1828
1817
1812
1814
1812
1817
1821
1836
1835
1842
1850
1860
1868
1868
1868
1868
1864
1848
1850
1840
1834
1826
1828
1826
1824
1836
1836
1845
1860
1864
1865
1876
1873
1892
1896
1893
1896
1900
1896
1889
1883
1876
1877
1877
1876
1896
1896
1899
1912
1920
1924
1928
1940
1948
1940
1952
1944
1940
1944
1944
1936
1933
1934
1930
1944
1954
1968
1970
1984
1996
2007
2009
2030
2033
2048
2037
2048
2036
2040
2037
2032
2048
2036
2040
2052
2064
2080
2088
2096
2108
2112
2136
2124
2125
2120
2112
2112
2092
2088
2074
2060
2050
2051
2065
2061
2061
2070
2075
2090
2098
2104
2105
2112
2113
2104
2108
2104
2100
2084
2070
2064
2053
2058
2056
2050
2050
2070
2060
2073
2072
2074
2080
2073
2073
2058
2060
2052
2036
2034
2026
2019
2008
2008
2013
2026
2019
2032
2042
2047
2068
2060
2064
2064
2066
2060
2064
2040
2033
2022
2022
2008
2000
2010
2006
2010
2026
2034
2050
2054
2064
2073
2073
2082
2080
2074
2068
2058
2050
2028
2028
2012
2000
2004
2000
2008
2000
2008
2028
2048
2057
2060
2069
2080
2080
2080
2074
2070
2062
2051
2048
2029
2020
2016
2014
2025
2029
2036
2034
2040
2050
2052
2066
2064
2068
2064
2064
2047
2044
2036
2040
2028
2032
2022
2016
2033
2041
2048
2049
2064
2074
2076
2081
2084
2086
2080
2074
2066
2057
2048
2027
2025
2019
2016
2010
2010
2016
2047
2037
2052
2060
2064
2072
2076
2074
2084
2080
2064
2057
2050
2048
2029
2021
2028
2029
2037
2032
2048
2048
2052
2065
2069
2068
2073
2068
2058
2056
2045
2038
2032
2020
2009
2016
2012
2016
2024
2032
2049
2048
2064
2062
2080
2080
2073
2074
2074
2061
2064
2060
2048
2040
2036
2038
2032
2048
2048
2049
2047
1960
2072
2084
2088
2096
2096
2100
2096
2096
2096
2084
2069
2058
2064
2048
2056
2056
2064
2060
2064
2076
2085
2080
2097
2088
2105
2093
2097
2096
2088
2080
2056
2058
2047
2047
2047
2042
2052
2052
2064
2072
2082
2088
2091
2100
2098
2086
2096
2080
2074
2072
2064
2064
2052
2040
2052
2056
2058
2072
2088
2088
2096
2106
2104
2100
2112
2096
2084
2084
2072
2066
2047
2037
2040
2048
2049
2051
2050
2054
2074
2083
2088
2096
2102
2107
2108
2104
2104
2096
2087
2080
2066
2064
2048
2049
2044
2047
2052
2064
2074
2080
2088
2096
2104
2106
2132
2123
2132
2106
2106
2092
2086
2080
2074
2068
2073
2080
2083
2076
2084
2093
2096
2112
2118
2120
2121
2116
2108
2100
2100
2100
2096
2092
2096
2096
2112
2130
2138
2148
2164
2169
2176
2196
2188
2198
2190
2177
2177
2176
2160
2144
2144
2130
2114
2113
2112
2117
2118
2132
2128
2130
2136
2136
2136
2140
2128
2128
2120
2114
2100
2085
2075
2064
2070
2066
2058
2066
2057
2070
2084
2085
2096
2105
2108
2112
2116
2117
2116
2113
2104
2092
2080
2072
2060
2060
2064
2064
2064
2080
2092
2105
2112
2116
2124
2129
2122
2126
2112
2114
2104
2098
2084
2086
2073
2074
2068
2076
2085
2093
2100
2099
2114
2118
2112
2148
2112
2124
2108
2100
2100
2084
2072
2080
2058
2053
2048
2048
2041
2038
2028
2003
1984
1964
1937
1898
1846
1788
1724
1660
1592
1536
1464
1403
1355
1313
1312
1292
1290
1296
1308
1313
1408
1356
1376
1402
1457
1497
1584
1666
1804
1962
2168
2396
2665
2945
3234
3529
3840
4095
4095
4095
4095
4095
4095
4095
4095
4095
4088
4092
4094
4095
4095
4094
4095
4094
4092
4095
4095
4095
4095
4024
3878
3692
3490
3268
3044
2838
2640
2482
2336
2240
2161
2128
2097
2098
2108
2128
2161
2181
2200
2216
2220
2224
2208
2192
2168
2144
2120
2090
2052
1955
1984
1957
1945
1923
1912
1913
1920
1920
1928
1924
1938
1948
1936
1941
1948
1936
1924
1911
1904
1889
1872
1860
1856
1844
1848
1860
1860
1858
1864
1884
1888
1888
1888
1894
1893
1888
1884
1868
1856
1848
1840
1821
1812
1808
1808
1811
1824
1828
1842
1842
1856
1864
1864
1872
1872
1865
1866
1858
1860
1825
1816
1810
1816
1806
1825
1814
1818
1826
1833
1846
1849
1856
1860
1861
1858
1852
1852
1842
1824
1824
1805
1810
1808
1802
1796
1808
1808
1820
1826
1844
1840
1852
1856
1848
1848
1844
1836
1834
1816
1808
1810
1801
1792
1796
1796
1809
1808
1811
1824
1825
1834
1838
1845
1849
1842
1850
1832
1836
1820
1816
1808
1800
1791
1797
1804
1802
1802
1813
1825
1833
1836
1844
1856
1845
1852
1853
1841
1832
1828
1822
1814
1808
1812
1809
1816
1828
1836
1840
1852
1856
1876
1870
1876
1880
1880
1888
1888
1874
1861
1856
1853
1872
1856
1874
1878
1880
1901
1916
1926
1942
1953
1968
1969
1976
1978
1978
1979
1969
1964
1961
1957
1952
1948
1956
1962
1968
1984
2000
1996
2016
2016
2036
2039
2053
2048
2053
2054
2053
2048
2041
2040
2038
2048
2048
2056
2066
2074
2088
2098
2102
2112
2113
2100
2104
2104
2096
2088
2088
2068
2066
2064
2052
2056
2058
2050
2053
2073
2074
2081
2089
2090
2100
2101
2100
2098
2085
2072
2072
2062
2041
2048
2019
2024
2020
2020
2024
2040
2040
2052
2057
2072
2068
2072
2080
2084
2074
2070
2053
2032
2025
2018
2011
2007
2012
2012
2028
2029
2036
2048
2059
2064
2080
2077
2080
2080
2081
2064
2057
1960
2052
2032
2032
2032
2028
2032
2044
2056
2058
2076
2076
2088
2092
2092
2098
2097
2089
2082
2073
2066
2057
2051
2034
2036
2037
2041
2048
2052
2048
2064
2058
2060
2068
2068
2072
2081
2064
2060
2064
2052
2048
2036
2036
2021
2026
2038
2041
2049
2053
2064
2073
2080
2080
2080
2085
2080
2072
2064
2061
2048
2037
2028
2024
2036
2032
2032
2044
2056
2064
2056
2072
2072
2076
2081
2076
2080
2069
2053
2048
2029
2028
2025
2025
2012
2024
2040
2037
2048
2064
2067
2072
2075
2081
2080
2076
2074
2058
2047
2047
2032
2032
2018
2024
2010
2016
2021
2024
2033
2053
2050
2071
2068
2067
2086
2081
2070
2077
2064
2055
2048
2039
2034
2027
2028
2042
2040
2041
2057
2056
2072
2072
2076
2080
2088
2084
2080
2068
2073
2048
2053
2036
2036
2029
2028
2033
2049
2042
2060
2059
2080
2080
2081
2082
2088
2083
2076
2068
2060
2052
2036
2036
2032
2024
2032
2032
2044
2056
2072
2068
2080
2093
2101
2092
2101
2099
2092
2085
2074
2070
2060
2048
2038
2037
2035
2042
2052
2056
2072
2090
2084
2098
2102
2100
2100
2101
2100
2080
2076
2072
2066
2060
2054
2054
2041
2051
2057
2065
2081
2090
2092
2102
2108
2108
2120
2104
2101
2097
2084
2082
2064
2056
2056
2056
2044
2060
2056
2072
2084
2104
2100
2116
2128
2128
2136
2128
2124
2120
2112
2104
2093
2085
2064
2080
2070
2080
2091
2084
2101
2104
2112
2112
2116
2124
2124
2122
2116
2104
2104
2088
2080
2076
2072
2068
2076
2077
2074
2093
2093
2106
2112
2122
2118
2124
2124
2118
2112
2104
2097
2084
2077
2075
2064
2074
2066
2072
2080
2072
2088
2104
2112
2114
2120
2130
2132
2136
2128
2130
2112
2102
2090
2077
2080
2080
2080
2088
2094
2104
2106
2122
2131
2136
2141
2148
2145
2138
2130
2130
2108
2104
2092
2090
2084
2072
2080
2072
2088
2090
2096
2114
2118
2125
2135
2138
2152
2155
2152
2154
2161
2146
2148
2149
2147
2147
2154
2156
2162
2169
2170
2176
2174
2168
2168
2168
2184
2172
2164
2162
2164
2156
2152
2139
2144
2128
2132
2133
2144
2152
2152
2163
2163
2157
2150
2160
2148
2139
2130
2125
2124
2112
2104
2096
2080
2084
2084
2096
2096
2096
2112
2120
2128
2128
2152
2144
2141
2128
2130
2116
2106
2096
2088
2081
2080
2080
2082
2087
2097
2104
2115
2124
2123
2136
2136
2138
2130
2116
2128
2108
2098
2088
2080
2076
2068
2080
2082
2094
2104
2107
2117
2128
2136
2136
2139
2145
2147
2128
2130
2120
2114
2096
2082
2066
2054
2037
2032
2005
1982
1952
1912
1872
1840
1788
1716
1658
1596
1520
1457
1377
1321
1265
1232
1179
1152
1140
1144
1155
1179
1222
1259
1328
1405
1508
1634
1793
1985
2208
2456
2729
2872
3264
3560
3836
4080
4094
4095
4095
4095
4095
4095
4095
4095
4095
4095
4095
4095
4095
4095
4095
4095
4095
4095
4095
4095
4095
4095
4095
4008
3842
3640
3404
3120
2896
2688
2504
2352
2232
2152
2088
2058
2044
2064
2072
2105
2134
2160
2176
2209
2202
2210
2201
2185
2180
2152
2126
2099
2069
2033
2002
1972
1952
1928
1912
1900
1897
1892
1904
1904
1914
1924
1924
1924
1924
1932
1923
1932
1908
1905
1888
1872
1850
1841
1832
1820
1828
1833
1844
1864
1864
1866
1880
1885
1892
1884
1880
1884
1868
1864
1860
1834
1824
1816
1812
1808
1810
1812
1824
1828
1844
1852
1862
1868
1880
1876
1874
1875
1868
1858
1842
1828
1821
1810
1805
1806
1812
1806
1816
1818
1840
1840
1856
1853
1856
1852
1858
1856
1852
1840
1836
1824
1813
1805
1800
1792
1798
1808
1816
1821
1831
1836
1840
1841
1859
1849
1851
1844
1838
1834
1834
1824
1816
1796
1801
1804
1804
1816
1813
1832
1832
1840
1854
1846
1856
1849
1844
1844
1848
1837
1818
1803
1804
1786
1782
1792
1784
1792
1811
1819
1817
1830
1835
1832
1841
1848
1842
1848
1842
1836
1828
1818
1808
1813
1813
1801
1816
1812
1819
1841
1857
1865
1870
1881
1888
1896
1896
1892
1885
1888
1878
1862
1864
1880
1861
1872
1888
1896
1909
1920
1929
1945
1952
1961
1976
1988
1988
1989
1985
1986
1988
1970
1962
1968
1976
1989
1994
1989
2008
2012
2024
2040
2038
2060
2064
2068
2080
2072
2068
2080
2066
2064
2064
2056
2056
2056
2072
2088
2089
2106
2112
2125
2133
2139
2138
2133
2137
2134
2133
2122
2101
2096
2089
2081
2084
2084
2088
2096
2102
2100
2104
2112
2114
2112
2116
2104
2100
2100
2088
2092
2073
2064
2049
2039
2048
2032
2034
2038
2053
2058
2061
2080
2080
2084
2080
2092
2084
2074
2064
2057
2048
2030
2017
2018
2004
2008
2012
2024
2036
2040
2046
2060
2056
2064
2064
2080
2076
2064
2070
2053
2038
2033
2025
2008
2013
2013
2021
2021
2034
2048
2056
2068
2080
2076
2064
2076
2068
2069
2060
2052
2040
2040
2026
2032
2026
2024
2035
2040
2048
2057
2068
2066
2072
2074
2076
2085
2074
2076
2072
2060
2054
2029
2032
2020
2012
2014
2024
2032
2036
2044
2056
2064
2080
2180
2080
2084
2070
2070
2064
2052
2049
2034
2021
2024
2029
2033
2032
2048
2048
2062
2067
2084
2082
2087
2080
2086
2084
2072
2068
2064
2058
2032
2032
2018
2028
2024
2028
2048
2052
2054
2071
2072
2085
2092
2088
2096
2088
2080
2070
2070
2061
2048
2048
2030
2032
2038
2040
2058
2073
2066
2072
2080
2082
2088
2092
2096
2084
2092
2088
2080
2074
2052
2041
2032
2041
2048
2048
2056
2056
2074
2085
2092
2090
2092
2107
2096
2108
2093
2092
2088
2069
2056
2046
2042
2032
2036
2041
2047
2064
2076
2096
2104
2100
2112
2113
2120
2123
2116
2104
2096
2092
2072
2069
2065
2064
2052
2062
2076
2069
2088
2098
2106
2116
2104
2104
2112
2108
2100
2092
2080
2072
2064
2052
2053
2056
2066
2061
2080
2082
2096
2113
2112
2124
2125
2131
2134
2124
2120
2112
2104
2092
2074
2080
2064
2065
2064
2064
2076
2080
2096
2096
2112
2120
2132
2128
2136
2140
2128
2118
2104
2100
2088
2080
2072
2073
2080
2080
2082
2092
2104
2108
2113
2116
2120
2134
2132
2129
2116
2100
2096
2092
2080
2072
2064
2068
2068
2068
2080
2084
2097
2100
2104
2125
2120
2128
2128
2130
2121
2115
2113
2096
2081
2076
2072
2070
2076
2084
2081
2081
2090
2100
2104
2108
2120
2120
2112
2116
2108
2104
2096
2085
2069
2072
2072
2066
2076
2080
2088
2092
2106
2120
2129
2136
2136
2134
2140
2138
2122
2125
2112
2102
2084
2082
2080
2076
2080
2072
2088
2088
2104
2112
2116
2130
2132
2136
2132
2124
2125
2122
2104
2098
2090
2085
2082
2086
2085
2098
2104
2122
2120
2136
2133
2137
2136
2140
2138
2136
2128
2128
2116
2106
2098
2096
2092
2088
2096
2096
2104
2102
2112
2124
2120
2122
2125
2128
2130
2130
2113
2116
2113
2105
2108
2120
2124
2132
2132
2136
2154
2164
2168
2178
2186
2184
2184
2188
2192
2188
2170
2170
2153
2141
2129
2128
2121
2118
2125
2128
2141
2133
2147
2152
2156
2160
2156
2153
2148
2139
2120
2112
2092
2084
2172
2072
2068
2068
2074
2072
2088
2088
2103
2114
2124
2125
2136
2128
2130
2125
2118
2105
2098
2084
2080
2076
2066
2064
2064
2073
2080
2088
2088
2092
2096
2108
2108
2100
2100
2096
2092
2080
2072
2057
2064
2061
2048
2056
2064
2072
2080
2088
2094
2105
2112
2112
2120
2114
2112
2100
2088
2080
2072
2060
2044
2047
2042
2040
2032
2032
2016
2016
2010
1992
1962
1933
1899
1856
1803
1739
1664
1584
1510
1448
1381
1326
1288
1239
1216
1197
1195
1200
1202
1217
1236
1280
1332
1388
1468
1548
1669
1816
2008
2218
2472
2760
3064
3370
3673
3969
4095
4095
4095
4095
4095
4095
4095
4095
4095
4095
4095
4095
4095
4095
4095
4095
4095
4095
4088
4080
4088
4072
3992
3872
3672
3472
3244
3032
2816
2608
2426
2272
2154
2080
2034
2012
2016
2025
2065
2104
2140
2176
2197
2209
2218
2219
2200
2180
2144
2117
2080
2040
2009
1976
1940
1928
1912
1908
1890
1888
1896
1894
1904
1897
1909
1906
1908
1920
1899
1888
1876
1866
1872
1836
1830
1827
1807
1817
1824
1832
1828
1847
1848
1856
1856
1862
1862
1856
1848
1844
1832
1816
1808
1789
1782
1779
1776
1779
1784
1795
1803
1820
1817
1837
1841
1849
1856
1856
1859
1841
1838
1827
1824
1808
1804
1796
1791
1800
1808
1808
1800
1824
1812
1844
1850
1842
1847
1850
1846
1838
1824
1819
1801
1792
1782
1770
1773
1770
1772
1796
1794
1812
1820
1827
1832
1830
1834
1844
1840
1836
1826
1808
1791
1776
1780
1768
1768
1773
1780
1792
1797
1805
1944
1829
1825
1832
1827
1832
1826
1824
1812
1814
1788
1792
1780
1784
1776
1784
1794
1792
1804
1820
1824
1828
1844
1850
1844
1864
1850
1841
1833
1821
1820
1800
1808
1808
1810
1809
1825
1833
1848
1856
1862
1868
1881
1888
1880
1888
1884
1878
1872
1862
1856
1852
1848
1852
1864
1868
1884
1896
1914
1928
1942
1952
1969
1968
1990
1984
1984
1980
1972
1970
1961
1968
1962
1964
1980
1989
1996
2006
2029
2048
2044
2047
2072
2076
2077
2072
2076
2066
2058
2056
2042
2048
2048
2038
2037
2049
2056
2066
2076
2090
2101
2106
2104
2112
2120
2120
2114
2112
2089
2072
2073
2066
2046
2044
2044
2046
2072
2068
2082
2082
2088
2096
2104
2105
2099
2102
2089
2076
2072
2064
2050
2036
2032
2025
2018
2026
2028
2030
2049
2036
2060
2065
2058
2064
2047
2060
2040
2032
2026
2016
2004
1992
1980
1984
1988
2000
2006
2009
2016
2027
2048
2040
2056
2056
2061
2068
2064
2037
2048
2016
2008
2004
1997
1992
1992
2001
2000
2008
2016
2024
2032
2033
2036
2036
2040
2052
2040
2035
2024
2012
2012
2000
1994
1992
1999
2000
2001
2010
2013
2020
2028
2041
2041
2036
2040
2048
2034
2022
2010
2012
2000
2001
1994
2006
2000
2008
2016
2036
2040
2048
2048
2053
2057
2072
2065
2052
2050
2036
2036
2020
2011
2000
1997
1992
2001
2000
2008
2020
2025
2033
2036
1938
2036
2032
2040
2032
2020
2016
2008
2011
1988
1995
1988
1996
2006
2005
2020
2028
2039
2040
2048
2056
2064
2057
2064
2054
2048
2042
2027
2012
2000
1992
1988
1988
1996
2008
2009
2028
2040
2056
2058
2072
2080
2088
2076
2069
2060
2051
2032
2032
2008
2009
2005
2002
2008
2012
2025
2048
2048
2064
2065
2068
2073
2072
2064
2064
2047
2045
2040
2028
2020
2020
2018
2020
2032
2036
2054
2052
2061
2068
2080
2091
2101
2092
2089
2080
2090
2070
2056
2056
2048
2036
2034
2029
2037
2040
2042
2064
2064
2076
2084
2081
2096
2096
2080
2084
2080
2068
2050
2037
2028
2021
2022
2020
2026
2030
2040
2048
2069
2068
2081
2084
2092
2098
2100
2088
2084
2064
2044
2040
2036
2016
2024
2026
2032
2032
2047
2072
2080
2082
2097
2096
2104
2106
2104
2096
2096
2072
2072
2059
2050
2048
2052
2052
2056
2065
2070
2076
2080
2090
2084
2096
2092
2088
2088
2084
2072
2065
2056
2052
2052
2037
2048
2049
2052
2066
2072
2086
2096
2112
2113
2122
2117
2120
2116
2112
2104
2094
2073
2072
2064
2058
2056
2052
2052
2064
2072
2076
2088
2100
2104
2114
2120
2120
2108
2105
2094
2089
2080
2066
2054
2058
2052
2058
2067
2072
2083
2092
2100
2112
2119
2125
2128
2130
2116
2116
2108
2100
2090
2088
2074
2076
2072
2073
2080
2092
2096
2105
2128
2128
2128
2131
2130
2139
2129
2120
2112
2100
2088
2080
2072
2070
2068
2073
2088
2105
2112
2124
2144
2160
2160
2172
2184
2188
2180
2176
2192
2170
2149
2144
2134
2129
2128
2141
2135
2147
2152
2161
2176
2184
2187
2188
2185
2182
2184
2176
2150
2141
2128
2120
2096
2096
2088
2084
2084
2088
2084
2092
2112
2112
2112
2117
2118
2122
2116
2120
2114
2105
2086
2076
2065
2064
2066
2068
2076
2084
2099
2106
2112
2116
2116
2112
2128
2120
2114
2098
2090
2088
2080
2080
2080
2072
2067
2072
2081
2088
2096
2112
2119
2152
2124
2128
2128
2120
2118
2096
2090
2076
2065
2048
2048
2049
2040
2056
2064
2064
2072
2089
2092
2092
2096
2090
2082
2064
2032
2005
1978
1925
1876
1824
1768
1716
1654
1601
1548
1499
1456
1429
1402
1371
1370
1374
1368
1380
1402
1416
1426
1432
1458
1490
1528
1588
1676
1788
1944
2120
2348
2608
2884
3160
3456
3734
4002
4095
4095
4095
4095
4095
4095
4095
4095
4095
4095
4095
4095
4095
4088
4088
4088
4084
4080
4092
4064
4036
3936
3832
3680
3450
3238
3021
2816
2635
2480
2356
2274
2217
2178
2166
2166
2186
2203
2216
2232
2240
2236
2232
2216
2188
2152
2022
2092
2064
2041
2024
2000
1986
1984
1972
1968
1971
1977
1969
1965
1958
1968
1946
1934
1917
1900
1888
1871
1861
1865
1862
1865
1868
1869
1872
1872
1880
1882
1884
1884
1888
1877
1860
1866
1848
1834
1817
1816
1816
1819
1818
1833
1852
1856
1859
1860
1875
1880
1880
1868
1873
1862
1864
1848
1838
1830
1821
1820
1819
1820
1828
1832
1848
1848
1856
1856
1864
1860
1864
1868
1856
1845
1843
1835
1830
1816
1809
1813
1808
1811
1813
1833
1832
1846
1850
1858
1862
1876
1873
1872
1869
1861
1852
1840
1829
1828
1824
1808
1808
1816
1820
1816
1826
1836
1845
1833
1853
1845
1856
1840
1840
1829
1820
1824
1814
1803
1792
1795
1794
1798
1830
1810
1827
1840
1848
1856
1854
1858
1874
1872
1864
1860
1844
1828
1821
1820
1801
1799
1800
1796
1812
1812
1824
1844
1857
1853
1864
1870
1877
1881
1877
1863
1857
1856
1848
1850
1833
1836
1842
1852
1858
1856
1884
1896
1916
1916
1932
1936
1939
1944
1942
1944
1931
1924
1917
1907
1907
1914
1915
1928
1945
1947
1968
1980
1996
2016
2020
2028
2032
2044
2036
2040
2038
2024
2020
2000
2012
2000
2005
2019
2032
2048
2060
2068
2072
2088
2090
2096
2100
2112
2096
2090
2085
2084
2070
2069
2052
2060
2048
2047
2056
2068
2072
2076
2084
2096
2098
2100
2112
2098
2092
2096
2064
2060
2048
2052
2032
2032
2032
2033
2040
2048
2058
2062
2064
2076
2080
2084
2076
2084
2072
2056
2045
2034
2032
2016
2012
2092
2010
2016
2032
2048
2052
2052
2065
2085
2080
2085
2084
2084
2068
2070
2060
2040
2028
2011
2010
2006
2003
2009
2013
2032
2037
2044
2047
2060
2064
2060
2074
2069
2066
2056
2060
2036
2029
2017
2022
2021
2024
2020
2024
2032
2042
2048
2061
2056
2056
2069
2056
2054
2056
2056
2048
2038
2029
2018
2020
2016
2024
2024
2036
2046
2058
2056
2072
2080
2076
2080
2081
2078
2058
2048
2037
2024
2017
2008
2004
2012
2008
2008
2016
2029
2035
2034
2051
2056
2068
2056
2056
2056
2047
2042
2040
2024
2008
2000
2000
2005
1986
2001
2004
2026
2028
2041
2048
2050
2058
2054
2064
2052
2048
2048
2032
2022
2018
1998
2010
2016
2023
2016
2020
2028
2036
2036
2047
2064
2056
2056
2064
2060
2058
2048
2048
2028
2016
2016
2005
2009
2013
2019
2026
2034
2048
2058
2064
2068
2080
2085
2090
2084
2084
2064
2058
2026
2034
2020
2018
2016
2020
2016
2036
2050
2055
2072
2080
2086
2088
2092
2090
2084
2080
2065
2056
2048
2036
2024
2026
2026
2037
2048
2040
2056
2068
2068
2080
2084
2088
2100
2092
2092
2084
2068
2072
2053
2041
2032
2038
2029
2048
2056
2074
2073
2089
2086
2096
2106
2096
2101
2098
2099
2072
2073
2059
2052
2037
2032
2024
2028
2032
2040
2040
2056
2066
2080
2088
2100
2104
2106
2105
2112
2100
2096
2081
2072
2068
2056
2059
2054
2053
2065
2071
2083
2086
2090
2112
2112
2112
2104
2112
2100
2092
2089
2074
2072
2057
2056
2056
2052
2064
2070
2080
2088
2101
2104
2105
2120
2116
2113
2128
2112
2107
2101
2090
2074
2065
2072
2069
2068
2070
2072
2080
2088
2100
2100
2112
2120
2120
2120
2120
2129
2122
2114
2088
2091
2070
2072
2070
2064
2070
2080
2080
2100
2102
2115
2114
2118
2117
2120
2120
2112
2107
2096
2084
2080
2072
2064
2068
2076
2076
2088
2104
2113
2128
2136
2136
2134
2144
2132
2136
2124
2122
2113
2094
2093
2092
2084
2081
2085
2075
2096
2090
2104
2120
2124
2132
2152
2152
2160
2170
2168
2168
2160
2164
2148
2138
2145
2138
2145
2144
2136
2148
2140
2154
2161
2168
2180
2172
2176
2176
2161
2161
2150
2144
2128
2221
2113
2108
2112
2116
2120
2128
2128
2128
2128
2136
2130
2135
2129
2120
2112
2105
2092
2080
2060
2053
2048
2049
2056
2064
2072
2080
2098
2108
2117
2123
2132
2128
2128
2124
2120
2112
2100
2082
2072
2080
2068
2064
2080
2076
2088
2088
2104
2100
2114
2120
2124
2125
2132
2115
2103
2108
2082
2082
2074
2072
2064
2064
2064
2072
2076
2080
2084
2096
2100
2112
2112
2112
2108
2104
2116
2096
2077
2048
2018
1990
1970
1930
1901
1869
1832
1786
1733
1674
1617
1564
1506
1453
1401
1358
1317
1276
1272
1244
1229
1225
1220
1237
1270
1318
1372
1428
1538
1670
1834
2037
2261
2522
2796
3088
3384
3674
3948
4095
4095
4095
4095
4095
4095
4095
4095
4095
4095
4095
4095
4095
4095
4095
4095
4094
4095
4094
4094
4095
4095
4095
4002
3845
3638
3424
3188
2960
2752
2566
2420
2295
2208
2144
2116
2112
2106
2113
2129
2136
2146
2165
2164
2162
2160
2144
2136
2128
2122
2104
2084
2074
2056
2034
2016
1996
1975
1960
1940
1920
1898
1888
1888
1891
1882
1890
1892
1902
1920
1920
1920
1925
1929
1920
1916
1917
1898
1892
1860
1856
1856
1848
1844
1840
1844
1848
1849
1866
1864
1881
1881
1882
1875
1885
1873
1882
1872
1852
1844
1831
1824
1809
1806
1817
1824
1832
1828
1832
1852
1856
1852
1856
1862
1872
1862
1856
1856
1839
1838
1815
1821
1809
1800
1812
1809
1820
1832
1824
1834
1845
1844
1851
1865
1861
1861
1851
1858
1845
1828
1809
1812
1802
1802
1808
1808
1808
1818
1820
1826
1840
1840
1840
1845
1848
1844
1844
1840
1811
1817
1801
1783
1781
1776
1788
1786
1792
1805
1812
1824
1826
1830
1832
1844
1842
1841
1828
1832
1820
1796
1788
1778
1773
1770
1768
1766
1777
1792
1798
1804
1812
1821
1824
1833
1830
1838
1834
1830
1824
1804
1792
1798
1776
1788
1794
1804
1809
1816
1829
1845
1856
1860
1872
1882
1872
1888
1878
1888
1865
1868
1856
1868
1862
1862
1882
1882
1894
1912
1925
1928
1952
1960
1960
1964
1966
1970
1970
1974
1960
1968
1960
1954
1968
1960
1976
1988
1993
2016
2026
2032
2053
2060
2058
2058
2080
2072
2072
2073
2069
2064
2061
2060
2052
2050
2053
2056
2057
2064
2068
2074
2088
2096
2090
2096
2096
2092
2098
2092
2072
2060
2056
2049
2048
2052
2048
2050
2058
2074
2085
2100
2095
2102
2096
2101
2104
2088
2073
2060
2056
2044
2028
2020
2024
2020
2024
2032
2036
2046
2064
2068
2072
2076
2072
2081
2080
2072
2066
2049
2048
2040
2027
2013
2018
2008
2010
2016
2021
2036
2048
2048
2054
2056
2056
2064
2066
2066
2056
2047
2044
2036
2032
2032
2029
2034
2032
2048
2053
2060
2067
2080
2080
2086
2088
2076
2084
2081
2068
2060
2049
2048
2026
2026
2029
2016
2028
2020
2040
2044
2053
2060
2068
2066
2080
2072
2080
2074
2068
2072
2048
2048
2048
2032
2028
2034
2034
2038
2048
2057
2076
2070
2082
2083
2088
2092
2088
2076
2072
2056
2040
2032
2020
2026
2012
2016
2032
2024
2035
2056
2057
2065
2076
2084
2092
2096
2086
2089
2070
2058
2048
2032
2026
2017
2017
2022
2025
2033
2048
2047
2060
2066
2072
2080
2072
2080
2066
2072
2072
2068
2056
2040
2032
2038
2024
2026
2034
2048
2049
2054
2064
2074
2080
2077
2090
2084
2080
2088
2065
2058
2048
2040
2020
2016
2016
2020
2032
2036
2047
2056
2064
2080
2080
2083
2092
2093
2089
2080
2069
2067
2053
2052
2048
2036
2040
2041
2041
2052
2048
2080
2072
2088
2089
2088
2088
2092
2092
2084
2080
2068
2058
2044
2044
2040
2040
2037
2051
2049
2064
2064
2080
2084
2096
2092
2105
2098
2103
2097
2081
2080
2070
2068
2049
2040
2050
2036
2044
2056
2056
2068
2076
2090
2096
2008
2112
2114
2112
2106
2097
2088
2082
2080
2056
2048
2056
2048
2056
2069
2068
2074
2083
2088
2104
2096
2101
2105
2097
2084
2080
2068
2064
2047
2046
2034
2040
2034
2044
2048
2058
2074
2076
2088
2098
2101
2106
2106
2115
2100
2090
2074
2062
2060
2048
2032
2028
2030
2042
2040
2048
2047
2058
2066
2084
2080
2088
2096
2096
2088
2096
2088
2084
2060
2060
2060
2053
2048
2048
2052
2067
2068
2083
2085
2092
2104
2102
2105
2092
2091
2080
2064
2056
2036
2040
2034
2036
2040
2045
2052
2056
2069
2084
2098
2101
2107
2105
2112
2112
2100
2098
2091
2088
2069
2070
2054
2068
2060
2072
2083
2088
2096
2107
2112
2117
2116
2116
2116
2108
2104
2092
2074
2080
2064
2068
2056
2056
2057
2065
2085
2112
2120
2132
2144
2162
2168
2177
2170
2178
2166
2160
2148
2131
2130
2112
2104
2100
2096
2104
2112
2124
2122
2132
2140
2148
2152
2164
2164
2151
2144
2128
2125
2097
2096
2072
2072
2069
2064
2061
2073
2065
2072
2084
2089
2097
2102
2106
2112
2112
2088
2080
2076
2064
2060
2044
2047
2046
2146
2058
2064
2069
2080
2090
2098
2112
2100
2112
2112
2101
2104
2088
2084
2070
2064
2050
2048
2048
2060
2053
2060
2072
2066
2072
2096
2088
2088
2088
2096
2092
2088
2084
2068
2062
2058
2048
2039
2048
2048
2048
2051
2058
2058
2068
2074
2076
2077
2064
2049
2024
1992
1953
1905
1853
1804
1740
1688
1616
1552
1504
1446
1392
1348
1312
1274
1240
1223
1208
1202
1203
1217
1212
1234
1256
1313
1394
1482
1621
1799
2010
2262
2536
2832
3146
3456
3760
3984
4092
4088
4092
4094
4095
4095
4095
4095
4095
4095
4095
4095
4095
4095
4095
4095
4095
4095
4095
4095
4095
4095
4095
4032
3876
3664
3420
3178
2934
2708
2501
2336
2210
2120
2074
2047
2046
2064
2090
2122
2160
2192
2200
2213
2200
2192
2169
2148
2128
2088
2057
2038
2010
1996
1993
1969
1960
1957
1945
1938
1940
1938
1929
1918
1905
1888
1882
1872
1856
1846
1852
1844
1845
1850
1860
1861
1880
1865
1868
1876
1869
1862
1868
1856
1844
1836
1824
1810
1801
1808
1799
1796
1793
1809
1814
1818
1829
1840
1836
1848
1856
1860
1856
1850
1848
1840
1824
1813
1810
1804
1794
1804
1814
1824
1832
1825
1836
1838
1833
1854
1857
1852
1843
1846
1824
1824
1813
1808
1804
1788
1788
1788
1788
1792
1800
1816
1812
1824
1832
1828
1837
1840
1830
1832
1816
1804
1800
1785
1782
1784
1776
1778
1776
1784
1792
1794
1801
1808
1817
1824
1830
1824
1828
1808
1812
1808
1796
1782
1776
1772
1766
1765
1776
1774
1782
1786
1794
1805
1808
1817
1818
1818
1816
1816
1810
1806
1792
1784
1792
1779
1774
1784
1778
1794
1800
1808
1812
1824
1840
1848
1848
1848
1860
1857
1845
1845
1840
1834
1824
1818
1825
1825
1834
1840
1846
1860
1866
1873
1884
1896
1900
1916
1910
1917
1936
1924
1912
1908
1912
1912
1900
1912
1922
1921
1929
1929
1939
1960
1972
1977
1986
2000
2000
2006
2002
2004
2000
1996
1997
1998
1995
2004
2009
2019
2024
2032
2040
2046
2060
2160
2080
2084
2096
2092
2097
2100
2099
2088
2083
2081
2067
2066
2062
2068
2061
2068
2076
2086
2080
2085
2102
2112
2105
2104
2094
2088
2080
2066
2056
2047
2044
2040
2040
2036
2045
2044
2048
2052
2054
2064
2058
2060
2053
2052
2041
2036
2026
2016
2013
2007
1993
2008
2016
2013
2016
2028
2028
2041
2040
2041
2042
2042
2056
2040
2032
2032
2024
2012
2008
2004
2002
1995
2004
2012
2010
2020
2025
2032
2048
2060
2060
2061
2061
2064
2057
2040
2038
2034
2022
2024
2010
2004
2016
2024
2032
2024
2028
2033
2046
2046
2056
2064
2068
2061
2054
2048
2038
2032
2016
2019
2019
2009
2016
2023
2026
2032
2032
2048
2048
2054
2056
2066
2058
2047
2041
2040
2036
2020
2008
2016
2016
2008
2020
2020
2033
2033
2036
2048
2048
2048
2053
2059
2055
2050
2052
2040
2039
2028
2023
2025
2016
2018
2028
2028
2040
2036
2040
2040
2047
2056
2058
2064
2064
2058
2052
2048
2037
2030
2025
2016
2021
2020
2028
2028
2037
2048
2051
2048
2064
2064
2076
2064
2065
2058
2064
2056
2035
2034
2028
2032
2028
2040
2024
2032
2040
2036
2046
2056
2052
2064
2052
2068
2056
2064
2049
2139
2033
2028
2026
2024
2024
2026
2038
2040
2053
2059
2060
2068
2086
2088
2076
2072
2072
2064
2047
2040
2046
2024
2034
2032
2032
2028
2034
2038
2052
2052
2057
2057
2068
2077
2077
2080
2074
2069
2073
2058
2050
2052
2038
2048
2049
2044
2042
2047
2060
2056
2066
2068
2072
2080
2080
2084
2081
2076
2070
2058
2060
2050
2056
2048
2048
2056
2057
2064
2060
2073
2074
2076
2091
2088
2093
2093
2092
2072
2068
2064
2065
2060
2047
2064
2060
2060
2072
2080
2080
2086
2088
2094
2104
2088
2102
2101
2097
2088
2084
2072
2067
2056
2056
2048
2048
2048
2059
2058
2058
2064
2072
2080
2090
2092
2102
2096
2096
2080
2084
2080
2072
2068
2069
2028
2058
2058
2059
2050
2074
2062
2072
2085
2096
2085
2096
2090
2100
2086
2086
2082
2071
2056
2053
2047
2047
2056
2056
2058
2064
2074
2082
2092
2092
2101
2097
2098
2096
2088
2080
2067
2059
2068
2051
2058
2056
2056
2074
2076
2084
2088
2084
2098
2108
2108
2108
2104
2112
2104
2108
2096
2096
2080
2080
2084
2086
2088
2092
2099
2100
2104
2100
2112
2117
2112
2113
2105
2109
2102
2094
2090
2083
2085
2088
2092
2104
2105
2104
2104
2120
2120
2130
2138
2144
2156
2156
2160
2150
2147
2140
2128
2128
2124
2124
2123
2125
2123
2138
2144
2146
2148
2156
2152
2160
2150
2138
2133
2117
2100
2084
2084
2064
2060
2064
2056
2064
2064
2074
2085
2096
2096
2113
2112
2116
2120
2123
2124
2113
2113
2112
2107
2089
2096
2087
2087
2082
2080
2080
2090
2088
2088
2088
2092
2096
2096
2096
2096
2096
2080
2081
2068
2064
2059
2056
2052
2067
2068
2072
2088
2096
2102
2101
2104
2120
2112
2122
2120
2100
2104
2080
2084
2080
2060
2052
2047
2044
2036
2032
2018
2005
1984
1961
1932
1900
1862
1826
1761
1700
1626
1568
1498
1455
1396
1360
1329
1306
1309
1305
1301
1320
1333
1358
1386
1410
1470
1510
1572
1652
1760
1890
2072
2288
2520
2810
3120
3405
3696
3985
4095
4095
4095
4095
4095
4095
4095
4095
4095
4095
4095
4095
4095
4095
4095
4095
4095
4095
4088
4084
4052
3992
3872
3700
3508
3292
3080
2896
2720
2539
2396
2285
2197
2144
2124
2112
2114
2132
2160
2185
2195
2212
2224
2219
2224
2212
2185
2166
2128
2089
2053
2028
2000
1968
1952
1938
1932
1918
1912
1920
1914
1920
1915
1920
1920
1920
1930
1910
1907
1908
1896
1888
1875
1870
1861
1856
1856
1860
1864
1851
1857
1873
1868
1869
1874
1868
1866
1868
1856
1861
1844
1840
1834
1824
1819
1820
1824
1832
1824
1834
1836
1838
1856
1857
1856
1865
1856
1861
1857
1856
1836
1830
1816
1824
1814
1824
1820
1832
1828
1832
1848
1848
1852
1868
1864
1865
1866
1865
1861
1853
1849
1851
1830
1824
1825
1813
1809
1817
1824
1814
1824
1825
1838
1836
1848
1861
1856
1856
1860
1844
1852
1836
1842
1840
1824
1816
1814
1817
1819
1816
1829
1840
1840
1853
1868
1854
1864
1845
1856
1848
1834
1821
1810
1813
1800
1796
1804
1801
1809
1825
1820
1840
1844
1848
1856
1864
1860
1860
1856
1837
1841
1826
1826
1821
1825
1814
1826
1836
1832
1856
1857
1875
1880
1894
1900
1905
1908
1909
1909
1900
1892
1884
1876
1872
1864
1864
1872
1882
1888
1905
1908
1922
1936
1956
1963
1974
1985
1984
1978
1984
1971
1968
1968
1968
1968
1962
1965
1976
1993
1986
2000
2011
2012
2032
2036
2047
2064
2064
2068
2064
2060
2058
2060
2051
2053
2050
2048
2057
2060
2071
2067
2080
2089
2091
2104
2102
2120
2107
2108
2092
2088
2088
2072
2076
2064
2064
2056
2068
2064
2072
2080
2088
2090
2104
2112
2117
2116
2112
2115
2098
2084
2080
2070
2053
2052
2048
2048
2040
2035
2048
2050
2052
2064
2064
2068
2084
2064
2080
2064
2056
2047
2047
2036
2044
2036
2044
2032
2049
2028
2048
2050
2056
2060
2060
2064
2074
2080
2066
2069
2058
2048
2042
2036
2029
2025
2025
2016
2033
2024
2032
2036
2044
2068
2064
2060
2064
2068
2068
2068
2064
2053
2056
2036
2040
2048
2040
2037
2049
2048
2050
2052
2057
2054
2069
2072
2073
2080
2081
2068
2059
2046
2032
2020
2017
2008
2024
2017
2024
2020
2026
2037
2048
2053
2066
2068
2080
2076
2088
2072
2072
2060
2062
2058
2032
2038
2036
2034
2048
2048
2048
2056
2060
2066
1976
2080
2084
2084
2080
2082
2064
2058
2052
2040
2035
2040
2034
2024
2036
2040
2040
2052
2061
2062
2070
2074
2081
2089
2076
2080
2065
2061
2054
2050
2048
2036
2040
2044
2044
2052
2047
2068
2072
2074
2080
2088
2090
2092
2080
2070
2075
2065
2052
2056
2036
2048
2032
2029
2035
2052
2050
2059
2062
2069
2068
2086
2088
2076
2080
2068
2068
2052
2047
2052
2056
2037
2056
2064
2057
2068
2061
2085
2081
2090
2096
2114
2104
2112
2112
2112
2099
2094
2082
2074
2068
2066
2065
2066
2058
2058
2064
2068
2088
2085
2096
2104
2096
2112
2104
2104
2106
2083
2080
2084
2070
2064
2072
2073
2073
2076
2096
2096
2101
2105
2112
2176
2116
2120
2116
2108
2104
2092
2073
2076
2068
2068
2068
2064
2072
2076
2072
2088
2090
2093
2112
2116
2112
2118
2124
2101
2114
2097
2090
2090
2085
2085
2085
2091
2090
2106
2113
2104
2114
2108
2112
2124
2116
2114
2104
2096
2096
2092
2088
2090
2081
2085
2092
2089
2093
2105
2104
2104
2121
2128
2132
2132
2136
2130
2134
2131
2123
2115
2112
2104
2098
2092
2088
2096
2100
2108
2113
2104
2112
2112
2132
2124
2132
2136
2129
2130
2128
2121
2120
2131
2144
2140
2156
2161
2176
2176
2182
2187
2192
2196
2198
2198
2188
2176
2156
2168
2140
2132
2136
2128
2124
2132
2144
2145
2155
2170
2172
2168
2182
2184
2192
2178
2178
2176
2160
2139
2134
2119
2112
2094
2096
2091
2088
2082
2094
2089
2096
2100
2106
2104
2112
2224
2136
2120
2120
2124
2120
2113
2098
2092
2088
2088
2101
2100
2098
2104
2112
2112
2125
2124
2137
2131
2137
2130
2125
2125
2106
2096
2089
2084
2090
2080
2076
2084
2088
2090
2090
2112
2108
2112
2120
2112
2118
2104
2104
2096
2090
2084
2075
2076
2073
2074
2069
2065
2060
2048
2040
2020
2000
1976
1942
1904
1856
1804
1752
1672
1612
1548
1472
1410
1374
1338
1301
1298
1276
1280
1288
1298
1314
1345
1372
1415
1455
1511
1574
1680
1811
1962
2155
2384
2642
2890
3168
3464
3728
4016
4090
4095
4092
4095
4095
4095
4095
4095
4095
4095
4095
4095
4095
4095
4095
4095
4095
4095
4095
4095
4095
4088
3960
3779
3588
3362
3128
2876
2672
2496
2362
2244
2168
2116
2096
2092
2112
2136
2179
2189
2212
2228
2241
2236
2229
2209
2186
2153
2113
2084
2048
2016
1995
1968
1957
1945
1946
1948
1961
1944
1952
1954
1948
1952
1940
1928
1914
1909
1888
1872
1873
1867
1856
1861
1853
1864
1864
1876
1874
1885
1888
1896
1894
1897
1893
1888
1876
1870
1844
1842
1825
1824
1832
1828
1824
1836
1836
1840
1856
1860
1864
1872
1876
1872
1859
1856
1851
1844
1834
1817
1816
1817
1810
1814
1824
1821
1837
1838
1844
1856
1848
1858
1856
1844
1844
1848
1832
1840
1818
1812
1808
1814
1800
1796
1814
1820
1831
1836
1836
1836
1844
1859
1859
1847
1852
1844
1837
1826
1816
1810
1808
1816
1806
1808
1814
1820
1832
1840
1836
1844
1845
1856
1848
1848
1840
1836
1828
1818
1811
1806
1792
1793
1799
1792
1792
1816
1820
1828
1824
1842
1843
1848
1847
1840
1844
1840
1824
1824
1816
1812
1800
1800
1802
1804
1816
1816
1824
1830
1834
1852
1850
1860
1856
1864
1876
1865
1865
1853
1841
1845
1846
1841
1844
1852
1856
1872
1878
1889
1888
1900
1913
1924
1932
1930
1938
1940
1948
1948
1944
1944
1940
1946
1948
1948
1944
1961
1984
1984
1986
1994
2000
2016
2021
2029
2048
2048
2039
2048
2036
2042
2029
2024
2036
2136
2047
2045
2058
2056
2065
2068
2080
2088
2102
2104
2092
2106
2096
2090
2081
2074
2067
2056
2064
2059
2061
2065
2066
2075
2064
2072
2068
2081
2088
2080
2066
2072
2072
2064
2047
2040
2036
2036
2040
2034
2032
2049
2050
2033
2052
2056
2066
2064
2061
2080
2064
2066
2050
2048
2033
2019
2018
2016
2005
2010
2016
2016
2016
2028
2034
2040
2036
2040
2047
2040
2040
2036
2024
2019
2018
2016
2012
2006
2017
2013
2016
2026
2048
2037
2056
2051
2064
2054
2068
2058
2052
2048
2040
2012
2000
2004
1994
2004
2008
2016
2020
2026
2036
2048
2056
2065
2064
2068
2076
2064
2069
2056
2048
2048
2036
2024
2026
2022
2026
2048
2048
2064
2061
2064
2067
2064
2069
2076
2060
2056
2047
2046
2034
2025
2026
2022
2018
2026
2016
2029
2033
2058
2053
2064
2069
2081
2073
2088
2088
2072
2068
2072
2060
2042
2040
2021
2032
2012
2016
2032
2036
2036
2047
2047
2064
2056
2068
2072
2058
2060
2054
2054
2039
2032
2032
2017
2029
2026
2037
2036
2052
2056
2054
2066
2050
2076
2082
2080
2080
2068
2064
2056
2042
2040
2032
2036
2028
2036
2058
2068
2075
2086
2092
2096
2105
2112
2108
2102
2098
2096
2086
2081
2064
2064
2052
2048
2056
2053
2064
2068
2073
2080
2088
2096
2106
2100
2104
2117
2102
2100
2100
2088
2075
2075
2068
2059
2060
2056
2068
2072
2074
2086
2091
2096
2112
2112
2115
2116
2112
2106
2101
2085
2080
2068
2064
2056
2064
2060
2072
2076
2084
2098
2112
2112
2116
2120
2118
2122
2113
2112
2100
2086
2080
2073
2072
2067
2065
2072
2080
2096
2100
2106
2112
2122
2125
2122
2120
2130
2116
2116
2100
2084
2084
2072
2068
2080
2086
2080
2084
2092
2102
2118
2120
2117
2134
2132
2128
2124
2124
2112
2107
2098
2087
2080
2072
2072
2086
2076
2082
2092
2088
2104
2104
2116
2112
2116
2128
2124
2128
2113
2106
2091
2091
2072
2081
2070
2072
2080
2092
2097
2108
2120
2122
2134
2144
2144
2148
2146
2139
2120
2104
2104
2088
2072
2064
2056
2056
2052
2068
2080
2082
2096
2099
2107
2119
2129
2140
2148
2144
2145
2146
2135
2144
2146
2144
2152
2140
2140
2157
2165
2160
2152
2146
2160
2154
2160
2162
2152
2160
2144
2136
2140
2137
2122
2128
2119
2130
2130
2133
2144
2132
2138
2138
2152
2141
2134
2136
2144
2120
2117
2108
2098
2085
2068
2064
2064
2064
2074
2080
2084
2096
2104
2116
2128
2121
2129
2140
2130
2120
2130
2116
2099
2096
2089
2096
2088
2091
2100
2101
2108
2112
2116
2124
2117
2126
2120
2116
2112
2108
2092
2084
2080
2076
2068
2080
2080
2082
2087
2093
2120
2109
2116
2136
2133
2131
2129
2144
2123
2121
2108
2100
2088
2065
2050
2033
2034
2003
1980
1957
1928
1896
1860
1809
1762
1705
1644
1578
1508
1442
1373
1321
1282
1237
1206
1182
1161
1165
1181
1200
1236
1291
1353
1429
1542
1673
1835
2026
2256
2504
2744
3032
3316
3608
3888
4088
4095
4095
4095
4095
4095
4095
4095
4095
4095
4095
4095
4095
4095
4095
4095
4095
4095
4095
4095
4095
4095
4095
4092
3968
3776
3565
3284
3048
2824
2616
2452
2308
2224
2128
2080
2058
2056
2064
2080
2100
2144
2162
2184
2208
2211
2212
2213
2198
2176
2150
2126
2100
2065
2050
2010
1988
1956
1931
1914
1904
1904
1900
1896
1916
1916
1924
1920
1932
1929
1932
1925
1924
1898
1904
1888
1878
1852
1849
1843
1828
1832
1836
1840
1837
1858
1864
1874
1866
1876
1867
1874
1868
1860
1864
1840
1848
1825
1828
1820
1824
1826
1824
1836
1849
1860
1852
1856
1856
1856
1859
1861
1865
1842
1834
1824
1821
1796
1802
1800
1792
1794
1802
1812
1820
1826
1832
1850
1844
1842
1852
1852
1840
1840
1832
1818
1819
1800
1797
1785
1793
1801
1792
1795
1804
1811
1820
1832
1833
1843
1840
1843
1841
1837
1820
1808
1808
1802
1784
1786
1784
1780
1796
1798
1797
1808
1815
1830
1825
1825
1840
1841
1843
1828
1824
1810
1803
1792
1782
1792
1785
1785
1795
1801
1810
1816
1826
1832
1834
1846
1844
1845
1848
1836
1840
1820
1808
1804
1802
1802
1808
1801
1811
1828
1833
1848
1864
1861
1868
1878
1875
1890
1890
1891
1882
1880
1869
1864
1872
1864
1878
1880
1900
1904
1920
1932
1952
1956
1977
1984
1990
1993
1990
1998
1987
1978
1975
1974
1978
1968
1979
1992
2000
2021
2018
2048
2057
2060
2073
2084
2086
2080
2080
2072
2066
2072
2066
2064
2060
2064
2064
2080
2092
2096
2106
2112
2116
2117
2120
2120
2119
2112
2112
2104
2087
2080
2056
2064
2040
2041
2038
2048
2048
2044
2064
2064
2072
2080
2084
2080
2080
2076
2080
2064
2064
2048
2036
2032
2033
2018
2016
2022
2024
2030
2036
2051
2048
2049
2058
2060
2060
2064
2048
2048
2040
2026
2020
2012
2000
1996
2000
2004
2008
2024
2040
2034
2048
2056
2050
2056
2056
2056
2056
2048
2048
2030
2025
2019
2021
2009
2006
2022
2023
2026
2048
2042
2050
2056
2047
2068
2060
2056
2052
2045
2040
2120
2032
2016
2016
2008
2021
2027
2032
2032
2048
2048
2064
2072
2081
2083
2077
2083
2072
2053
2048
2038
2017
2020
2016
2008
2004
2016
2016
2026
2042
2052
2046
2056
2060
2072
2072
2081
2064
2059
2048
2032
2028
2021
2007
2003
2007
2010
2020
2029
2034
2048
2050
2056
2061
2066
2068
2057
2056
2036
2036
2028
2012
2010
2008
2004
2008
2008
2017
2022
2037
2048
2049
2052
2052
2058
2060
2052
2048
2028
2028
2018
2016
2011
2002
2001
2004
2009
2022
2024
2032
2046
2040
2044
2047
2046
2057
2044
2052
2048
2033
2037
2016
2010
2020
2012
2014
2016
2030
2039
2057
2054
2061
2068
2069
2077
2072
2070
2067
2056
2040
2028
2018
2009
2009
2016
2016
2024
2032
2040
2044
2065
2066
2074
2083
2088
2076
2076
2068
2058
2050
2036
2032
2025
2026
2025
2025
2025
2048
2049
2056
2070
2074
2068
2080
2080
2076
2092
2068
2068
2056
2034
2040
2024
2028
2027
2028
2036
2048
2058
2072
2080
2083
2091
2090
2101
2099
2092
2085
2076
2072
2060
2041
2040
2048
2032
2036
2040
2047
2072
2072
2076
2084
2088
2104
2112
2102
2082
2088
2080
2076
2054
2053
2049
2050
2048
2054
2060
2069
2077
2086
2099
2100
2112
2107
2117
2112
2096
2092
2088
2080
2068
2056
2056
2064
2060
2058
2080
2088
2088
2098
2100
2112
2112
2116
2115
2112
2105
2096
2084
2076
2068
2056
2056
2050
2064
2064
2068
2076
2080
2085
2104
2096
2100
2104
2104
2112
2100
2096
2100
2077
2076
2068
2056
2049
2036
2049
2052
2053
2065
2068
2073
2081
2076
2088
2074
2083
2069
2064
2057
2042
2032
2028
2032
2034
2036
2044
2072
2088
2096
2112
2128
2144
2148
2144
2004
2138
2148
2120
2112
2100
2085
2075
2070
2072
2078
2080
2093
2100
2112
2128
2128
2137
2128
2137
2128
2124
2120
2104
2097
2088
2068
2064
2060
2051
2056
2050
2058
2064
2072
2074
2091
2092
2100
2105
2101
2104
2096
2088
2080
2067
2054
2056
2048
2048
2032
2041
2060
2064
2172
2082
2088
2100
2092
2104
2106
2098
2092
2091
2081
2072
2070
2056
2053
2054
2064
2056
2061
2076
2076
2085
2092
2092
2093
2106
2096
2090
2082
2088
2074
2068
2076
2052
2058
2060
2064
2072
2080
2083
2092
2080
2085
2082
2066
2052
2022
1986
1939
1894
1840
1778
1710
1638
1579
1526
1466
1409
1376
1335
1332
1314
1289
1296
1276
1278
1282
1301
1312
1324
1353
1401
1484
1573
1706
1889
2104
2349
2643
2934
3250
3554
3864
4095
4095
4095
4095
4095
4095
4095
4095
4095
4095
4095
4095
4095
4095
4095
4095
4092
4095
4095
4095
4095
4095
4095
4000
3824
3632
3394
3157
2934
2712
2521
2378
2257
2176
2119
2102
2096
2128
2138
2176
2196
2216
2224
2236
2224
2208
2172
2160
2128
2098
2068
2042
2011
1997
1990
1988
1976
1972
1976
1971
1975
1970
1964
1964
1945
1936
1931
1920
1900
1897
1881
1878
1872
1874
1880
1884
1888
1904
1896
1912
1910
1920
1912
1908
1901
1904
1886
1872
1857
1848
1837
1840
1840
1838
1848
1852
1867
1864
1880
1869
1872
1888
1880
1880
1869
1858
1856
1848
1844
1824
1826
1816
1826
1832
1828
1848
1848
1856
1865
1862
1875
1874
1879
1878
1872
1866
1842
1848
1826
1818
1818
1809
1814
1810
1818
1824
1825
1844
1860
1852
1857
1866
1864
1856
1864
1856
1848
1832
1821
1808
1808
1808
1816
1821
1796
1846
1840
1846
1858
1865
1869
1872
1877
1873
1865
1848
1856
1834
1827
1820
1810
1808
1818
1816
1818
1828
1840
1848
1860
1866
1872
1874
1876
1873
1876
1856
1853
1841
1830
1824
1816
1815
1824
1830
1841
1848
1867
1873
1880
1898
1914
1910
1908
1928
1908
1904
1904
1904
1888
1872
1872
1872
1882
1899
1907
1916
1928
1944
1953
1968
1974
1986
1994
1992
1995
1995
1997
1993
1989
1981
1984
1984
1992
2004
2010
2016
2033
2046
2056
2064
2076
2080
2082
2089
2084
2087
2080
2073
2058
2058
2058
2049
2053
2073
2076
2092
2093
2100
2118
2136
2132
2136
2138
2136
2130
2112
2104
2098
2096
2090
2088
2076
2096
2088
2101
2112
2116
2117
2124
2112
2115
2120
2120
2112
2093
2090
2073
2064
2048
2050
2048
2049
2048
2048
2056
2066
2074
2076
2080
2084
2084
2084
2080
2084
2065
2056
2052
2038
2028
2024
2026
2025
2027
2032
2036
2040
2055
2057
2066
2064
2060
2072
2060
2056
2051
2048
2030
2025
2012
2000
2000
2000
2008
2008
2017
2036
2040
2044
2064
2068
2077
2068
2073
2072
2062
2064
2050
2036
2016
2008
2001
1997
2017
2013
2018
2038
2049
2064
2067
2080
2089
2082
2088
2076
2076
2076
2064
2037
2028
2026
2024
2024
2024
2022
2033
2040
2052
2056
2074
2073
2073
2081
2085
2085
2074
2080
2060
2051
2041
2030
2022
2029
2024
2020
2018
2040
2034
2044
2056
2060
2058
2076
2068
2082
2059
2064
2054
2054
2032
2034
2019
2012
2012
2010
2020
2023
2032
2032
2048
2056
2061
2065
2069
2064
2068
2064
2056
2052
2044
2034
2028
2028
2032
2032
2032
2042
2050
2054
2053
2052
2060
2068
2065
2068
2064
2066
2052
2048
2034
2036
2032
2032
2034
2032
2054
2048
2056
2064
2068
2080
2080
2082
2100
2080
2081
2084
2080
2080
2069
2057
2049
2050
2048
2038
2042
2058
2058
2064
2080
2072
2085
2089
2096
2094
2092
2096
2066
2074
2062
2041
2040
2040
2032
2040
2040
2044
2058
2064
2072
2080
2089
2096
2098
2112
2104
2100
2096
2086
2074
2072
2060
2056
2058
2056
2061
2073
2083
2088
2096
2100
2120
2112
2120
2124
2116
2120
2116
2100
2096
2090
2080
2084
2082
2088
2074
2083
2080
2090
2101
2108
2102
2112
2120
2121
2130
2122
2128
2118
2098
2098
2093
2098
2092
2092
2096
2100
2102
2112
2116
2120
2124
2128
2132
2152
2140
2132
2118
2104
2104
2096
2080
2069
2064
2072
2068
2077
2080
2089
2090
2097
2112
2118
2124
2132
2132
2124
2128
2116
2112
2108
2098
2096
2096
2096
2096
2112
2112
2112
2117
2120
2126
2120
2131
2132
2122
2120
2114
2112
2092
2100
2085
2084
2076
2080
2128
2088
2093
2088
2097
2098
2104
2116
2124
2136
2136
2140
2145
2148
2146
2148
2130
2138
2144
2136
2131
2138
2138
2144
2152
2160
2169
2168
2184
2180
2189
2176
2172
2162
2148
2130
2128
2114
2116
2112
2112
2108
2100
2098
2101
2112
2100
2092
2096
2096
2096
2104
2076
2067
2069
2056
2052
2058
2060
2064
2065
2053
2074
2072
2069
2080
2086
2076
2080
2080
2084
2080
2072
2072
2060
2056
2050
2064
2054
2048
2056
2069
2066
2066
2066
2080
2073
2093
2093
2096
2080
2080
2074
2072
2070
2054
2048
2048
2041
2032
2044
2045
2056
2058
2064
2072
2080
2080
2084
2096
2092
2075
2064
2056
2030
2016
1997
1984
1952
1930
1904
1876
1846
1803
1760
1705
1649
1609
1550
1496
1440
1413
1377
1344
1321
1298
1304
1306
1316
1330
1344
1376
1412
1472
1525
1614
1722
1872
2051
2261
2500
2760
3029
3298
3584
3857
4095
4095
4095
4095
4095
4095
4095
4092
4094
4095
4094
4092
4094
4095
4095
4092
4095
4095
4095
4095
4095
4074
3948
3784
3600
3396
3169
2956
2776
2603
2457
2360
2262
2211
2168
2150
2148
2146
2168
2172
2168
2184
2172
2204
2172
2168
2148
2136
2128
2112
2101
2069
2048
2029
2008
1976
1961
1952
1936
1915
1899
1904
1905
1896
1900
1909
1896
1904
1910
1904
1909
1912
1913
1908
1906
1892
1888
1876
1872
1868
1848
1842
1838
1850
1860
1844
1852
1860
1862
1867
1883
1876
1883
1877
1874
1874
1856
1856
1845
1842
1830
1821
1826
1824
1720
1820
1832
1832
1832
1848
1848
1852
1848
1845
1852
1843
1837
1833
1826
1816
1817
1820
1832
1824
1824
1829
1833
1836
1837
1849
1845
1856
1857
1865
1848
1850
1842
1832
1832
1808
1812
1812
1816
1812
1804
1810
1824
1825
1824
1833
1835
1837
1837
1843
1837
1840
1833
1824
1816
1814
1812
1808
1776
1812
1812
1818
1816
1816
1825
1832
1832
1840
1850
1849
1864
1836
1828
1834
1833
1824
1826
1819
1826
1824
1818
1832
1824
1828
1836
1834
1835
1846
1845
1856
1843
1833
1832
1821
1824
1824
1808
1820
1824
1828
1836
1842
1852
1856
1860
1872
1881
1882
1888
1890
1906
1898
1897
1888
1892
1885
1880
1882
1894
1910
1908
1914
1928
1938
1947
1968
1969
1980
1988
1988
1988
1994
1992
1984
1972
1972
1984
1984
1996
2000
2005
2016
2026
2040
2048
2064
2076
2081
2084
2083
2093
2080
2070
2060
2068
2048
2053
2049
2050
2056
2047
2047
2047
2068
2060
2064
2076
2080
2081
2084
2076
2082
2072
2060
2048
2040
2039
2033
2026
2033
2025
2032
2048
2048
2053
2049
2056
2049
2049
2053
2048
2033
2026
2016
2010
2008
2004
2004
2000
2008
2004
2020
2030
2027
2036
2036
2040
2041
2052
2056
2040
2033
2028
2016
2008
2000
2018
2003
2000
2007
2000
2010
2023
2008
2016
2032
2032
2032
2028
2028
2040
2028
2028
2024
2017
2016
2022
2017
2020
2022
2028
2038
2042
2051
2054
2068
2076
2081
2075
2072
2060
2050
2048
2022
2035
2008
2010
2000
2004
2004
2020
2116
2036
2036
2050
2049
2054
2284
2058
2056
2048
2038
2034
2027
2021
2017
2016
2013
2021
2028
2016
2016
2035
2024
2048
2038
2036
2028
2033
2024
2030
2016
2010
2008
2004
2004
2000
2000
2008
2012
2006
2010
2016
2029
2033
2040
2050
2048
2048
2049
2039
2028
2016
2001
2000
1993
1994
2000
1995
1986
1996
2008
2020
2028
2032
2047
2034
2040
2050
2042
2035
2025
2017
2010
2002
2004
1997
2004
2009
2004
2014
2022
2028
2032
2042
2052
2056
2064
2060
2056
2060
2040
2032
2028
2018
2012
2016
2016
2025
2025
2028
2036
2040
2048
2048
2054
2064
2070
2065
2068
2060
2056
2048
2036
2033
2026
2028
2035
2022
2024
2037
2048
2053
2044
2056
2064
2072
2068
2072
2068
2068
2064
2050
2048
2048
2048
2048
2056
2053
2054
2060
2074
2072
2076
2083
2092
2089
2099
2104
2096
2093
2090
2080
2075
2072
2052
2056
2047
2056
2058
2064
2072
2073
2080
2096
2100
2102
2106
2104
2098
2097
2092
2083
2076
2080
2070
2068
2070
2072
2072
2072
2080
2088
2082
2086
2096
2098
2088
2090
2092
2080
2082
2072
2064
2064
2056
2080
2080
2084
2088
2090
2097
2112
2104
2114
2160
2118
2117
2112
2114
2100
2088
2088
2076
2066
2070
2073
2080
2080
2074
2092
2100
2104
2120
2128
2124
2136
2136
2132
2136
2131
2116
2113
2101
2097
2092
2092
2096
2100
2104
2113
2112
2122
2132
2128
2137
2136
2144
2140
2138
2122
2104
2100
2096
2090
2090
2085
2088
2100
2096
2112
2120
2128
2136
2140
2141
2146
2147
2154
2133
2129
2121
2112
2105
2092
2082
2087
2082
2090
2092
2096
2098
2112
2100
2113
2128
2130
2140
2144
2144
2146
2148
2152
2164
2161
2162
2163
2168
2176
2168
2176
2176
2176
2168
2176
2176
2180
2176
2169
2158
2156
2160
2137
2140
2134
2120
2116
2114
2116
2122
2132
2136
2140
2137
2148
2144
2140
2129
2128
2122
2114
2104
2097
2089
2088
2080
2081
2088
2074
2093
2088
2101
2099
2105
2114
2128
2130
2116
2112
2212
2101
2092
2096
2088
2076
2069
2080
2084
2086
2086
2092
2092
2093
2100
2108
2112
2115
2116
2117
2102
2089
2093
2081
2072
2077
2072
2069
2066
2082
2076
2064
2072
2080
2084
2104
2092
2104
2108
2112
2112
2107
2092
2080
2067
2053
2040
2024
2004
1980
1956
1914
1888
1837
1796
1747
1692
1622
1560
1496
1429
1358
1329
1278
1248
1213
1193
1192
1188
1204
1216
1232
1272
1329
1404
1503
1624
1777
1958
2181
2424
2688
2968
3264
3556
3856
4095
4095
4095
4095
4095
4095
4095
4095
4095
4095
4095
4095
4095
4094
4095
4095
4095
4095
4095
4095
4095
4095
4095
4081
3944
3762
3545
3315
3072
2844
2640
2470
2325
2208
2136
2076
2048
2061
2060
2073
2088
2128
2146
2164
2170
2176
2168
2160
2146
2128
2112
2080
2064
2016
1987
1969
1948
1915
1888
1881
1881
1877
1872
1872
1889
1888
1893
1889
1891
1886
1904
1900
1888
1874
1866
1860
1844
1828
1820
1817
1820
1816
1818
1825
1822
1836
1836
1833
1848
1856
1856
1848
1843
1829
1829
1817
1813
1801
1793
1796
1785
1792
1784
1792
1793
1805
1816
1824
1818
1822
1826
1833
1840
1824
1816
1816
1808
1792
1792
1787
1784
1784
1782
1785
1793
1796
1797
1814
1808
1816
1816
1816
1812
1809
1800
1792
1772
1778
1784
1776
1760
1776
1776
1784
1780
1786
1792
1801
1816
1808
1815
1805
1804
1804
1787
1780
1766
1760
1757
1762
1758
1762
1771
1773
1781
1792
1800
1801
1812
1813
1824
1824
1816
1810
1800
1796
1788
1792
1772
1761
1772
1768
1784
1781
1792
1792
1795
1802
1808
1812
1812
1820
1814
1803
1808
1792
1786
1777
1792
1781
1791
1796
1802
1808
1824
1824
1834
1842
1848
1848
1848
1858
1861
1858
1861
1852
1851
1856
1848
1856
1872
1876
1891
1894
1908
1920
1936
1946
1962
1968
1976
1984
1972
1970
1960
1952
1960
1944
1960
1956
1964
1976
1978
1994
2007
2025
2021
2038
2056
2068
2068
2080
2080
2076
2080
2074
2056
2068
2056
2050
2049
2064
2072
2080
2080
2088
2098
2108
2116
2116
2112
2128
2116
2112
2112
2097
2096
2081
2089
2080
2080
2081
2084
2086
2084
2094
2096
2096
2107
2102
2102
2104
2106
2096
2082
2072
2060
2053
2040
2056
2053
2044
2056
2052
2056
2056
2064
2080
2080
2076
2081
2080
2080
2076
2062
2056
2048
2048
2027
2034
2034
2036
2030
2048
2048
2048
2048
2058
2068
2072
2068
2072
2076
2072
2058
2052
2040
2036
2048
2048
2032
2038
2041
2048
2052
2060
2064
2067
2086
2084
2085
2085
2084
2076
2066
2054
2058
2040
2041
2038
2044
2040
2040
2056
2056
2056
2060
2066
2076
2076
2080
2073
2072
2064
2058
2048
2040
2027
2034
2034
2036
2041
2048
2048
2060
2054
2064
2067
2065
2070
2072
2064
2065
2047
2042
2034
2026
2032
2028
2024
2026
2036
2036
2048
2052
2052
2068
2076
2080
2082
2083
2086
2080
2074
2064
2054
2048
2040
2048
2038
2040
2036
2048
2048
2047
2056
2056
2068
2064
2072
2068
2072
2064
2068
2056
2048
2048
2036
2067
2035
2036
2040
2036
2051
2055
2064
2072
2084
2084
2093
2083
2080
2080
2072
2052
2055
2040
2040
2037
2032
2028
2044
2056
2064
2058
2080
2088
2088
2080
2088
2096
2096
2084
2081
2068
2062
2065
2052
2056
2057
2056
2060
2066
2080
2072
2086
2088
2096
2096
2096
2096
2096
2084
2084
2080
2068
2060
2068
2064
2072
2070
2080
2080
2088
2090
2102
2112
2115
2122
2118
2117
2120
2105
2104
2090
2080
2066
2061
2070
2072
2068
2072
2072
2080
2090
2088
2108
2104
2120
2116
2122
2116
2104
2107
2100
2085
2076
2072
2074
2077
2082
2092
2100
2106
2112
2117
2126
2134
2136
2138
2141
2136
2124
2112
2108
2092
2084
2092
2072
2080
2080
2084
2100
2104
2105
2122
2122
2130
2132
2130
2136
2124
2122
2128
2105
2106
2098
2092
2092
2096
2100
2106
2112
2116
2112
2120
2128
2136
2144
2136
2134
2138
2128
2120
2128
2104
2107
2097
2104
2094
2104
2114
2116
2114
2122
2118
2133
2137
2140
2153
2148
2140
2140
2129
2125
2112
2097
2092
2090
2100
2096
2100
2108
2112
2116
2128
2133
2144
2150
2145
2134
2132
2130
2112
2115
2112
2092
2090
2089
2097
2112
2114
2107
2121
2130
2138
2140
2157
2144
2152
2148
2148
2144
2138
2136
2120
2120
2113
2112
2112
2124
2112
2120
2134
2132
2132
2148
2148
2156
2161
2146
2149
2137
2132
2128
2121
2121
2124
2136
2140
2144
2152
2160
2180
2192
2192
2192
2204
2208
2209
2208
2208
2197
2185
2176
2163
2152
2150
2148
2156
2161
2160
2164
2176
2180
2189
2192
2198
2193
2192
2184
2176
2152
2140
2129
2128
2120
2114
2100
2112
2104
2124
2130
2134
2137
2146
2160
2152
2156
2155
2165
2160
2146
2138
2130
2120
2118
2107
2112
2107
2114
2116
2120
2130
2120
2116
2128
2130
2136
2133
2136
2136
2116
2116
2112
2093
2104
2096
2100
2101
2102
2102
2106
2124
2120
2129
2129
2122
2133
2133
2118
2112
2116
2099
2096
2081
2076
2074
2080
2084
2080
2088
2092
2088
2184
2084
2084
2065
2051
2019
1984
1935
1880
1831
1756
1696
1632
1558
1500
1444
1383
1344
1304
1265
1248
1224
1204
1197
1220
1228
1245
1270
1298
1356
1424
1528
1649
1824
2032
2284
2560
2837
3154
3460
3768
4064
4095
4095
4095
4095
4095
4095
4095
4095
4095
4095
4095
4095
4095
4095
4095
4095
4094
4094
4095
4094
4094
4088
4072
4032
3896
3697
3472
3232
2992
2761
2564
2394
2265
2170
2114
2083
2066
2086
2112
2134
2168
2203
2218
2229
2232
2212
2188
2168
2130
2108
2072
2047
2024
1996
1992
1968
1952
1948
1941
1942
1934
1944
1939
1928
1921
1910
1904
1892
1883
1881
1868
1863
1869
1865
1872
1874
1880
1882
1880
1880
1888
1876
1880
1864
1868
1856
1845
1829
1825
1816
1824
1817
1817
1830
1820
1837
1843
1846
1854
1857
1866
1875
1873
1864
1859
1845
1841
1829
1818
1811
1808
1804
1804
1808
1808
1816
1824
1824
1832
1841
1844
1846
1860
1851
1850
1845
1840
1827
1810
1808
1808
1798
1800
1812
1820
1814
1824
1826
1833
1829
1846
1845
1840
1832
1832
1828
1820
1800
1800
1796
1792
1794
1804
1800
1802
1845
1824
1828
1830
1840
1840
1848
1833
1840
1828
1812
1810
1808
1801
1797
1799
1796
1808
1804
1816
1820
1832
1832
1840
1850
1850
1852
1852
1842
1836
1820
1824
1820
1802
1808
1805
1801
1811
1815
1833
1840
1846
1852
1861
1870
1874
1873
1872
1868
1861
1856
1850
1848
1840
1844
1840
1862
1858
1872
1882
1890
1904
1914
1925
1936
1944
1941
1940
1952
1940
1930
1928
1922
1915
1920
1922
1937
1939
1952
1964
1977
1994
2000
2004
2016
2020
2032
2040
2028
2038
2020
2024
2032
2024
2025
2033
2032
2041
2034
2058
2064
2072
2082
2096
2096
2106
2102
2096
2108
2112
2092
2094
2083
2072
2072
2072
2080
2072
2076
2074
2080
2074
2084
2136
2096
2104
2100
2096
2083
2080
2070
2064
2048
2054
2048
2049
2041
2052
2048
2052
2061
2057
2062
2057
2053
2058
2054
2044
2036
2020
2020
2092
2008
1984
1990
1992
2000
2000
2004
2008
2026
2028
2035
2048
2042
2040
2048
2048
2040
2022
2016
2002
2002
1989
1981
1992
1995
1996
2008
2012
2016
2020
2036
2046
2040
2040
2044
2040
2032
2034
2017
2008
1997
1987
1986
1920
1988
1987
1992
1894
2000
2006
2018
2024
2028
2026
2032
2028
2024
2018
2010
1997
1994
2000
1989
1992
1984
1994
2002
2004
2008
2018
2018
2024
2024
2030
2028
2028
2027
2022
2008
2000
1992
1988
1984
1984
1986
1989
2001
2010
2006
2012
2030
2018
2036
2032
2036
2032
2016
2008
2004
1994
2001
2000
1997
1992
1997
2010
2004
2009
2016
2017
2016
2025
2024
2026
2021
2017
2017
2005
2002
2000
2000
1990
2000
1988
2000
1996
2008
2008
2016
2032
2032
2036
2040
2048
2049
2048
2038
2024
2016
2016
2000
1996
1993
1994
1995
2010
2006
2018
2022
2027
2028
2048
2048
2038
2048
2034
2024
2024
2024
2012
2012
2018
2020
2028
2036
2041
2052
2064
2065
2080
2082
2085
2086
2083
2080
2068
2066
2054
2038
2040
2027
2026
2028
2036
2028
2034
2038
2047
2064
2060
2072
2068
2074
2080
2072
2068
2064
2060
2050
2048
2041
2041
2048
2048
2052
2061
2053
2077
2072
2075
2086
2080
2089
2072
2082
2066
2060
2064
2048
2040
2040
2033
2041
2040
2047
2047
2060
2073
2080
2092
2097
2102
2098
2104
2096
2092
2073
2064
2048
2036
2036
2030
2028
2032
2035
2036
2048
2051
2075
2068
2086
2080
2096
2088
2084
2080
2072
2100
2047
2044
2042
2038
2040
2037
2040
2048
2052
2058
2072
2068
2076
2088
2088
2082
2080
2072
2060
2054
2042
2032
2030
2032
2027
2036
2034
2041
2052
2056
2058
2072
2081
2084
2088
2092
2086
2080
2081
2058
2060
2052
2048
2048
2048
2059
2060
2052
2080
2083
2076
2086
2092
2088
2088
2088
2092
2060
2064
2056
2044
2040
2040
2040
2056
2046
2056
2074
2081
2092
2097
2104
2107
2112
2112
2112
2108
2101
2088
2078
2067
2054
2061
2052
2061
2059
2060
2060
2075
2068
2076
2084
2088
2088
2080
2084
2088
2080
2072
2068
2064
2064
2057
2064
2057
2064
2066
2073
2089
2081
2096
2094
2100
2120
2116
2112
2112
2093
2089
2073
2054
2044
2042
2047
2046
2056
2068
2072
2074
2088
2096
2112
2112
2112
2124
2112
2117
2104
2089
2081
2080
2069
2064
2065
2058
2074
2080
2077
2096
2104
2113
2129
2123
2122
2136
2132
2136
2136
2124
2122
2120
2120
2116
2128
2128
2144
2138
2152
2153
2156
2162
2164
2160
2172
2154
2152
2144
2140
2128
2116
2097
2093
2092
2081
2089
2084
2084
2084
2092
2096
2104
2108
2112
2116
2128
2120
2122
2113
2112
2092
2092
2090
2084
2061
2070
2074
2092
2084
2080
2097
2096
2108
2122
2120
2116
2104
2112
2088
2076
2072
2064
2058
2060
2056
2056
2068
2084
2092
2096
2096
2101
2104
2115
2105
2112
2106
2096
2092
2083
2067
2064
2048
2053
2048
2058
2061
2068
2076
2080
2076
2084
2088
2088
2088
2088
2080
2074
2064
2046
2024
2000
1969
1948
1913
1873
1832
1784
1735
1682
1625
1570
1515
1469
1409
1376
1341
1308
1284
1265
1265
1264
1302
1315
1329
1373
1410
1466
1544
1652
1772
1924
2132
2360
2616
2900
3172
3466
3752
4009
4095
4095
4095
4095
4095
4095
4095
4095
4095
4095
4095
4095
4095
4095
4092
4095
4095
4088
4095
4080
4056
4000
3864
3744
3552
3346
3129
2916
2723
2560
2424
2312
2248
2192
2184
2170
2171
2184
2187
2188
2198
2208
2193
2185
2176
2154
2132
2112
2096
2068
2056
2034
2017
2004
2008
1996
1970
1956
1928
1916
1904
1892
1884
1881
1872
1876
1878
1880
1888
1889
1888
1884
1893
1889
1897
1888
1874
1862
1852
1842
1836
1832
1812
1820
1824
1820
1824
1832
1840
1833
1849
1857
1865
1866
1864
1862
1857
1848
1834
1828
1812
1798
1792
1794
1802
1798
1815
1812
1830
1837
1844
1848
1848
1844
1848
1842
1826
1820
1812
1794
1795
1792
1779
1793
1792
1787
1800
1793
1809
1814
1820
1825
1832
1835
1843
1834
1827
1829
1809
1806
1800
1792
1786
1786
1784
1788
1796
1812
1812
1816
1832
1832
1841
1845
1850
1844
1841
1828
1813
1804
1793
1776
1778
1780
1784
1796
1796
1808
1816
1821
1838
1856
1856
1860
1860
1856
1853
1844
1828
1818
1812
1804
1800
1804
1808
1797
1812
1813
1825
1834
1829
1844
1846
1867
1850
1856
1845
1837
1826
1824
1825
1820
1820
1829
1825
1840
1852
1864
1865
1876
1896
1900
1900
1904
1904
1904
1904
1902
1899
1891
1892
1893
1890
1898
1900
1920
1924
1937
1953
1962
1977
1988
1994
2009
2004
2016
2010
1997
1996
1994
1996
1984
1989
1996
2008
2018
2028
2050
2060
2068
2080
2090
2096
2112
2118
2104
2096
2096
2081
2080
2068
2064
2058
2065
2076
2077
2101
2101
2106
2108
2104
2112
2117
2112
2108
2104
2104
2088
2072
2064
2072
2050
2049
2048
2057
2064
2066
2084
2090
2086
2092
2097
2097
2101
2097
2090
2082
2069
2052
2037
2022
2013
2004
2004
2002
2012
2016
2020
2028
2036
2044
2050
2064
2058
2059
2060
2048
2038
2028
2012
2020
2001
2000
2001
2004
2008
2016
2018
2023
2037
2039
2048
2052
2052
2047
2044
2044
2032
2034
2010
2004
2000
2002
2002
2004
2025
2026
2027
2048
2053
2056
2072
2077
2072
2076
2065
2057
2048
2034
2024
2012
2016
2012
2021
2026
2030
2018
2032
2034
2040
2058
2056
2064
2064
2058
2064
2056
2048
2040
2023
2022
2020
2016
2032
2034
2048
2048
2053
2064
2072
2075
2084
2085
2085
2083
2076
2068
2058
2040
1928
2024
2004
2008
2004
2017
2016
2020
2040
2040
2048
2067
2068
2072
2081
2072
2084
2076
2064
2056
2048
2034
2033
2032
2032
2030
2029
2048
2040
2048
2067
2056
2064
2068
2056
2066
2047
2040
2036
2036
2024
2024
2001
2010
2016
2030
2033
2036
2050
2064
2070
2074
2086
2090
2093
2090
2082
2080
2068
2060
2057
2048
2025
2020
2024
2028
2036
2036
2044
2047
2056
2068
2084
2088
2091
2080
2075
2066
2056
2054
2040
2039
2033
2035
2033
2038
2048
2056
2056
2067
2081
2086
2096
2100
2108
2096
2088
2080
2074
2064
2044
2044
2040
2040
2040
2052
2057
2065
2070
2080
2088
2093
2096
2104
2102
2101
2097
2091
2080
2070
2069
2056
2056
2052
2056
2060
2060
2068
2064
2084
2096
2092
2100
2100
2100
2097
2096
2088
2092
2072
2064
2054
2066
2060
2067
2073
2088
2088
2096
2106
2112
2116
2119
2128
2121
2115
2105
2090
2091
2060
2060
2052
2056
2056
2060
2064
2064
2072
2082
2088
2099
2092
2100
2112
2106
2104
2100
2088
2082
2068
2070
2067
2064
2060
2071
2073
2074
2092
2093
2104
2112
2100
2116
2112
2116
2112
2101
2096
2084
2084
2080
2072
2072
2081
2092
2086
2093
2100
2112
2117
2129
2125
2134
2130
2133
2129
2116
2117
2112
2096
2096
2080
2090
2082
2096
2088
2096
2108
2112
2122
2130
2128
2144
2153
2139
2138
2125
2120
2100
2100
2089
2080
2076
2081
2086
2087
2099
2112
2112
2124
2140
2149
2153
2146
2137
2132
2116
2116
2108
2080
2080
2176
2072
2064
2080
2084
2086
2104
2099
2115
2124
2132
2133
2147
2160
2164
2148
2156
2145
2136
2140
2137
2137
2132
2138
2144
2137
2132
2137
2148
2144
2152
2156
2152
2156
2146
2156
2160
2132
2129
2117
2114
2112
2106
2112
2104
2112
2100
2106
2102
2105
2120
2114
2106
2112
2090
2092
2073
2072
2056
2056
2044
2060
2060
2060
2068
2088
2088
2098
2112
2113
2122
2130
2126
2119
2117
2117
2096
2096
2074
2080
2083
2076
2071
2083
2080
2081
2088
2096
2112
2106
2106
2112
2112
2108
2088
2084
2080
2082
2072
2064
2064
2072
2072
2072
2082
2086
2092
2096
2105
2106
2107
2112
2113
2108
2096
2092
2075
2061
2048
2034
2018
2000
1961
1946
1914
1892
1860
1812
1760
1700
1649
1585
1521
1461
1412
1356
1309
1280
1244
1225
1220
1217
1233
1258
1268
1320
1362
1437
1510
1632
1769
1926
2130
2364
2592
2856
3124
3408
3680
3936
4080
4095
4095
4095
4095
4095
4095
4095
4095
4095
4095
4095
4095
4095
4095
4095
4095
4095
4095
4095
4095
4095
4064
3913
3744
3536
3258
3032
2832
2640
2500
2348
2256
2184
2136
2104
2112
2112
2120
2129
2160
2176
2188
2201
2200
2196
2189
2178
2156
2140
2116
2089
2073
2048
2010
1981
1953
1936
1918
1900
1896
1890
1896
1888
1896
1905
1894
1908
1912
1909
1906
1912
1915
1902
1888
1878
1872
1858
1848
1834
1835
1832
1829
1836
1844
1842
1843
1843
1846
1861
1864
1856
1850
1848
1856
1832
1824
1828
1824
1812
1818
1809
1810
1814
1821
1820
1832
1827
1836
1835
1842
1841
1830
1834
1824
1811
1808
1801
1793
1788
1782
1794
1790
1788
1800
1808
1820
1824
1832
1848
1846
1858
1856
1830
1826
1830
1814
1802
1801
1792
1787
1787
1798
1806
1809
1815
1830
1829
1837
1843
1845
1853
1844
1840
1832
1824
1816
1804
1800
1788
1794
1800
1796
1808
1816
1818
1832
1824
1831
1838
1834
1846
1829
1833
1809
1814
1798
1792
1794
1792
1792
1792
1788
1792
1809
1796
1818
1820
1828
1828
1834
1836
1832
1832
1824
1808
1800
1792
1792
1782
1776
1792
1796
1805
1830
1822
1848
1857
1868
1866
1890
1885
1879
1876
1885
1880
1874
1866
1858
1856
1861
1865
1878
1890
1896
1920
1918
1940
1946
1960
1965
1970
1974
1972
1960
1961
1959
1957
1955
1952
1960
1974
1972
1980
2008
2016
2028
2037
2035
2049
2056
2068
2066
2066
2060
2056
2046
2046
2047
2046
2052
2058
2067
2080
2088
2096
2113
2128
2120
2136
2144
2140
2132
2128
2113
2116
2099
2084
2072
2060
2056
2064
2056
2064
2068
2072
2084
2080
2092
2092
2092
2096
2088
2088
2080
2061
2058
2048
2037
2034
2038
2034
2048
2048
2049
2064
2064
2075
2080
2074
2085
2070
2076
2072
2042
2036
2032
2024
2017
2016
2016
2032
2024
2028
2040
2048
2054
2064
2057
2065
2068
2069
2068
2060
2050
2040
2037
2022
2020
2017
2017
2023
2035
2037
2048
2058
2056
2064
2064
2072
2080
2074
2070
2072
2060
2056
2052
2048
2028
2036
2034
2029
2056
2056
2061
2072
2069
2080
2080
2092
2092
2094
2089
2077
2084
2058
2048
2037
2024
2016
2024
2021
2020
2034
2042
2052
2064
2080
2088
2090
2090
2090
2077
2072
2060
2056
2049
2040
2029
2021
2020
2022
2038
2048
2056
2060
2058
2069
2073
2082
2080
2074
2068
2058
2044
2036
2028
2016
2020
2024
2028
2034
2033
2040
2056
2052
2060
2069
2072
2073
2075
2070
2069
2065
2060
2052
2037
2032
2037
2026
2029
2037
2037
2046
2056
2060
2069
2076
2080
2084
2084
2104
2096
2086
2076
2058
2048
2048
2038
2048
2028
2040
2048
2054
2062
2076
2077
2088
2086
2092
2088
2088
2088
2077
2056
2040
2032
2024
2020
2028
2024
2028
2036
2050
2068
2066
2072
2084
2089
2090
2096
2088
2082
2072
2072
2059
2049
2040
2048
2048
2048
2053
2052
2057
2068
2072
2072
2076
2076
2084
2084
2080
2076
2064
2056
2060
2048
2048
2048
2048
2040
2053
2054
2059
2074
2088
2088
2084
2090
2093
2084
2085
2080
2072
2075
2061
2064
2049
2040
2034
2047
2044
2058
2056
2064
2069
2092
2096
2096
2105
2108
2101
2086
2080
2084
2064
2054
2040
2037
2037
2038
2042
2064
2056
2069
2082
2097
2096
2104
2108
2096
2092
2096
2096
2080
2068
2056
2046
2047
2052
2052
2059
2065
2082
2088
2102
2112
2116
2118
2113
2121
2116
2112
2089
2089
2077
2064
2064
2061
2062
2064
2072
2068
2072
2076
2080
2089
2034
2096
2112
2106
2104
2112
2090
2089
2080
2066
2073
2080
2076
2070
2080
2085
2080
2081
2088
2088
2099
2108
2104
2108
2101
2100
2092
2068
2064
2064
2056
2056
2064
2054
2064
2072
2080
2096
2104
2101
2112
2120
2120
2112
2113
2102
2090
2077
2064
2050
2048
2050
2057
2058
2065
2077
2074
2084
2084
2092
2104
2098
2104
2100
2098
2088
2090
2074
2084
2072
2061
2068
2068
2067
2064
2082
2080
2105
2090
2116
2124
2124
2134
2128
2128
2112
2101
2086
2077
2080
2068
2056
2056
2056
2064
2080
2080
2080
2100
2112
2128
2140
2157
2154
2160
2158
2148
2144
2150
2132
2135
2138
2130
2128
2132
2141
2148
2148
2156
2164
2164
2170
2169
2144
2148
2138
2128
2116
2108
2116
2090
2092
2114
2104
2116
2117
2126
2136
2134
2136
2140
2128
2132
2126
2122
2104
2088
2089
2080
2076
2069
2068
2074
2073
2082
2084
2090
2101
2112
2120
2112
2120
2124
2120
2128
2113
2114
2106
2088
2088
2085
2080
2089
2094
2096
2091
2101
2107
2112
2116
2128
2122
2129
2122
2116
2092
2088
2074
2060
2058
2044
2047
2052
2056
2064
2072
2084
2092
2102
2104
2122
2117
2106
2098
2088
2080
2064
2048
2028
2008
1972
1946
1914
1888
1842
1804
1755
1700
1639
1594
1532
1452
1424
1370
1318
1282
1234
1201
1168
1140
1131
1146
1172
1208
1270
1340
1443
1568
1713
1912
2144
2408
2673
2961
3264
3562
3856
4095
4095
4095
4095
4095
4095
4095
4095
4095
4095
4095
4095
4095
4095
4095
4095
4095
4095
4095
4095
4095
4095
4095
4095
4032
3880
3668
3442
3201
2966
2752
2551
2388
2253
2176
2116
2068
2056
2052
2080
2092
2124
2136
2160
2164
2188
2192
2181
2170
2161
2144
2130
2106
2075
2064
2037
2008
1972
1956
1925
1910
1899
1886
1881
1877
1888
1888
1893
1888
1900
1904
1908
1916
1918
1916
1908
1912
1890
1876
1873
1860
1852
1835
1828
1833
1826
1828
1834
1856
1856
1869
1860
1874
1872
1865
1865
1860
1856
1844
1834
1820
1818
1812
1812
1812
1824
1817
1824
1828
1832
1840
1840
1848
1851
1856
1844
1833
1825
1817
1816
1808
1789
1782
1787
1784
1792
1797
1795
1802
1812
1808
1808
1818
1824
1824
1820
1804
1796
1796
1780
1770
1760
1760
1763
1766
1770
1778
1782
1792
1797
1804
1812
1814
1816
1817
1809
1808
1795
1777
1774
1772
1748
1760
1756
1748
1764
1756
1770
1768
1780
1784
1800
1796
1804
1800
1810
1820
1792
1776
1770
1760
1750
1749
1750
1745
1761
1754
1772
1770
1777
1784
1781
1797
1792
1785
1788
1791
1777
1780
1763
1756
1750
1748
1754
1828
1762
1776
1784
1795
1810
1824
1837
1840
1846
1853
1850
1856
1837
1836
1841
1842
1828
1832
1845
1843
1846
1864
1869
1884
1897
1908
1920
1936
1936
1944
1948
1946
1938
1944
1939
1938
1920
1920
1929
1936
1948
1964
1976
1988
2006
2010
2017
2032
2034
2051
2035
2037
2035
2032
2023
2004
2010
2008
2008
2012
2016
2040
2032
2044
2056
2072
2080
2080
2081
2080
2069
2072
2064
2048
2033
2036
2025
2024
2034
2028
2040
2041
2048
2060
2056
2064
2070
2058
2066
2056
2056
2044
2037
2020
2008
2000
1992
2002
2001
1997
2003
2013
2018
2026
2030
2033
2048
2040
2042
2048
2038
2033
2008
2002
1995
1984
1970
1972
1968
1977
1976
1984
1992
1998
2012
2020
2032
2032
2040
2036
2039
2040
2020
2004
2001
1986
1988
1985
1996
1999
1992
2001
2008
2018
2032
2034
2040
2057
2056
2037
2041
2020
2024
2004
2001
1992
1986
1980
1980
1986
1988
2004
2006
2012
2025
2025
2032
2036
2041
2037
2028
2032
2020
2016
2005
2004
1988
1989
1994
1992
2004
2008
2016
2012
2012
2028
2028
2032
2032
2026
2034
2024
2016
2016
2006
2004
2000
2004
2000
2008
2008
2016
2018
2026
2032
2032
2048
2057
2049
2052
2048
2037
2026
2016
2010
2000
2000
1996
2004
2005
2008
2020
2024
2032
2042
2049
1990
2061
2064
2060
2053
2048
2037
2026
2030
2009
2004
2001
2000
2008
2006
2019
2040
2048
2040
2061
2053
2056
2056
2047
2040
2024
2020
2012
1996
2002
2000
1988
1998
2004
2018
2024
2036
2037
2037
2048
2050
2041
2049
2048
2051
2048
2024
2026
2010
2003
2018
2010
2019
2016
2032
2037
2036
2047
2044
2057
2064
2060
2064
2088
2073
2055
2050
2037
2034
2022
2018
2021
2022
2024
2031
2048
2050
2060
2064
2083
2096
2081
2073
2082
2072
2064
2047
2036
2025
2026
2024
2024
2024
2024
2040
2048
2056
2063
2074
2080
2084
2086
2089
2088
2081
2072
2068
2048
2042
2033
2037
2041
2033
2048
2049
2052
2064
2060
2064
2066
2088
2177
2084
2080
2080
2068
2064
2056
2053
2048
2048
2048
2048
2052
2056
2064
2066
2082
2084
2086
2084
2097
2092
2085
2090
2068
2072
2060
2050
2045
2036
2040
2047
2047
2064
2052
2072
2076
2082
2096
2097
2092
2086
2088
2082
2066
2057
2048
2034
2040
2037
2039
2048
2052
2064
2060
2056
2068
2080
2080
2083
2080
2080
2073
2072
2072
2058
2052
2040
2033
2056
2056
2050
2064
2062
2080
2075
2084
2085
2092
2096
2100
2090
2085
2080
2068
2059
2052
2049
2048
2048
2048
2050
2047
2052
2068
2080
2084
2084
2090
2104
2098
2112
2104
2096
2090
2083
2064
2064
2068
2052
2058
2057
2068
2066
2076
2074
2085
2084
2104
2106
2112
2120
2120
2112
2104
2096
2092
2096
2084
2080
2080
2082
2080
2092
2096
2102
2114
2116
2113
2112
2122
2105
2112
2101
2085
2074
2084
2068
2068
2067
2073
2084
2093
2108
2118
2128
2140
2136
2148
2152
2162
2160
2160
2144
2136
2136
2128
2122
2120
2112
2120
2118
2125
2133
2137
2140
2150
2152
2160
2160
2160
2153
2152
2141
2125
2097
2096
2077
2064
2064
2068
2076
2088
2082
2088
2096
2096
2104
2120
2116
2114
2112
2108
2093
2080
2066
2058
2048
2048
2048
2049
2053
2058
2073
2074
2091
2104
2102
2116
2122
2112
2106
2100
2100
2088
2084
2068
2060
2064
2060
2056
2054
2066
2073
2080
2084
2098
2101
2113
2117
2120
2113
2113
2112
2102
2092
2091
2072
2075
2072
2073
2072
2058
2056
2058
2052
2032
2044
2032
2008
1989
1954
1912
1866
1814
1776
1702
1637
1812
1520
1461
1427
1390
1360
1332
1320
1320
1313
1328
1341
1346
1373
1400
1408
1456
1504
1572
1666
1784
1968
2173
2416
2676
2984
3296
3600
3894
4095
4095
4095
4095
4095
4095
4095
4095
4095
4095
4095
4095
4095
4095
4095
4095
4095
4095
4095
4092
4080
4074
4028
3928
3768
3568
3360
3144
2944
2752
2564
2424
2312
2235
2185
2165
2157
2176
2193
2213
2241
2258
2275
2283
2273
2260
2235
2202
2168
2133
2106
2072
2047
2038
2024
2010
2000
1992
1980
1972
1984
1992
1973
1968
1965
1946
1938
1924
1921
1902
1904
1892
1900
1898
1900
1900
1901
1906
1912
1913
1916
1915
1913
1908
1904
1888
1884
1874
1872
1856
1848
1856
1856
1857
1863
1868
1860
1864
1880
1893
1897
1897
1892
1889
1872
1877
1851
1856
1829
1817
1820
1820
1824
1824
1834
1840
1852
1864
1868
1874
1873
1880
1872
1868
1856
1856
1832
1814
1811
1809
1797
1792
1801
1804
1816
1806
1820
1835
1832
1848
1856
1857
1861
1853
1866
1858
1852
1840
1828
1820
1817
1810
1808
1804
1808
1812
1818
1826
1828
1849
1837
1849
1849
1845
1845
1830
1830
1816
1813
1802
1803
1805
1809
1813
1809
1826
1837
1840
1848
1862
1860
1861
1864
1860
1856
1850
1833
1832
1824
1813
1804
1816
1808
1821
1818
1826
1832
1851
1869
1873
1877
1888
1889
1888
1884
1880
1873
1857
1851
1850
1850
1852
1872
1908
1876
1888
1900
1912
1938
1938
1957
1961
1956
1966
1954
1941
1933
1932
1924
1920
1920
1932
1945
1953
1969
1969
1993
2005
2016
2035
2056
2064
2064
2064
2060
2056
2056
2044
2038
2032
2038
2040
2052
2064
2073
2072
2092
2108
2120
2128
2144
2144
2144
2144
2136
2124
2128
2116
2112
2098
2096
2092
2056
2096
2100
2176
2120
2108
2112
2120
2112
2120
2120
2112
2120
2100
2104
2093
2082
2072
2065
2066
2081
2072
2066
2075
2084
2080
2080
2084
2085
2088
2082
2081
2072
2064
2050
2032
2020
2016
2008
2008
2012
2016
2018
2020
2036
2058
2064
2056
2068
2068
2070
2068
2064
2056
2039
2035
2028
2017
2014
2018
2022
2024
2036
2040
2048
2036
2065
2064
2064
2072
2072
2072
2064
2047
2040
2024
2032
2024
2009
2019
2021
2024
2025
2032
2040
2054
2062
2064
2080
2068
2072
2072
2072
2068
2049
2048
2048
2040
2038
2032
2032
2040
2042
2047
2052
2056
2066
2060
2080
2072
2068
2069
2068
2061
2052
2048
2027
2031
2033
2021
2020
2034
2034
2041
2040
2048
2048
2054
2058
2059
2061
2046
2046
2036
2032
2016
2016
2024
2012
2010
2020
2024
2034
2037
2048
2048
2056
2066
2064
2064
2053
2059
2048
2040
2035
2028
2024
2022
2016
2022
2024
2030
2037
2036
2040
2047
2056
2068
2074
2072
2080
2068
2058
2056
2050
2040
2032
2029
2026
2009
2025
2020
2032
2048
2048
2048
2057
2068
2072
2076
2072
2073
2066
2056
2052
2034
2025
2036
2024
2020
2028
2024
2040
2040
2044
2064
2074
2075
2082
2080
2093
2080
2077
2074
2066
2056
2048
2048
2052
2050
2048
2052
2058
2054
2068
2065
2080
2074
2088
2096
2088
2084
2098
2080
2072
2064
2072
2060
2064
2073
2069
2062
2072
2064
2075
2074
2084
2088
2084
2090
2084
2081
2082
2072
2068
2052
2048
2038
2048
2036
2040
2040
2040
2041
2056
2060
2080
2084
2096
2100
2105
2107
2098
2093
2084
2092
2072
2061
2068
2060
2061
2064
2074
2072
2072
2080
2097
2098
2096
2093
2100
2096
2089
2080
2080
2073
2060
2064
2064
2060
2066
2080
2075
2080
2089
2088
2104
2101
2112
2112
2102
2100
2087
2076
2070
2066
2058
2064
2064
2068
2072
2082
2081
2084
2090
2085
2096
2116
2096
2096
2092
2089
2088
2088
2072
2073
2076
2072
2073
2088
2096
2098
2104
2104
2112
2120
2124
2122
2122
2120
2112
2102
2096
2092
2074
2068
2064
2068
2070
2082
2082
2100
2096
2104
2112
2128
2128
2125
2117
2112
2106
2112
2094
2088
2086
2088
2084
2082
2080
2096
2102
2117
2115
2129
2137
2144
2148
2140
2036
2130
2124
2114
2108
2104
2096
2080
2092
2096
2096
2092
2114
2108
2120
2122
2144
2148
2152
2152
2159
2160
2154
2153
2152
2152
2152
2155
2156
2160
2168
2156
2154
2156
2156
2160
2160
2164
2162
2156
2160
2168
2166
2168
2156
2138
2140
2136
2131
2134
2139
2144
2141
2138
2144
2145
2136
2140
2128
2128
2128
2113
2106
2088
2080
2072
2064
2064
2072
2074
2080
2072
2090
2104
2108
2105
2117
2122
2118
2120
2125
2112
2112
2101
2096
2091
2088
2098
2091
2092
2101
2100
2112
2106
2114
2108
2108
2120
2114
2108
2112
2104
2104
2096
2100
2088
2092
2088
2090
2093
2096
2106
2112
2112
2124
2124
2132
2132
2136
2134
2128
2128
2112
2106
2093
2088
2068
2042
2040
2024
2004
1988
1968
1944
1912
1868
1836
1792
1724
1664
1600
1536
1473
1420
1372
1325
1296
1276
1265
1271
1271
1293
1312
1336
1376
1417
1476
1556
1649
1780
1932
2112
2332
2572
2840
3112
3392
3664
3992
4095
4095
4095
4095
4095
4095
4095
4095
4095
4095
4095
4095
4095
4095
4095
4095
4095
4095
4095
4095
4095
4095
4008
3888
3712
3516
3312
3096
2888
2692
2532
2416
2304
2224
2162
2130
2130
2128
2148
2168
2286
2224
2230
2244
2256
2245
2234
2218
2193
2171
2138
2105
2080
2041
2016
1992
1973
1956
1940
1940
1932
1940
1936
1956
1952
1956
1969
1960
1972
1964
1952
1948
1942
1920
1908
1900
1881
1876
1874
1877
1869
1888
1885
1884
1888
1896
1904
1892
1896
1898
1892
1898
1960
1872
1860
1852
1840
1840
1844
1846
1841
1848
1850
1876
1875
1872
1898
1894
1902
1901
1896
1892
1888
1868
2088
1840
1829
1820
1820
1820
1828
1834
1841
1844
1852
1856
1864
1856
1864
1867
1865
1848
1856
1846
1840
1832
1820
1813
1825
1824
1826
1837
1846
1864
1862
1868
1870
1872
1874
1866
1866
1858
1852
1841
1836
1832
1824
1818
1824
1816
1832
1832
1843
1851
1858
1860
1857
1872
1864
1861
1864
1849
1848
1840
1830
1830
1821
1828
1824
1825
1840
1844
1848
1852
1864
1860
1860
1876
1866
1872
1857
1864
1856
1848
1849
1828
1828
1820
1826
1829
1834
1842
1841
1851
1867
1867
1878
1890
1892
1974
1889
1888
1884
1873
1872
1864
1864
1864
1872
1868
1892
1904
1896
1908
1928
1944
1958
1961
1968
1969
1968
1968
1960
1966
1958
1952
1949
1949
1962
1960
1971
1980
2072
2005
2021
2027
2036
2046
2064
2068
2068
2064
2064
2064
2066
2052
2072
2060
2080
2073
2089
2101
2100
2116
2121
2140
2134
2137
2144
2146
2144
2134
2129
2123
2113
2112
2104
2102
2084
2092
2100
2098
2104
2100
2116
2116
2124
2128
2144
2128
2126
2116
2102
2094
2084
2075
2066
2064
2072
2061
2065
2080
2081
2089
2092
2097
2105
2100
2096
2100
2092
2076
2076
2069
2046
2044
2036
2038
2036
2040
2044
2048
2061
2064
2064
2075
2074
2089
2084
2088
2080
2077
2060
2057
2053
2049
2036
2034
2040
2048
2052
2058
2064
2064
2080
2082
2088
2096
2090
2092
2072
2084
2072
2064
2053
2052
2048
2048
2061
2048
2057
2069
2069
2080
2081
2103
2093
2101
2106
2091
2091
2087
2072
2072
2052
2044
2040
2040
2040
2042
2044
2047
2064
2084
2088
2098
2098
2093
2090
2089
2080
2081
2068
2064
2054
2058
2048
2048
2048
2050
2058
2069
2075
2085
2092
2104
2096
2098
2096
2096
2096
2080
2076
2060
2056
2052
2050
2048
2040
2052
2048
2048
2050
2062
2068
2080
2076
2085
2081
2072
2061
2072
2064
2048
2037
2032
2036
2032
2024
2020
2116
2040
2052
2052
2056
2074
2072
2080
2092
2077
2080
2067
2072
2049
2048
2048
2036
2038
2048
2032
2053
2057
2059
2060
2061
2068
2073
2081
2080
2073
2064
2058
2068
2047
2044
2040
2040
2040
2040
2046
2064
2060
2066
2067
2074
2076
2090
2090
2085
2082
2088
2068
2066
2068
2056
2048
2048
2048
2052
2066
2065
2088
2076
2080
2088
2092
2106
2112
2100
2100
2088
2088
2074
2072
2070
2067
2053
2055
2060
2064
2075
2074
2094
2096
2104
2112
2106
2112
2120
2104
2104
2090
2085
2064
2056
2044
2040
2044
2056
2064
2064
2072
2084
2104
2112
2124
2118
2128
2124
2116
2112
2108
2101
2072
2072
2070
2053
2056
2076
2062
2080
2080
2100
2108
2112
2106
2100
2106
2108
2104
2088
2088
2080
2064
2056
2050
2058
2056
2059
2074
2088
2093
2093
2115
2113
2117
2120
2125
2116
2112
2112
2092
2098
2080
2080
2065
2081
2080
2080
2072
2088
2090
2096
2104
2100
2112
2112
2114
2120
2114
2116
2096
2096
2080
2072
2074
2073
2065
2072
2067
2084
2099
2097
2104
2112
2117
2120
2124
2124
2120
2108
2096
2092
2080
2084
2074
2072
2074
2080
2088
2090
2100
2101
2124
2120
2120
2118
2112
2112
2112
2106
2098
2092
2082
2073
2070
2069
2070
2074
2080
2081
2094
2084
2088
2096
2100
2104
2100
2096
2096
2088
2084
2080
2072
2056
2064
2056
2061
2066
2066
2075
2072
2093
2098
2101
2096
2102
2112
2100
2100
2096
2096
2088
2082
2068
2064
2052
2060
2064
2064
2066
2080
2148
2096
2096
2112
2106
2107
2112
2107
2096
2081
2075
2066
2058
2064
2064
2074
2090
2107
2116
2126
2138
2152
2166
2181
2160
2160
2160
2152
2152
2132
2120
2108
2104
2104
2104
2113
2119
2125
2132
2139
2138
2150
2160
2148
2156
2148
2144
2132
2124
2112
2094
2088
2073
2069
2065
2060
2056
2060
2064
2072
2073
2082
2086
2088
2090
2112
2092
2093
2089
2075
2060
2069
2056
2050
2049
2058
2056
2064
2080
2084
2088
2092
2105
2102
2106
2112
2104
2112
2092
2084
2080
2072
2072
2064
2060
2064
2072
2074
2096
2086
2096
2092
2104
2100
2104
2112
2099
2091
2086
2076
2066
2060
2056
2056
2052
2058
2059
2064
2065
2072
2060
2054
2056
2040
2036
2008
1980
1952
1908
1864
1798
1736
1683
1624
1552
1486
1424
1374
1334
1293
1251
1224
1197
1174
1166
1148
1164
1169
1199
1233
1288
1362
1478
1620
1786
1988
2232
2500
2780
3080
3384
3732
4036
4095
4095
4095
4095
4095
4095
4095
4095
4095
4095
4095
4095
4095
4095
4095
4095
4095
4095
4095
4095
4095
4088
4072
4028
3912
3728
3506
3272
3032
2792
2608
2432
2292
2180
2108
2059
2048
2070
2082
2112
2148
2178
2197
2205
2208
2208
2184
2161
2146
2118
2088
2058
2048
2016
2004
1988
1973
1968
1962
1948
1954
1936
1940
1928
1920
1906
1903
1888
1881
1874
1866
1872
1859
1868
1867
1868
1861
1872
1802
1873
1870
1870
1865
1860
1851
1844
1836
1834
1826
1824
1824
1818
1824
1834
1848
1856
1848
1849
1852
1856
1851
1846
1851
1842
1828
1829
1813
1817
1804
1808
1792
1799
1808
1808
1813
1816
1825
1826
1836
1828
1836
1850
1832
1828
1828
1812
1804
1794
1781
1786
1787
1792
1792
1794
1816
1810
1816
1816
1817
1830
1827
1824
1824
1817
1808
1798
1792
1780
1776
1778
1776
1772
1776
1784
1796
1800
1808
1810
1824
1814
1821
1820
1819
1809
1800
1800
1796
1772
1768
1765
1766
1772
1773
1782
1786
1803
1803
1812
1808
1816
1826
1832
1824
1816
1812
1808
1780
1790
1788
1778
1780
1777
1787
1793
1805
1813
1816
1833
1841
1843
1856
1852
1848
1844
1836
1831
1822
1816
1816
1809
1824
1826
1844
1856
1852
1874
1896
1904
1908
1904
1918
1928
1920
1916
1920
1916
1904
1913
1901
1907
1915
1920
1929
1949
1956
1971
1984
1992
2000
2002
2011
2017
2019
2016
2005
2008
2000
2000
2008
2000
2002
2012
2018
2032
2050
2066
2085
2093
2102
2115
2112
2116
2112
2168
2116
2112
2104
2100
2096
2112
2148
2122
2136
2153
2152
2165
2157
2152
2162
2160
2164
2168
2168
2156
2144
2144
2136
2136
2124
2128
2128
2130
2132
2128
2140
2144
2142
2137
2138
2138
2136
2129
2122
2108
2097
2085
2080
2068
2072
2047
2058
2052
2064
2068
2076
2088
2084
2092
2100
2112
2104
2112
2100
2099
2080
2074
2060
2048
2049
2048
2048
2048
2049
2056
2061
2070
2075
2084
2090
2092
2086
2080
2068
2072
2064
2058
2040
2033
2040
2026
2032
2048
2048
2052
2073
2069
2064
2075
2074
2080
2080
2074
2074
2064
2056
2048
2039
2036
2029
2036
2042
2042
2040
2046
2046
2064
2068
2080
2090
2090
2080
2076
2084
2088
2069
2066
2052
2048
2048
2048
2048
2058
2051
2056
2058
2069
2080
2073
2080
2080
2072
2080
2066
2066
2054
2040
2024
2024
2008
2008
2017
2020
2020
2024
2036
2052
2054
2056
2070
2066
2069
2060
2064
2049
2035
2036
2036
2028
2037
2028
2024
2035
2036
2040
2048
2056
2060
2047
2060
2072
2068
2064
2058
2058
2058
2132
2036
2048
2029
2035
2048
2048
2041
2048
2066
2065
2072
2084
2088
2073
2080
2074
2060
2060
2050
2037
2040
2021
2028
2020
2016
2032
2032
2042
2040
2056
2064
2064
2080
2092
2084
2075
2081
2067
2052
2053
2037
2032
2027
2033
2032
2036
2048
2056
2066
2072
2072
2080
2088
2089
2088
2072
2066
2060
2056
2040
2032
2028
2032
2024
2036
2032
2033
2048
2050
2060
2061
2073
2072
2072
2080
2074
2072
2066
2056
2052
2054
2037
2029
2032
2040
2028
2048
2034
2040
2044
2056
2056
2064
2072
2080
2068
2076
2072
2061
2064
2062
2048
2048
2053
2056
2064
2072
2089
2082
2086
2096
2092
2102
2098
2096
2089
2091
2069
2062
2060
2044
2044
2060
2056
2064
2072
2072
2080
2100
2104
2106
2116
2104
2120
2105
2101
2096
2084
2080
2066
2064
2056
2054
2056
2061
2065
2069
2072
2086
2089
2096
2100
2100
2104
2098
2100
2100
2096
2080
2076
2064
2064
2068
2071
2080
2069
2080
2080
2092
2093
2094
2096
2119
2101
2109
2106
2085
2096
2080
2068
2072
2066
2066
2072
2064
2076
2072
2080
2090
2096
2104
2112
2120
2112
2119
2108
2101
2090
2096
2088
2081
2066
2080
2083
2076
2084
2100
2098
2112
2112
2122
2120
2120
2116
2112
2088
2084
2076
2072
2064
2058
2056
2047
2060
2058
2074
2076
2084
2091
2089
2102
2104
2112
2112
2116
2112
2104
2100
2092
2088
2081
2080
2068
2077
2070
2096
2096
2106
2112
2108
2116
2116
2114
2112
2114
2112
2112
2104
2096
2088
2080
2080
2081
2082
2092
2101
2112
2119
2128
2133
2128
2149
2144
2141
2144
2132
2128
2116
2116
2108
2090
2076
2088
2080
2082
2080
2096
2100
2112
2124
2129
2136
2141
2152
2158
2162
2164
2163
2160
2156
2154
2145
2155
2152
2156
2162
2170
2176
2189
2186
2194
2180
2192
2176
2178
2177
2176
2172
2152
2144
2144
2144
2140
2144
2141
2144
2145
2149
2149
2152
2155
2157
2155
2161
2149
2152
2139
2136
2120
2116
2112
2104
2098
2098
2100
2112
2116
2240
2136
2144
2153
2152
2161
2160
2160
2161
2150
2144
2146
2132
2124
2124
2118
2120
2124
2128
2135
2139
2150
2156
2157
2160
2161
2168
2160
2144
2136
2128
2128
2112
2096
2104
2100
2108
2120
2133
2130
2138
2134
2144
2144
2154
2152
2144
2133
2129
2112
2086
2065
2048
2019
1994
1958
1920
1873
1828
1794
1744
1698
1644
1589
1538
1492
1440
1400
1360
1324
1296
1282
1272
1272
1289
1310
1344
1394
1446
1522
1610
1743
1904
2096
2320
2576
2856
3137
3441
3720
4000
4095
4095
4092
4095
4094
4095
4095
4095
4095
4095
4095
4095
4095
4095
4095
4095
4095
4095
4095
4095
4095
4095
4095
4010
3850
3659
3458
3220
3012
2816
2624
2476
2357
