1660
1668
1668
1662
1672
1664
1666
1672
1676
1668
1665
1659
1657
1653
1650
1646
1653
1648
1640
1634
1638
1638
1643
1638
1648
1645
1641
1645
1644
1644
1642
1642
1644
1642
1640
1632
1636
1646
1632
1640
1645
1636
1640
1654
1640
1644
1642
1644
1644
1637
1648
1629
1634
1628
1628
1635
1624
1620
1625
1619
1626
1622
1634
1629
1640
1632
1640
1640
1638
1642
1648
1644
1642
1624
1617
1621
1617
1611
1613
1616
1616
1624
1620
1630
1640
1640
1634
1646
1641
1648
1653
1638
1641
1642
1644
1644
1648
1658
1650
1668
1664
1668
1681
1700
1704
1700
1704
1709
1714
1710
1709
1713
1716
1710
1710
1708
1715
1712
1728
1720
1733
1738
1736
1748
1750
1752
1752
1753
1766
1768
1764
1780
1784
1788
1780
1777
1776
1777
1778
1782
1780
1787
1792
1786
1792
1808
1800
1792
1802
1794
1801
1802
1798
1792
1786
1793
1785
1776
1792
1780
1776
1780
1776
1786
1780
1788
1780
1780
1776
1768
1764
1760
1756
1748
1738
1736
1732
1715
1716
1715
1712
1713
1720
1728
1713
1713
1717
1710
1714
1706
1698
1699
1704
1698
1692
1685
1676
1680
1676
1680
1676
1668
1666
1672
1668
1668
1666
1674
1658
1657
1652
1664
1648
1646
1653
1644
1645
1642
1637
1648
1642
1648
1641
1654
1661
1674
1672
1672
1668
1664
1676
1668
1665
1648
1650
1645
1654
1635
1640
1641
1648
1648
1638
1658
1658
1654
1665
1664
1656
1664
1661
1659
1664
1654
1664
1648
1660
1656
1658
1660
1736
1656
1658
1660
1656
1658
1652
1645
1657
1673
1666
1666
1660
1657
1664
1651
1657
1652
1656
1659
1665
1659
1666
1678
1680
1674
1674
1670
1684
1688
1680
1688
1676
1674
1664
1676
1672
1672
1656
1664
1665
1670
1683
1682
1689
1681
1692
1696
1684
1689
1692
1690
1682
1682
1685
1673
1673
1680
1673
1683
1692
1696
1698
1698
1704
1720
1722
1720
1720
1720
1720
1712
1718
1722
1728
1716
1708
1718
1722
1718
1732
1729
1736
1736
1746
1746
1760
1752
1760
1756
1756
1755
1760
1756
1756
1752
1760
1756
1760
1760
1756
1764
1776
1764
1776
1776
1774
1782
1781
1776
1785
1784
1785
1786
1785
1784
1784
1781
1792
1784
1787
1792
1792
1803
1804
1812
1816
1816
1816
1816
1816
1828
1824
1816
1816
1805
1812
1810
1818
1810
1809
1813
1824
1830
1832
1832
1841
1836
1836
1824
1830
1841
1837
1829
1826
1832
1834
1840
1840
1844
1850
1856
1856
1864
1864
1872
1874
1873
1868
1882
1864
1864
1872
1864
1865
1859
1874
1864
1862
1869
1868
1873
1877
1880
1878
1881
1892
1885
1896
1892
1900
1904
1896
1896
1900
1900
1888
1888
1888
1894
1897
1898
1902
1907
1912
1922
1924
1920
1925
1928
1930
1937
1933
1938
1940
1936
1938
1944
1944
1934
1952
1956
1954
1960
1956
1952
1944
1952
1948
1940
1948
1942
1944
1950
1937
1948
1938
1936
1955
1960
1964
1978
2002
1997
2018
2020
2026
2032
2036
2033
2033
2029
2024
2021
2020
2016
2024
2020
2020
2024
2024
2036
2028
2029
2037
2034
2033
2024
2016
2017
2016
2009
1990
1997
1984
1984
1969
1970
1970
1973
1976
1972
1978
1986
1992
1992
1996
1996
2000
2000
2000
1992
2002
1992
2008
2003
2000
2008
2011
2016
2016
2028
2029
2033
2042
2040
2039
2048
2041
2040
2034
2037
2048
2026
2028
2024
2018
2024
2032
2032
2033
2040
2040
2037
2046
2052
2052
2051
2064
2056
2042
2037
2037
2036
2032
2027
2034
2032
2032
2036
2037
2037
2032
2036
2028
2020
2008
1992
1978
1940
1909
1864
1832
1778
1732
1660
1608
1540
1472
1420
1389
1344
1316
1308
1292
1270
1280
1287
1301
1328
1364
1389
1427
1490
1548
1648
1772
1941
2132
2349
2600
2860
3136
3416
3688
3956
4064
4084
4080
4095
4095
4095
4095
4095
4095
4095
4095
4095
4095
4095
4095
4095
4095
4095
4095
4038
3930
3762
3555
3340
3108
2880
2632
2432
2276
2148
2047
1992
1960
1952
1964
1984
2010
2053
2088
2116
2144
2156
2156
2152
2144
2130
2096
2073
2059
2028
2004
1997
1977
1968
1952
1948
1944
1941
1938
1948
1938
1944
1954
1936
1938
1940
1932
1928
1928
1914
1910
1902
1898
1904
1901
1920
1923
1921
1925
1930
1933
1936
1936
1933
1933
1937
1929
1928
1922
1920
1912
1912
1904
1904
1904
1898
1909
1912
1916
1913
1920
1920
1921
1920
1922
1926
1922
1921
1925
1922
1920
1921
1920
1926
1929
1932
1944
1929
1928
1930
1938
1922
1928
1930
1924
1920
1924
1916
1920
1916
1918
1918
1922
1914
1923
1936
1936
1942
1936
1944
1948
1942
1939
1944
1940
1944
1940
1938
1936
1931
1936
1930
1930
1932
1932
1930
1929
1944
1936
1940
1936
1930
1936
1938
1936
1938
1938
1926
1940
1936
1936
1928
1932
1932
1936
1936
1936
1947
1952
1953
1953
1958
1961
1958
1957
1954
1956
1954
1952
1952
1956
1960
1962
1960
1968
1972
1972
1976
1973
1986
1989
1990
1980
1989
1980
1985
1989
1992
1987
1991
1995
2000
2002
2016
2022
2029
2036
2048
2046
2052
2056
2060
2066
2066
2060
2068
2064
2072
2072
2082
2089
2090
2101
2107
2120
2122
2129
2145
2154
2162
2171
2169
2181
2188
2176
2192
2188
2192
2178
2183
2184
2180
2188
2186
2196
2200
2208
2209
2212
2224
2226
2228
2230
2234
2229
2226
2232
2220
2224
2224
2224
2220
2214
2224
2216
2212
2232
2224
2228
2231
2224
2232
2216
2216
2216
2208
2210
2212
2204
2208
2200
2200
2210
2212
2221
2219
2219
2221
2226
2218
2219
2226
2218
2220
2202
2200
2201
2196
2182
2186
2184
2192
2192
2187
2188
2192
2196
2196
2196
2208
2216
2224
2216
2224
2228
2224
2208
2204
2200
2200
2200
2193
2205
2204
2208
2204
2210
2218
2221
2215
2225
2218
2220
2224
2224
2208
2200
2196
2208
2200
2196
2200
2210
2216
2212
2210
2216
2234
2224
2228
2216
2218
2216
2221
2208
2208
2212
2197
2198
2194
2204
2202
2210
2221
2217
2224
2228
2234
2232
2232
2232
2232
2232
2224
2218
2216
2208
2208
2208
2200
2200
2208
2202
2216
2213
2216
2216
2226
2227
2240
2230
2234
2236
2244
2240
2240
2231
2232
2226
2221
2216
2216
2216
2216
2216
2220
2216
2224
2218
2226
2232
2229
2233
2229
2228
2236
2230
2228
2233
2240
2225
2234
2240
2234
2246
2250
2246
2244
2240
2244
2244
2240
2236
2232
2232
2228
2228
2224
2228
2224
2362
2232
2248
2249
2252
2252
2257
2252
2256
2248
2257
2256
2250
2256
2249
2242
2241
2240
2240
2246
2252
2242
2246
2242
2244
2250
2256
2256
2260
2258
2260
2260
2256
2256
2264
2252
2251
2242
2240
2246
2252
2254
2253
2265
2260
2280
2281
2283
2279
2284
2277
2276
2276
2283
2274
2284
2272
2264
2260
2260
2276
2256
2260
2264
2274
2272
2264
2272
2273
2277
2272
2282
2284
2273
2280
2280
2268
2268
2259
2262
2264
2260
2264
2262
2256
2263
2258
2276
2264
2264
2272
2272
2288
2272
2284
2284
2288
2288
2296
2289
2284
2285
2284
2280
2284
2292
2278
2275
2277
2273
2272
2281
2272
2272
2267
2268
2268
2272
2268
2269
2272
2168
2296
2292
2298
2302
2306
2320
2328
2336
2340
2342
2337
2333
2329
2326
2329
2320
2320
2312
2316
2313
2322
2321
2322
2324
2316
2325
2314
2312
2313
2306
2288
2280
2272
2268
2264
2256
2252
2242
2246
2249
2248
2256
2250
2250
2265
2258
2252
2259
2254
2256
2256
2265
2261
2250
2252
2250
2250
2256
2240
2244
2250
2253
2248
2248
2252
2241
2256
2252
2250
2256
2252
2256
2252
2248
2242
2246
2225
2233
2220
2224
2221
2224
2228
2234
2227
2234
2234
2240
2244
2242
2241
2244
2244
2233
2228
2224
2228
2224
2228
2232
2224
2224
2224
2216
2213
2196
2184
2164
2145
2112
2080
2038
1989
1937
1888
1825
1768
1696
1646
1602
1554
1525
1495
1480
1476
1482
1504
1520
1537
1560
1592
1620
1660
1708
1769
1845
1948
2092
2269
2466
2704
2961
3221
3495
3762
4022
4095
4095
4095
4095
4095
4095
4095
4095
4095
4095
4095
4095
4088
4072
4092
4074
4080
4080
4048
4032
3924
3828
3664
3467
3250
3026
2820
2634
2480
2324
2232
2147
2104
2086
2082
2098
2116
2146
2176
2195
2219
2217
2225
2224
2208
2185
2172
2148
2120
2096
2064
2040
2038
2024
2008
2004
1991
2005
2004
2002
2004
2009
2001
2000
2000
1992
1992
1984
1975
1977
1976
1972
1973
1974
1978
1974
1984
1988
1988
1992
1996
1992
1988
1985
1980
1976
1968
1968
1966
1961
1952
1960
1952
1957
1962
1955
1956
1971
1965
1966
1965
1962
1963
1958
1952
1957
1952
1953
1952
1940
1944
1944
1954
1956
2032
1960
1956
1954
1961
1963
1960
1965
1964
1966
1964
1966
1957
1955
1956
1954
1952
1956
1945
1955
1944
1956
1953
1960
1968
1958
1964
1972
1968
1964
1962
1964
1960
1956
1960
1946
1952
1946
1952
1952
1958
1943
1962
1957
1948
1960
1956
1961
1958
1958
1956
1957
1950
1948
1952
1942
1940
1936
1932
1948
1936
1952
1956
1952
1941
1944
1952
1956
1952
1952
1946
1945
1944
1940
1945
1946
1941
1944
1952
1944
1952
1953
1963
1966
1958
1968
1972
1973
1970
1972
1976
1984
1973
1976
1974
1964
1976
1974
1984
1992
1994
2000
2006
2016
2020
2022
2030
2026
2038
2035
2041
2038
2050
2050
2049
2056
2053
2058
2072
2070
2092
2096
2092
2098
2108
2104
2108
2112
2106
2120
2106
2116
2124
2112
2125
2118
2113
2128
2122
2138
2144
2148
2153
2158
2164
2164
2169
2163
2172
2176
2166
2163
2164
2156
2152
2148
2148
2152
2156
2152
2164
2170
2172
2168
2180
2184
2190
2186
2187
2186
2178
2178
2165
2164
2176
2166
2156
2160
2164
2155
2160
2154
2153
2148
2156
2155
2152
2146
2146
2144
2144
2156
2144
2140
2132
2144
2145
2146
2146
2144
2152
2152
2161
2160
2168
2160
2162
2171
2176
2161
2166
2158
2156
2154
2144
2144
2156
2152
2148
2148
2144
2160
2160
2162
2164
2160
2168
2168
2180
2176
2161
2164
2160
2156
2152
2149
2148
2138
2144
2146
2144
2152
2146
2158
2153
2168
2160
2164
2160
2171
2160
2160
2160
2156
2148
2144
2156
2144
2152
2160
2176
2171
2179
2176
2176
2177
2177
2182
2168
2164
2160
2162
2156
2154
2152
2147
2148
2141
2148
2150
2152
2157
2154
2156
2156
2148
2154
2164
2160
2164
2160
2160
2152
2150
2138
2140
2130
2132
2133
2139
2141
2150
2144
2141
2152
2152
2154
2146
2154
2149
2144
2149
2137
2135
2130
2136
2128
2128
2132
2136
2136
2132
2144
2144
2152
2150
2150
2145
2149
2136
2132
2125
2120
2123
2112
2115
2120
2105
2113
2118
2122
2120
2128
2118
2128
2121
2116
2128
2232
2120
2120
2116
2108
2112
2112
2116
2106
2112
2116
2118
2116
2117
2118
2112
2125
2117
2134
2122
2128
2125
2132
2124
2120
2121
2122
2115
2108
2106
2104
2108
2112
2112
2112
2114
2116
2124
2114
2128
2128
2120
2122
2114
2112
2112
2112
2112
2105
2108
2112
2120
2125
2128
2138
2132
2129
2133
2133
2138
2132
2128
2120
2120
2116
2120
2108
2112
2112
2108
2112
2120
2128
2125
2124
2120
2133
2133
2128
2125
2121
2122
2116
2116
2114
2112
2098
2102
2102
2100
2100
2100
2100
2107
2104
2112
2108
2120
2104
2101
2112
2105
2104
2096
2096
2104
2105
2098
2094
2092
2102
2104
2100
2112
2122
2118
2117
2117
2115
2116
2116
2114
2113
2112
2104
2112
2096
2104
2096
2096
2096
2104
2096
2104
2098
2112
2112
2104
2112
2112
2112
2101
2092
2106
2099
2090
2099
2100
2098
2106
2114
2116
2125
2149
2157
2156
2162
2177
2164
2168
2164
2160
2152
2148
2140
2136
2132
2136
2128
2125
2129
2136
2140
2152
2144
2144
2144
2144
2136
2136
2124
2123
2114
2112
2104
2084
2083
2080
2084
2072
2076
2080
2080
2080
2080
2080
2082
2080
2084
2088
2097
2092
2086
2085
2088
2080
2082
2081
2081
2082
2086
2084
2089
2099
2096
2104
2112
2101
2108
2112
2101
2112
2096
2088
2084
2076
2084
2076
2080
2072
2074
2080
2084
2103
2089
2096
2096
2096
2097
2096
2096
2098
2099
2086
2088
2082
2081
2080
2080
2070
2077
2070
2080
2076
2060
2044
2032
2016
1988
1962
1912
1882
1820
1776
1718
1657
1584
1527
1461
1416
1372
1338
1295
1275
1264
1240
1239
1248
1260
1289
1314
1362
1422
1488
1588
1728
1881
2064
2296
2558
2820
3104
3392
3680
3964
4095
4095
4095
4095
4095
4095
4095
4095
4095
4095
4095
4095
4095
4095
4095
4095
4095
4095
4095
4095
4083
4004
3842
3608
3388
3148
2904
2672
2449
2276
2124
2012
1936
1893
1890
1893
1920
1954
1984
2032
2068
2094
2112
2123
2118
2102
2090
2069
2048
2024
1996
1969
1945
1928
1909
1898
1893
1892
1888
1888
1884
1882
1888
1884
1888
1878
1874
1878
1884
1876
1874
1875
1872
1870
1867
1868
1860
1868
1850
1853
1857
1856
1852
1843
1849
1852
1844
1848
1848
1845
1844
1838
1848
1852
1848
1850
1848
1856
1860
1862
1850
1867
1858
1860
1861
1845
1848
1837
1836
1840
1820
1816
1813
1808
1820
1818
1818
1824
1828
1840
1832
1836
1842
1840
1844
1836
1842
1840
1832
1825
1821
1812
1820
1820
1812
1816
1815
1816
1821
1824
1824
1829
1821
1832
1826
1825
1819
1812
1826
1812
1816
1816
1808
1808
1816
1816
1832
1824
1824
1824
1826
1834
1826
1828
1834
1825
1832
1824
1814
1810
1802
1818
1808
1808
1810
1816
1817
1819
1820
1824
1824
1828
1825
1832
1840
1828
1826
1836
1828
1824
1812
1816
1804
1816
1814
1817
1824
1827
1830
1834
1838
1840
1849
1846
1848
1850
1844
1851
1856
1848
1853
1857
1856
1856
1866
1872
1888
1888
1896
1898
1904
1912
1912
1912
1920
1920
1920
1924
1929
1931
1933
1938
1936
1953
1949
1968
1962
1968
1981
1992
2004
2000
2009
2002
2016
2012
2016
2025
2028
2028
2028
2032
2036
2068
2058
2068
2072
2080
2082
2086
2086
2092
2096
2098
2092
2088
2089
2088
2088
2086
2073
2082
2084
2096
2101
2098
2096
2104
2100
2096
2108
2100
2100
2100
2105
2100
2100
2084
2092
2088
2084
2084
2092
2082
2086
2090
2077
2091
2093
2096
2088
2084
2083
2088
2090
2084
2076
2076
2073
2070
2073
2064
2064
2064
2074
2080
2066
2072
2072
2072
2068
2080
2080
2080
2078
2072
2067
2064
2058
2056
2056
2048
2058
2052
2058
2062
2072
2076
2090
2081
2074
2082
2080
2076
2072
2074
2072
2072
2064
2064
2068
2064
2074
2074
2080
2076
2082
2093
2091
2098
2098
2096
2096
2098
2104
2091
2087
2080
2088
2080
2080
2075
2074
2076
2080
2080
2072
2076
2072
2076
2074
2064
2064
2068
2064
2052
2068
2058
2060
2064
2061
2074
2064
2065
2080
2073
2084
2080
2088
2069
2073
2069
2064
2073
2065
2056
2050
2047
2047
2047
2036
2040
2047
2047
2047
2052
2058
2072
2080
2077
2080
2073
2080
2088
2076
2068
2076
2064
2076
2066
2076
2064
2065
2060
2073
2072
2073
2080
2072
2080
2080
2080
2082
2080
2080
2080
2072
2072
2072
2076
2068
2072
2080
2077
2080
2100
2086
2088
2096
2096
2100
2104
2098
2097
2092
2084
2081
2088
2076
2076
2076
2076
2080
2088
2092
2092
2098
2112
2104
2100
2100
2097
2096
2086
2098
2091
2075
2080
2076
2068
2064
2069
2076
2076
2072
2080
2075
2088
2088
2082
2077
2092
2084
2090
2080
2080
2084
2096
2084
2080
2080
2084
2084
2080
2084
2090
2088
2080
2082
2088
2084
2081
2083
2089
2082
2081
2080
2085
2076
2076
2075
2080
2085
2073
2080
2080
2072
2076
2080
2080
2084
2080
2082
2080
2084
2080
2089
2068
2064
2080
2074
2072
2070
2066
2076
2074
2077
2080
2080
2090
2089
2087
2084
2081
2080
2076
2072
2064
2064
2064
2064
2052
2064
2058
2068
2172
2080
2084
2082
2081
2090
2086
2096
2089
2083
2086
2088
2088
2089
2083
2078
2072
2080
2092
2088
2096
2104
2097
2101
2100
2100
2092
2100
2104
2105
2098
2096
2092
2092
2088
2089
2083
2090
2088
2097
2096
2096
2092
2096
2088
2096
2092
2096
2100
2093
2096
2096
2098
2113
2124
2132
2136
2138
2148
2154
2160
2160
2162
2160
2154
2154
2160
2152
2144
2139
2141
2131
2123
2122
2118
2124
2129
2125
2132
2140
2138
2136
2136
2138
2144
2134
2132
2116
2112
2096
2088
2088
2088
2072
2072
2080
2064
2065
2080
2080
2081
2085
2088
2092
2092
2097
2096
2097
2098
2086
2090
2090
2083
2077
2069
2070
2074
2082
2076
2080
2088
2084
2088
2084
2088
2090
2084
2084
2090
2088
2092
2088
2085
2080
2080
2089
2080
2082
2081
2086
2085
2083
2096
2092
2092
2101
2096
2094
2097
2085
2089
2082
2076
2082
2064
2060
2068
2047
2053
2034
2018
1992
1968
1931
1891
1838
1792
1736
1672
1613
1552
1488
1421
1371
1326
1292
1257
1231
1226
1212
1216
1229
1254
1284
1344
1398
1468
1562
1684
1820
2008
2220
2472
2736
3040
3328
3624
3905
4095
4095
4095
4095
4095
4095
4095
4095
4095
4095
4095
4095
4095
4095
4095
4095
4095
4095
4064
4064
4048
3946
3800
3616
3392
3156
2912
2692
2472
2280
2128
2016
1923
1882
1856
1863
1898
1924
1966
2010
2036
2075
2094
2106
2113
2100
2081
2068
2041
2019
1984
1968
1932
1906
1888
1880
1866
1856
1856
1852
1844
1866
1856
1870
1872
1872
1876
1872
1869
1880
1872
1869
1868
1856
1841
1837
1833
1829
1832
1831
1840
1837
1844
1844
1846
1844
1842
1852
1848
1848
1856
1844
1836
1843
1830
1824
1820
1816
1828
1820
1828
1834
1828
1826
1848
1838
1833
1830
1844
1829
1837
1835
1829
1833
1832
1852
1842
1840
1846
1836
1842
1848
1844
1856
1860
1852
1848
1845
1845
1843
1836
1836
1833
1830
1819
1830
1818
1831
1817
1821
1828
1832
1832
1832
1836
1841
1848
1842
1844
1840
1916
1842
1832
1832
1834
1832
1824
1832
1824
1820
1812
1824
1824
1815
1817
1819
1826
1820
1829
1829
1827
1816
1819
1829
1824
1825
1824
1828
1832
1832
1834
1834
1840
1836
1836
1828
1824
1828
1832
1835
1836
1836
1832
1832
1836
1832
1830
1828
1837
1840
1849
1856
1860
1860
1860
1862
1861
1864
1872
1872
1882
1880
1888
1888
1900
1898
1908
1912
1916
1938
1940
1943
1964
1962
1970
1972
1972
1986
1980
1984
1984
1987
1984
1984
1989
1984
1991
1992
2001
2009
2016
2024
2026
2036
2046
2044
2047
2047
2056
2052
2060
2064
2064
2069
2064
2066
2066
2069
2040
2080
2080
2088
2092
2098
2096
2104
2100
2102
2099
2100
2101
2104
2104
2098
2084
2088
2092
2080
2090
2080
2092
2088
2080
2088
2096
2085
2088
2081
2088
2090
2089
2082
2080
2074
2080
2081
2084
2084
2084
2083
2088
2083
2088
2092
2098
2092
2088
2096
2082
2082
2072
2080
2068
2056
2060
2064
2060
2056
2050
2053
2066
2065
2066
2064
2069
2084
2084
2090
2094
2088
2085
2092
2085
2092
2089
2084
2088
2083
2080
2080
2080
2076
2080
2076
2076
2080
2080
2080
2080
2094
2080
2084
2080
2080
2086
2080
2084
2080
2088
2085
2096
2096
2096
2103
2097
2101
2096
2090
2096
2092
2084
2080
2080
2072
2072
2068
2076
2080
2088
2080
2092
2088
2100
2093
2096
2098
2090
2092
2082
2086
2082
2088
2080
2086
2076
2080
2080
2084
2080
2083
2090
2090
2088
2092
2096
2096
2096
2096
2096
2092
2088
2092
2089
2075
2074
2069
2076
2069
2072
2074
2086
2082
2080
2080
2083
2096
2089
2089
2088
2088
2084
2086
2092
2086
2066
2072
2074
2064
2068
2064
2072
2072
2080
2080
2084
2080
2088
2090
2088
2086
2088
2086
2080
2081
2080
2077
2073
2072
2082
2089
2084
2089
2088
2087
2085
2076
2088
2076
2074
2072
2072
2072
2080
2076
2068
2072
2080
2084
2082
2090
2102
2092
2107
2112
2104
2106
2104
2106
2106
2107
2098
2104
2092
2091
2089
2092
2088
2096
2096
2100
2108
2108
2120
2120
2128
2120
2128
2120
2121
2118
2112
2114
2112
2106
2112
2098
2103
2104
2112
2124
2123
2128
2139
2139
2148
2154
2153
2160
2157
2156
2148
2138
2140
2132
2130
2124
2128
2124
2128
2132
2136
2145
2152
2148
2144
2148
2144
2144
2144
2138
2136
2125
2125
2130
2134
2136
2140
2149
2140
2152
2144
2150
2140
2144
2140
2144
2128
2128
2120
2120
2116
2116
2116
2115
2120
2121
2124
2128
2136
2140
2147
2144
2153
2152
2154
2148
2146
2156
2140
2152
2134
2129
2128
2130
2116
2116
2116
2112
2120
2120
2132
2128
2140
2144
2146
2158
2145
2151
2144
2156
2156
2149
2144
2144
2144
2152
2144
2140
2141
2132
2137
2140
2150
2145
2146
2153
2144
2132
2149
2138
2148
2132
2144
2144
2152
2146
2144
2152
2160
2166
2168
2177
2184
2198
2208
2200
2202
2204
2208
2202
2196
2195
2192
2196
2194
2185
2194
2189
2196
2192
2200
2196
2188
2192
2176
2170
2168
2168
2164
2156
2140
2144
2144
2121
2128
2120
2120
2121
2124
2118
2120
2122
2123
2124
2115
2121
2128
2117
2114
2113
2108
2108
2104
2104
2100
2096
2100
2114
2104
2112
2128
2128
2132
2144
2141
2144
2146
2144
2131
2129
2118
2128
2120
2112
2112
2112
2105
2104
2102
2114
2106
2117
2108
2124
2124
2124
2128
2120
2124
2129
2116
2120
2116
2115
2117
2112
2114
2118
2124
2117
2114
2107
2102
2097
2073
2065
2048
2012
1984
1945
1902
1848
1798
1741
1680
1632
1568
1517
1473
1444
1400
1389
1372
1352
1346
1357
1352
1380
1404
1435
1476
1536
1605
1696
1812
1954
2137
2342
2592
2868
3139
3432
3705
3977
4095
4095
4080
4072
4076
4072
4084
4080
4088
4080
4084
4095
4095
4095
4095
4095
4095
4095
4095
4089
4040
3914
3748
3536
3317
3076
2851
2640
2443
2293
2169
2078
2016
1993
1992
2002
2021
2052
2082
2104
2128
2144
2152
2148
2136
2122
2100
2066
2036
2009
1984
1964
1939
1930
1920
1900
1912
1905
1897
1895
1904
1904
1915
1905
1898
1897
1896
1892
1888
1877
1882
1877
1876
1868
1876
1872
1872
1869
1876
1864
1856
1856
1853
1848
1844
1850
1852
1848
1848
1856
1859
1856
1857
1868
1872
1872
1864
1865
1866
1868
1869
1864
1865
1868
1860
1872
1872
1848
1856
1850
1848
1848
1849
1852
1852
1778
1864
1862
1865
1862
1856
1860
1846
1840
1840
1840
1840
1834
1824
1837
1840
1842
1840
1848
1844
1850
1852
1865
1856
1856
1864
1856
1857
1856
1856
1853
1850
1846
1844
1828
1830
1828
1826
1832
1830
1832
1834
1840
1840
1841
1842
1856
1841
1840
1836
1832
1828
1828
1824
1812
1824
1824
1816
1814
1827
1833
1832
1838
1842
1841
1843
1844
1843
1840
1830
1836
1830
1821
1824
1817
1820
1824
1830
1825
1840
1837
1841
1852
1860
1860
1864
1884
1880
1872
1874
1888
1880
1878
1875
1878
1877
1876
1876
1881
1882
1891
1888
1906
1906
1908
1916
1925
1920
1924
1928
1931
1944
1944
1944
1948
1960
1972
1972
1976
1988
2000
2016
2016
2025
2024
2032
2032
2040
2027
2029
2025
2027
2021
2022
2033
2033
2033
2037
2051
2050
2057
2068
2072
2080
2084
2084
2088
2104
2088
2088
2084
2084
2080
2076
2069
2076
2080
2077
2074
2088
2080
2088
2085
2090
2083
2082
2078
2068
2068
2072
2064
2064
2059
2054
2061
2064
2056
2056
2072
2068
2058
2064
2064
2064
2064
2056
2064
2064
2060
2052
2054
2052
2052
2040
2048
2048
2037
2037
2032
2032
2040
2048
2050
2048
2048
2048
2050
2044
1948
2047
2044
2042
2056
2036
2047
2042
2048
2064
2064
2068
2076
2075
2072
2074
2074
2061
2057
2037
2056
2036
2041
2031
2033
2029
2021
2028
2018
2038
2032
2036
2047
2047
2058
2054
2056
2056
2066
2056
2056
2064
2052
2048
2037
2038
2026
2022
2020
2017
2030
2027
2033
2048
2053
2049
2048
2048
2048
2048
2049
2048
2040
2036
2032
2032
2024
2028
2024
2024
2028
2032
2032
2033
2030
2035
2033
2032
2026
2040
2022
2026
2024
2025
2025
2022
2016
2016
2016
2019
2017
2014
2013
2028
2024
2024
2020
2026
2028
2036
2024
2024
2024
2024
2025
2017
2016
2010
2010
2013
2017
2016
2017
2029
2022
2036
2036
2034
2040
2032
2032
2028
2028
2034
2016
2018
2016
2018
2016
2022
2020
2024
2032
2026
2036
2036
2036
2048
2027
2036
2029
2025
2024
2024
2014
2016
2010
2009
2008
2012
2017
2021
2029
2034
2048
2048
2048
2048
2050
2042
2042
2047
2038
2032
2040
2028
2036
2042
2040
2033
2048
2040
2048
2054
2048
2051
2041
2056
2050
2048
2039
2048
2035
2038
2036
2040
2028
2034
2026
2037
2048
2032
2040
2056
2056
2056
2060
2066
2072
2058
2060
2064
2052
2048
2049
2033
2029
2020
2021
2039
2032
2041
2048
2048
2048
2050
2056
2052
2052
2056
2056
2060
2050
2044
2044
2040
2046
2056
2056
2056
2056
2064
2064
2056
2053
2053
2041
2041
2036
2033
2030
2034
2032
2026
2032
2028
2035
2036
2048
2048
2057
2060
2061
2065
2074
2064
2072
2076
2064
2060
2064
2146
2044
2044
2044
2042
2041
2041
2048
2048
2052
2051
2066
2072
2082
2081
2086
2083
2089
2093
2088
2096
2091
2092
2094
2096
2102
2108
2104
2116
2122
2112
2106
2104
2104
2104
2100
2104
2101
2107
2112
2112
2120
2112
2107
2112
2098
2108
2104
2100
2093
2103
2093
2093
2080
2086
2074
2070
2051
2058
2040
2040
2034
2040
2024
2024
2024
2024
2034
2032
2040
2048
2048
2053
2052
2064
2064
2056
2064
2068
2056
2058
2056
2056
2056
2052
2049
2059
2053
2056
2050
2060
2064
2060
2058
2058
2056
2058
2056
2056
2068
2056
2066
2053
2056
2050
2048
2058
2048
2056
2048
2052
2058
2048
2064
2052
2048
2053
2048
2048
2048
2040
2027
2024
2016
2016
2004
1996
1986
1964
1956
1924
1896
1866
1840
1785
1735
1680
1624
1568
1506
1452
1416
1360
1334
1306
1288
1281
1284
1296
1308
1334
1354
1402
1456
1533
1601
1696
1824
1972
2156
2368
2616
2876
3168
3456
3733
3996
4095
4095
4095
4095
4095
4095
4095
4095
4095
4095
4095
4095
4095
4095
4095
4095
4095
4095
4095
4016
3920
3776
3592
3388
3172
2948
2732
2532
2368
2224
2112
2028
1984
1944
1941
1960
1963
1976
2021
2040
2054
2068
2082
2085
2068
2064
2040
2019
1987
1970
1944
1932
1905
1888
1876
1860
1852
1845
1848
1928
1840
1840
1840
1840
1843
1843
1840
1848
1846
1842
1847
1844
1843
1834
1841
1832
1825
1832
1824
1829
1832
1832
1829
1841
1844
1840
1842
1842
1840
1840
1840
1840
1832
1824
1832
1820
1821
1818
1818
1824
1834
1824
1822
1833
1837
1829
1831
1832
1837
1826
1820
1816
1829
1825
1830
1814
1828
1820
1820
1828
1826
1824
1830
1832
1828
1833
1830
1840
1826
1832
1830
1818
1820
1824
1818
1817
1810
1816
1810
1815
1818
1819
1833
1838
1826
1844
1833
1842
1834
1833
1824
1832
1829
1816
1825
1808
1808
1802
1803
1799
1808
1803
1808
1810
1811
1821
1828
1824
1829
1825
1828
1821
1816
1819
1812
1815
1812
1804
1801
1816
1812
1800
1801
1808
1812
1816
1812
1820
1813
1814
1805
1806
1813
1814
1810
1808
1817
1814
1819
1808
1814
1817
1817
1826
1824
1820
1824
1824
1824
1832
1834
1842
1844
1848
1842
1850
1844
1852
1856
1860
1872
1882
1891
1892
1904
1900
1912
1920
1932
1932
1939
1947
1947
1952
1950
1953
1952
1962
1960
1970
1979
1984
1991
2004
2004
2008
2022
2028
2032
2036
2040
2052
2052
2040
2056
2048
2049
2048
2050
2040
2052
2058
2053
2058
2072
2068
2070
2072
2076
2077
2080
2080
2080
2076
2080
2076
2065
2072
2072
2068
2072
2080
2080
2084
2096
2096
2089
2089
2096
2084
2081
2082
2072
2076
2061
2060
2060
2060
2059
2054
2060
2064
2061
2065
2071
2070
2073
2072
2072
2064
2068
2064
2057
2060
2056
2047
2048
2052
2048
2048
2049
2064
2056
2060
2059
2080
2077
2082
2084
2085
2089
2070
2069
2080
2058
2062
2064
2060
2069
2064
2064
2064
2080
2082
2088
2084
2089
2090
2092
2096
2096
2098
2090
2100
2089
2080
2076
2080
2076
2076
2072
2080
2076
2081
2084
2084
2080
2080
2080
2080
2080
2068
2060
2060
2052
2056
2046
2042
2056
2052
2056
2060
2072
2076
2081
2085
2086
2088
2091
2086
2090
2089
2080
2082
2070
2074
2068
2059
2058
2070
2066
2064
2067
2056
2064
2068
2072
2072
2073
2076
2072
2080
2072
2064
2061
2069
2064
2064
2052
2058
2059
2061
2064
2072
2065
2072
2075
2074
2070
2077
2072
2070
2068
2064
2064
2054
2058
2052
2052
2047
2058
2056
2068
2064
2068
2064
2070
2076
2069
1970
2072
2076
2074
2065
2060
2058
2056
2054
2052
2054
2064
2064
2066
2080
2081
2088
2092
2090
2080
2092
2088
2088
2084
2068
2072
2064
2056
2049
2060
2056
2061
2068
2068
2073
2082
2086
2089
2085
2099
2093
2112
2088
2088
2083
2080
2084
2080
2072
2077
2068
2068
2072
2088
2084
2096
2090
2096
2092
2104
2106
2105
2099
2089
2088
2080
2072
2064
2064
2065
2084
2076
2077
2082
2088
2090
2084
2104
2088
2096
2088
2097
2104
2088
2092
2098
2082
2074
2080
2072
2080
2072
2080
2096
2086
2093
2100
2112
2096
2105
2088
2093
2092
2086
2087
2080
2076
2107
2075
2074
2075
2086
2080
2085
2092
2092
2104
2106
2108
2104
2120
2104
2112
2104
2101
2092
2090
2081
2070
2074
2084
2072
2075
2080
2088
2092
2100
2101
2107
2108
2108
2114
2104
2104
2104
2094
2084
2084
2092
2096
2096
2096
2096
2112
2120
2124
2130
2136
2132
2124
2144
2134
2136
2124
2119
2112
2098
2101
2085
2088
2085
2096
2102
2106
2100
2104
2112
2130
2116
2128
2128
2129
2116
2120
2120
2116
2108
2104
2096
2093
2096
2101
2100
2109
2104
2113
2118
2114
2124
2125
2116
2112
2103
2096
2094
2088
2098
2098
2098
2112
2124
2128
2140
2152
2164
2169
2164
2176
2168
2184
2168
2168
2157
2156
2137
2136
2122
2116
2118
2122
2126
2128
2136
2137
2152
2152
2153
2150
2153
2150
2144
2144
2120
2112
2104
2092
2082
2064
2068
2076
2064
2068
2074
2082
2080
2088
2090
2100
2101
2096
2100
2096
2098
2082
2084
2070
2070
2059
2060
2061
2058
2076
2088
2080
2080
2082
2088
2092
2100
2098
2120
2090
2084
2084
2080
2072
2075
2068
2064
2073
2072
2067
2080
2074
2085
2080
2080
2082
2096
2090
2084
2080
2080
2080
2070
2068
2072
2064
2068
2066
2064
2072
2056
2047
2036
2024
2004
1978
1953
1904
1861
1813
1760
1705
1627
1560
1497
1429
1370
1333
1290
1261
1233
1218
1217
1216
1222
1248
1289
1314
1366
1432
1496
1604
1737
1896
2088
2324
2592
2880
3172
3475
3776
4064
4095
4095
4095
4095
4095
4095
4095
4095
4095
4095
4095
4095
4095
4095
4095
4095
4076
4080
4072
4068
4064
3996
3876
3696
3480
3264
3024
2774
2538
2332
2162
2024
1931
1876
1845
1840
1858
1890
1931
1979
2012
2048
2080
2088
2089
2080
2069
2056
2018
2000
1968
1938
1914
1888
1876
1856
1856
1844
1840
1844
1856
1852
1860
1860
1877
1865
1864
1864
1856
1858
1841
1837
1828
1829
1824
1818
1818
1824
1820
1828
1832
1836
1840
1840
1852
1840
1850
1840
1832
1832
1824
1809
1818
1808
1812
1810
1808
1808
1824
1817
1825
1834
1824
1827
1833
1824
1818
1816
1808
1805
1792
1792
1789
1785
1782
1794
1790
1794
1804
1808
1808
1812
1816
1819
1819
1820
1810
1810
1792
1794
1796
1782
1777
1770
1768
1780
1776
1780
1786
1792
1792
1800
1808
1806
1808
1818
1816
1824
1816
1813
1796
1792
1791
1777
1778
1778
1779
1778
1774
1779
1788
1806
1809
1809
1798
1794
1794
1798
1784
1785
1776
1776
1773
1771
1760
1760
1772
1770
1772
1786
1784
1788
1788
1790
1790
1788
1792
1781
1774
1769
1765
1757
1760
1761
1764
1768
1776
1768
1773
1780
1788
1782
1792
1802
1805
1809
1808
1810
1802
1808
1808
1800
1805
1808
1804
1816
1820
1828
1840
1848
1859
1864
1866
1877
1882
1893
1888
1888
1885
1888
1880
1864
1884
1888
1883
1897
1898
1916
1924
1927
1940
1952
1956
1962
1972
1984
1984
1984
2074
1988
1984
1981
1984
1984
1988
1986
2002
2011
2016
2029
2040
2048
2057
2065
2065
2080
2068
2071
2072
2074
2064
2056
2053
2058
2044
2047
2058
2064
2068
2074
2072
2076
2074
2073
2080
2075
2072
2072
2056
2056
2048
2036
2032
2025
2028
2024
2032
2036
2048
2040
2048
2048
2056
2056
2046
2056
2044
2044
2032
2032
2028
2018
2008
2008
2004
2012
2011
2017
2013
2024
2032
2032
2032
2034
2034
2042
2027
2038
2020
2013
2007
2009
2000
1995
2000
2003
2000
2008
2020
2010
2016
2012
2020
2032
2032
2034
2028
2032
2030
2025
2020
2024
2006
2010
2004
2016
2016
2020
2027
2028
2040
2035
2032
2038
2041
2048
2048
2032
2032
2028
2028
2020
2016
2020
2024
2024
2028
2025
2032
2031
2040
2035
2040
2041
2041
2038
2076
2025
2017
2016
2010
2009
2002
2004
2002
2009
2012
2021
2021
2027
2028
2024
2024
2024
2016
2012
2017
2004
2004
2000
1992
2000
1992
1992
1986
1996
2004
2007
2016
2012
2025
2016
2024
2033
2020
2027
2006
2004
1993
2002
1985
1969
1972
1972
1968
1968
1994
1996
1988
2004
2000
2006
2016
2016
2024
2018
2018
2004
1997
1997
1992
1984
1984
1980
1974
1988
1982
1988
1994
2001
2006
2008
2008
2011
2008
2004
2004
2008
2000
2000
1984
1988
1976
1984
1984
1977
1984
1989
2002
2008
2006
2013
2016
2019
2018
2017
2015
2013
2010
1996
1992
1992
1998
1997
1994
1996
1996
2002
2000
2012
2014
2024
2020
2024
2024
2020
2026
2019
2010
2017
2000
1993
2000
1994
2000
1994
2009
2000
2005
2011
2012
2024
2021
2027
2021
2025
2022
2008
2016
2008
2008
2000
1996
1996
1994
2000
2008
2016
2017
2019
2029
2030
2033
2034
2026
2026
2029
2009
2004
2000
1998
1993
2000
1990
1988
1997
2006
2013
2016
2022
2024
2036
2026
2032
2034
2020
2024
2025
2008
2016
2006
2009
2003
2005
2009
2006
2013
2021
2023
2026
2030
2035
2032
2038
2048
2034
2027
2024
2025
2022
2012
2010
2008
2008
2004
2008
2112
2020
2016
2028
2036
2036
2040
2036
2048
2035
2035
2030
2032
2023
2023
2016
2017
2016
2018
2019
2022
2032
2032
2030
2048
2040
2050
2049
2047
2047
2046
2056
2040
2047
2036
2044
2040
2040
2040
2048
2057
2048
2058
2064
2058
2061
2072
2064
2068
2068
2059
2048
2052
2048
2026
2021
2016
2012
2016
2019
2032
2044
2058
2064
2076
2100
2104
2112
2128
2136
2144
2144
2125
2120
2105
2098
2088
2090
2080
2073
2077
2080
2083
2098
2096
2102
2104
2099
2102
2106
2104
2096
2088
2076
2081
2064
2056
2052
2047
2047
2046
2048
2048
2048
2048
2056
2048
2048
2048
2040
2041
2039
2036
2032
2018
2012
2022
2024
2018
2029
2033
2040
2040
2054
2058
2044
2045
2047
2044
2047
2047
2040
2032
2032
2018
2024
2016
2020
2021
2022
2032
2032
2052
2048
2040
2049
2050
2053
2048
2048
2048
2032
2025
2032
2024
2010
2020
2012
2016
2018
2032
2028
2036
2045
2032
2044
2044
2034
2036
2024
1996
1984
1947
1909
1868
1827
1765
1724
1667
1609
1552
1500
1432
1378
1326
1273
1248
1204
1200
1177
1160
1156
1152
1164
1196
1232
1296
1376
1474
1621
1808
2012
2261
2520
2816
3120
3416
3722
4012
4095
4095
4095
4095
4095
4095
4095
4095
4095
4095
4095
4080
4088
4080
4084
4080
4080
4064
4072
4064
4094
4084
3952
3770
3536
3291
3024
2768
2524
2310
2133
1992
1899
1836
1810
1809
1828
1860
1904
1952
1988
2024
2037
2056
2052
2052
2038
2020
2012
1980
1964
1946
1928
1920
1897
1881
1870
1860
1856
1852
1842
1840
1834
1830
1826
1824
1821
1824
1821
1830
1832
1832
1840
1842
1844
1840
1844
1848
1842
1846
1832
1828
1832
1808
1804
1808
1800
1796
1800
1802
1810
1814
1818
1824
1828
1837
1837
1834
1828
1838
1833
1824
1819
1812
1797
1792
1797
1792
1792
1788
1796
1796
1808
1810
1816
1825
1818
1832
1826
1824
1821
1820
1813
1810
1802
1792
1795
1778
1793
1785
1785
1786
1804
1807
1817
1816
1818
1816
1824
1820
1824
1812
1808
1800
1791
1791
1796
1785
1784
1784
1802
1808
1809
1816
1830
1832
1830
1827
1846
1828
1825
1821
1813
1801
1797
1792
1782
1784
1784
1784
1794
1808
1812
1816
1820
1816
1828
1828
1824
1820
1828
1816
1812
1808
1803
1801
1801
1801
1806
1793
1800
1798
1801
1816
1809
1816
1826
1827
1824
1830
1830
1826
1821
1828
1828
1821
1824
1828
1830
1836
1848
1856
1858
1876
1883
1884
1892
1901
1904
1908
1912
1909
1909
1898
1909
1906
1904
1910
1913
1928
1928
1924
1953
1965
1968
1977
1976
1984
2002
2000
2004
2000
2000
1996
2010
2004
2008
2008
2012
2029
2034
2050
2052
2064
2072
2072
2085
2080
2096
2092
2093
2096
2086
2080
2088
2080
2085
2082
2088
2098
2100
2096
2096
2108
2114
2108
2120
2120
2114
2120
2106
2112
2100
2096
2086
2082
2080
2074
2066
2073
2084
2082
2088
2086
2097
2091
2100
2100
2086
2080
2088
2072
2076
2064
2056
2046
2046
2040
2032
2036
2038
2048
2050
2050
2052
2060
2064
2057
2056
2056
2058
2060
2052
2056
2048
2040
2036
2048
2048
2048
2056
2052
2065
2072
2072
2072
2080
2080
2088
2080
2088
2082
2064
2056
2067
2053
2048
2048
2048
2052
2056
2058
2080
2074
2080
2085
2088
2093
2103
2088
2080
2080
2070
2060
2056
2068
2047
2040
2047
2044
2056
2047
2056
2056
2065
2072
2065
2076
2080
2080
2072
2065
2018
2060
2052
2057
2048
2050
2049
2060
2064
2060
2072
2080
2080
2080
2080
2082
2084
2076
2072
2064
2056
2047
2060
2050
2048
2048
2048
2064
2053
2064
2068
2071
2082
2070
2080
2073
2081
2084
2081
2074
2064
2064
2057
2057
2052
2044
2046
2047
2047
2060
2064
2068
2065
2068
2072
2072
2070
2066
2072
2064
2066
2054
2053
2056
2058
2054
2052
2061
2058
2072
2080
2088
2090
2088
2092
2106
2104
2088
2080
2072
2072
2064
2064
2060
2065
2064
2068
2074
2080
2088
2096
2084
2096
2100
2107
2099
2089
2100
2089
2086
2080
2070
2068
2066
2074
2072
2074
2080
2089
2092
2088
2096
2096
2106
2104
2106
2104
2105
2100
2112
2096
2096
2096
2112
2093
2085
2088
2096
2096
2102
2106
2112
2114
2122
2130
2133
2134
2131
2118
2121
2114
2100
2096
2084
2084
2080
2092
2100
2104
2106
2112
2132
2134
2132
2144
2138
2134
2137
2138
2139
2128
2124
2113
2112
2115
2112
2112
2115
2117
2122
2126
2128
2131
2130
2124
2128
2128
2130
2128
2116
2118
2104
2120
2112
2104
2113
2109
2117
2115
2120
2122
2130
2132
2137
2136
2184
2134
2129
2124
2124
2120
2128
2113
2108
2120
2112
2112
2116
2132
2136
2136
2132
2148
2144
2132
2132
2134
2129
2131
2121
2112
2120
2117
2117
2116
2120
2123
2128
2131
2145
2138
2146
2154
2156
2156
2148
2160
2152
2145
2144
2136
2144
2128
2124
2120
2122
2130
2145
2140
2146
2163
2160
2162
2156
2164
2160
2158
2152
2144
2148
2130
2113
2120
2112
2122
2120
2131
2140
2145
2140
2152
2152
2154
2160
2162
2162
2162
2164
2162
2152
2152
2146
2126
2138
2130
2136
2148
2144
2160
2160
2176
2176
2169
2176
2184
2169
2164
2166
2160
2152
2152
2146
2144
2144
2148
2180
2169
2176
2186
2200
2210
2216
2224
2220
2224
2226
2224
2216
2209
2212
2196
2192
2178
2180
2176
2188
2181
2177
2176
2188
2184
2186
2186
2178
2177
2176
2168
2160
2144
2137
2132
2124
2120
2120
2120
2120
2121
2132
2136
2140
2139
2146
2152
2149
2154
2157
2144
2146
2148
2132
2136
2120
2126
2112
2118
2104
2018
2112
2124
2128
2128
2144
2144
2152
2148
2144
2146
2144
2140
2133
2125
2128
2115
2108
2105
2112
2112
2108
2116
2125
2124
2134
2132
2136
2148
2139
2133
2128
2124
2112
2112
2096
2100
2088
2088
2088
2084
2082
2074
2056
2048
2009
1962
1956
1916
1868
1813
1758
1689
1619
1556
1504
1442
1397
1368
1338
1319
1300
1309
1338
1354
1373
1412
1440
1498
1548
1624
1728
1828
1984
2169
2392
2644
2912
3193
3489
3766
4044
4095
4095
4095
4095
4095
4095
4095
4095
4095
4095
4095
4095
4095
4084
4072
4072
4080
4072
4064
4068
4048
3976
3864
3698
3482
3248
3009
2784
2570
2385
2234
2113
2030
1990
1956
1966
1978
1997
2048
2072
2104
2122
2153
2154
2157
2152
2130
2116
2088
2068
2045
2020
1996
1976
1954
1929
1922
1908
1904
1904
1902
1905
1904
1910
1912
1908
1920
1913
1914
1906
1902
1906
1888
1889
1877
1888
1874
1884
1884
1888
1890
1900
1892
1888
1904
1898
1900
1893
1884
1889
1882
1872
1870
1858
1866
1852
1852
1856
1856
1856
1856
1868
1872
1874
1880
1876
1880
1872
1873
1880
1872
1861
1856
1852
1844
1848
1840
1840
1848
1846
1856
1864
1868
1876
1873
1869
1876
1878
1880
1876
1866
1872
1872
1864
1858
1852
1845
1846
1856
1852
1856
1872
1864
1866
1874
1868
1872
1876
1876
1872
1864
1872
1871
1857
1858
1863
1856
1864
1867
1872
1880
1880
1876
1874
1883
1885
1876
1867
1868
1856
1858
1848
1848
1842
1832
1832
1840
1848
1848
1928
1858
1868
1872
1880
1874
1868
1867
1882
1874
1862
1875
1866
1861
1853
1852
1846
1856
1856
1849
1858
1860
1870
1875
1878
1882
1888
1892
1888
1892
1896
1896
1888
1892
1892
1904
1896
1910
1912
1914
1934
1936
1952
1956
1960
1962
1976
1973
1981
1984
1976
1996
1975
1984
1985
1992
1992
1992
2008
2008
2018
2032
2036
2044
2047
2047
2056
2068
2064
2067
2060
2066
2066
2065
2060
2066
2070
2084
2084
2094
2101
2108
2120
2130
2133
2141
2138
2152
2144
2145
2138
2130
2128
2128
2121
2112
2120
2120
2128
2120
2136
2125
2138
2140
2139
2132
2140
2144
2130
2132
2128
2116
2112
2113
2113
2098
2099
2105
2100
2112
2097
2104
2112
2108
2116
2116
2122
2124
2118
2122
2108
2104
2100
2092
2076
2080
2082
2074
2080
2085
2091
2089
2097
2101
2114
2106
2114
2116
2116
2096
2096
2104
2080
2086
2080
2072
2076
2080
2080
2084
2088
2096
2104
2112
2112
2115
2112
2112
2108
2112
2096
2090
2083
2080
2088
2073
2080
2084
2080
2082
2085
2093
2099
2104
2112
2112
2112
2112
2104
2096
2100
2096
2100
2088
2080
2074
2080
2077
2074
2081
2077
2085
2096
2092
2102
2102
2096
2108
2112
2106
2092
2088
2080
2076
2065
2064
2056
2056
2057
2052
2072
2066
2076
2088
2088
2088
2092
2084
2096
2086
2086
2074
2070
2064
2060
2056
2060
2056
2064
2070
2080
2088
2088
2096
2089
2093
2086
2083
2084
2074
2066
2056
2060
2047
2058
2047
2056
2056
2056
2064
2074
2080
2085
2080
2093
2090
2088
2081
2084
2076
2069
2070
2057
2048
2048
2057
2048
2048
2058
2061
2066
2068
2080
2080
2076
2080
2081
2082
2082
2082
2074
2072
2064
2056
2060
2053
2060
2058
2080
2080
2082
2086
2098
2100
2091
2100
2096
2096
2081
2096
2097
2085
2082
2080
2076
2072
2074
2082
2088
2084
2090
2096
2098
2100
2112
2104
2097
2092
2090
2092
2096
2080
2080
2070
2076
2068
2069
2080
2080
2084
2083
2089
2091
2080
2092
2090
2092
2088
2090
2088
2084
2081
2068
2064
2064
2064
2068
2080
2082
2081
2082
2098
2091
2102
2090
2103
2104
2098
2090
2083
2084
2069
2074
2065
2060
2065
2065
2072
2072
2080
2084
2090
2098
2096
2096
2096
2088
2096
2089
2076
2081
2061
2057
2057
2048
2048
2049
2058
2066
2069
2069
2080
2080
2097
2098
2100
2100
2092
2092
2083
2076
2076
2068
2064
2064
2060
2064
2068
2072
2074
2080
2082
2091
2091
2093
2107
2096
2097
2092
2096
2083
2088
2081
2068
2069
2065
2068
2064
2069
2076
2072
2084
2084
2084
2092
2096
2090
2081
2080
2080
2072
2072
2066
2076
2064
2064
2058
2061
2072
2072
2081
2082
2088
2092
2092
2085
2088
2088
2092
2084
2088
2076
2068
2064
2064
2064
2064
2072
2076
2072
2076
2088
2096
2096
2104
2100
2112
2100
2098
2080
2090
2072
2060
2061
2064
2064
2048
2060
2064
2066
2060
2068
2077
2081
2088
2090
2100
2108
2116
2120
2128
2136
2136
2144
2144
2140
2144
2144
2140
2140
2136
2140
2136
2144
2144
2146
2132
2133
2137
2129
2128
2116
2114
2106
2112
2112
2106
2114
2108
2112
2112
2112
2108
2100
2096
2088
2092
2080
2088
2073
2065
2060
2061
2061
2056
2064
2064
2068
2072
2074
2076
2083
2080
2090
2084
2091
2080
2075
2080
2073
2064
2064
2052
2060
2047
2047
2064
2056
2064
2060
2068
2068
2068
2076
2074
2080
2082
2074
2072
2072
2056
2060
2060
2053
2050
2048
2048
2061
2057
2064
2069
2080
2076
2080
2074
2080
2072
2064
2056
2042
2034
2020
2008
2000
1978
1946
1922
1893
1864
1818
1781
1728
1673
1622
1552
1493
1428
1366
1323
1269
1233
1191
1172
1158
1168
1161
1204
1232
1276
1332
1400
1500
1624
1764
1936
2160
2400
2658
2949
3234
3528
3808
4056
4095
4095
4095
4095
4095
4095
4095
4095
4095
4095
4095
4095
4095
4072
4080
4080
4080
4088
4068
4056
4048
3952
3816
3632
3394
3144
2891
2653
2429
2234
2081
1970
1888
1836
1819
1832
1842
1885
1915
1953
1975
2018
2035
2048
2050
2046
2040
2032
2012
1988
1964
1944
1925
1900
1880
1864
1838
1833
1816
1815
1805
1795
1801
1803
1821
1829
1828
1834
1845
1833
1833
1836
1832
1822
1824
1818
1798
1800
1790
1784
1780
1786
1788
1788
1796
1792
1800
1800
1810
1806
1816
1813
1808
1804
1801
1796
1792
1784
1784
1768
1765
1762
1767
1769
1770
1779
1778
1784
1788
1800
1808
1804
1804
1794
1796
1796
1790
1778
1772
1765
1763
1748
1754
1754
1756
1762
1761
1768
1776
1784
1777
1777
1779
1768
1773
1765
1758
1752
1749
1736
1738
1744
1740
1749
1760
1760
1768
1764
1784
1782
1784
1778
1776
1770
1777
1772
1750
1745
1741
1736
1729
1733
1731
1736
1748
1752
1760
1770
1774
1774
1776
1778
1777
1784
1776
1766
1760
1760
1740
1736
1728
1732
1720
1733
1732
1736
1734
1744
1748
1752
1750
1763
1762
1756
1750
1748
1744
1746
1740
1736
1734
1737
1737
1744
1754
1764
1778
1780
1790
1800
1796
1804
1808
1801
1802
1800
1800
1792
1794
1796
1798
1804
1817
1818
1829
1840
1846
1861
1865
1874
1880
1890
1886
1884
1880
1890
1880
1888
1876
1888
1888
1890
1896
1912
1916
1928
1952
1952
1963
1970
1980
1996
2000
2000
2001
2005
1995
2004
2000
1992
1987
1996
2000
2006
2012
2008
2030
2024
2040
2044
2056
2047
2047
2056
2046
2046
2040
2036
2025
2024
2012
2016
2009
2020
2020
2026
2030
2034
2033
2036
2036
2033
2037
2032
2040
2028
2020
2016
2017
2001
1997
2000
2000
2004
2008
2012
2008
2016
2016
2020
2016
2018
2013
2010
2004
1996
1994
1990
1988
1985
1980
1984
1984
1986
1989
1995
1996
2001
2008
2004
2014
2005
2008
2004
2000
2000
1988
1992
1988
1988
1984
1988
1984
1985
1988
1991
2000
2006
1998
2002
1996
2000
2000
2000
1997
1993
1985
1978
1968
1960
1962
1949
1952
1960
1957
1972
1980
1982
2000
1994
1996
2008
2005
2008
2000
1996
1990
1988
1977
1978
1970
1976
1972
1984
1981
1990
1992
1994
1996
1997
2001
2001
1994
1995
1992
1988
1980
1976
1968
1972
1964
1976
1972
1969
1980
1982
1993
2000
2003
1997
2001
2000
2000
1997
1997
1984
1973
1973
1969
1956
1965
1964
1970
1973
1972
1979
1992
1988
1993
2004
1994
1996
1988
1996
1988
1986
1980
1968
1968
1964
1955
1962
1966
1974
1969
1988
1978
1992
1977
1996
2004
2002
1993
2004
1993
1987
1981
1973
1985
1962
1971
1978
1972
1982
1992
1996
1996
2008
2016
2020
2018
2024
2018
2016
2009
2002
1992
1988
1980
1978
1976
1984
1981
1987
1990
1996
2001
2016
2011
2013
2016
2020
2013
2012
2016
2008
2008
1994
1994
1992
1988
1988
1992
1996
2001
2004
2007
2008
2016
2018
2019
2019
2016
2020
2008
2000
1995
1989
1975
1977
1984
1977
1988
2000
1996
2008
2016
2018
2024
2024
2032
2024
2020
2028
2016
2012
2007
2000
2000
1997
1987
1988
1992
1996
2000
2000
2011
2011
2016
2020
2021
2018
2016
2017
2008
2008
2004
1996
1986
1988
1992
1988
1994
2000
1994
2084
2004
2016
2016
2016
2022
2016
2013
2016
2016
2001
1997
1997
1994
1990
2000
1994
2001
2004
2009
2011
2019
2018
2028
2024
2022
2024
2020
2020
2016
2004
2008
2000
1992
1996
1998
2000
2000
2001
2009
2012
2013
2026
2028
2034
2029
2028
2024
2025
2022
2022
2016
2005
2000
2006
2003
2004
2000
2008
2006
2013
2020
2028
2028
2036
2033
2037
2030
2035
2019
2032
2008
2016
1998
2004
2006
2008
2000
2010
2012
2018
2020
2033
2029
2040
2048
2048
2048
2044
2036
2033
2024
2028
2024
2012
2024
2012
2016
2012
2020
2017
2024
2032
2037
2037
2048
2037
2037
2035
2048
2052
2048
2054
2052
2066
2078
2080
2088
2089
2092
2096
2100
2100
2096
2097
2088
2082
2080
2080
2064
2080
2062
2054
2057
2059
2048
2050
2048
2054
2064
2056
2072
2069
2064
2064
2065
2064
2058
2048
2048
2036
2034
2024
2024
2021
2017
2010
2016
2016
2028
2026
2032
2042
2034
2048
2048
2040
2037
2036
2022
2028
2026
2022
2012
2016
2020
2019
2021
2024
2026
2032
2032
2040
2040
2044
2044
2047
2040
2046
2036
2040
2020
2020
2018
2016
2020
2016
2011
2016
2019
2034
2027
2026
2034
2037
2040
2042
2038
2041
2027
2022
2010
2004
1992
1976
1964
1948
1932
1912
1884
1860
1808
1773
1722
1668
1604
1544
1483
1428
1376
1314
1280
1225
1193
1174
1163
1155
1163
1184
1201
1239
1294
1357
1433
1547
1688
1861
2064
2292
2512
2814
3088
3380
3668
3936
4072
4076
4095
4095
4095
4095
4095
4095
4095
4095
4095
4095
4095
4095
4095
4095
4095
4095
4095
4095
4056
3921
3746
3538
3289
3016
2768
2548
2352
2192
2056
1961
1896
1864
1844
1868
1891
1926
1957
1996
2024
2057
2066
2077
2071
2073
2052
2028
2011
1988
1961
1937
1905
1888
1867
1851
1832
1826
1836
1824
1820
1824
1836
1832
1840
1850
1850
1852
1856
1856
1858
1852
1848
1843
1835
1832
1824
1824
1800
1812
1806
1803
1802
1817
1825
1829
1826
1828
1846
1832
1836
1834
1836
1916
1838
1824
1832
1812
1808
1808
1808
1808
1810
1814
1818
1821
1825
1835
1830
1837
1837
1837
1845
1843
1837
1827
1817
1815
1818
1817
1813
1820
1824
1824
1828
1834
1840
1834
1836
1832
1828
1824
1825
1824
1812
1803
1808
1804
1797
1796
1798
1794
1802
1805
1811
1817
1818
1820
1824
1821
1828
1829
1829
1832
1826
1826
1813
1812
1808
1808
1808
1812
1808
1801
1808
1810
1819
1827
1827
1829
1833
1834
1830
1830
1826
1824
1816
1810
1805
1804
1805
1808
1808
1813
1824
1826
1840
1844
1832
1840
1840
1840
1840
1840
1828
1836
1827
1830
1824
1824
1826
1828
1820
1827
1842
1850
1848
1856
1857
1864
1856
1870
1880
1882
1872
1878
1878
1882
1884
1872
1884
1896
1904
1912
1932
1936
1944
1960
1965
1971
1973
1984
1984
1980
1996
1980
1981
1986
1987
1984
1992
1997
2005
2003
2018
2028
2064
2042
2049
2052
2060
2060
2064
2066
2066
2068
2068
2074
2068
2076
2083
2088
2100
2112
2112
2120
2112
2125
2130
2128
2122
2122
2120
2120
2112
2106
2098
2096
2088
2084
2089
2092
2092
2096
2096
2096
2096
2098
2098
2100
2092
2088
2084
2080
2074
2060
2073
2060
2067
2051
2054
2064
2060
2068
2060
2066
2072
2082
2083
2080
2081
2082
2080
2072
2076
2060
2064
2056
2047
2046
2047
2047
2048
2048
2050
2058
2057
2054
2051
2060
2056
2061
2060
2059
2053
2056
2048
2056
2058
2055
2058
2064
2070
2074
2080
2080
2084
2084
2088
2096
2088
2080
2088
2084
2074
2065
2064
2060
2065
2060
2059
2056
2062
2065
2080
2068
2080
2080
2089
2080
2080
2080
2080
2075
2070
2066
2057
2056
2052
2047
2047
2052
2056
2060
2064
2064
2064
2080
2080
2082
2075
2076
2073
2058
2058
2050
2048
2037
2037
2037
2037
2040
2048
2058
2056
2065
2069
2073
2081
2080
2080
2080
2072
2068
2068
2056
2052
2045
2036
2037
2048
2048
2048
2056
2057
2058
2061
2064
2058
2075
2069
2068
2074
2064
2072
2059
2061
2053
2061
2054
2064
2056
2056
2068
2073
2080
2080
2092
2096
2096
2106
2104
2104
2102
2089
2092
2074
2082
2074
2080
2076
2080
2082
2093
2092
2099
2107
2112
2116
2112
2112
2102
2101
2096
2092
2082
2084
2080
2076
2080
2092
2088
2092
2101
2112
2115
2117
2123
2121
2121
2113
2123
2116
2114
2108
2088
2085
2080
2076
2081
2084
2089
2094
2092
2106
2108
2112
2113
2116
2114
2120
2112
2112
2112
2100
2096
2098
2096
2088
2100
2092
2092
2108
2106
2107
2105
2120
2116
2116
2125
2118
2116
2120
2124
2114
2101
2102
2100
2096
2096
2098
2100
2104
2108
2120
2112
2128
2120
2131
2128
2122
2132
2128
2120
2121
2128
2108
2114
2104
2102
2113
2098
2114
2112
2112
2113
2125
2122
2122
2128
2124
2136
2128
2128
2124
2128
2124
2122
2120
2121
2112
2119
2129
2136
2134
2128
2126
2136
2129
2137
2135
2133
2123
2123
2118
2113
2112
2113
2101
2112
2108
2106
2104
2116
2116
2120
2124
2128
2128
2128
2138
2128
2129
2120
2128
2109
2112
2098
2113
2104
2112
2116
2121
2133
2134
2139
2138
2136
2144
2137
2144
2128
2130
2122
2106
2112
2106
2104
2100
2096
2100
2100
2104
2112
2120
2125
2128
2140
2140
2153
2156
2165
2168
2172
2167
2176
2165
2156
2164
2154
2152
2148
2162
2162
2157
2160
2152
2164
2162
2160
2168
2160
2152
2160
2160
2152
2154
2146
2145
2128
2130
2122
2124
2130
2120
2113
2128
2112
2120
2118
2120
2112
2124
2113
2112
2105
2112
2096
2090
2092
2088
2096
2101
2104
2112
2104
2120
2112
2116
2116
2117
2117
2112
2116
2102
2090
2091
2088
2070
2075
2084
2080
2092
2096
2097
2112
2105
2112
2120
2120
2112
2108
2104
2098
2092
2096
2084
2080
2080
2080
2086
2086
2101
2100
2103
2105
2105
2107
2112
2098
2096
2076
2065
2048
2019
2000
1970
1923
1888
1844
1797
1752
1696
1644
1592
1550
1496
1448
1424
1380
1344
1326
1325
1313
1322
1326
1345
1364
1398
1447
1504
1579
1684
1814
1977
2176
2400
2650
2928
3202
3476
3760
4020
4072
4080
4080
4076
4080
4080
4084
4080
4084
4095
4095
4095
4095
4095
4095
4095
4095
4095
4095
4066
3968
3824
3626
3409
3181
2952
2732
2528
2360
2216
2116
2034
1992
1976
1976
1990
2018
2044
2060
2088
2105
2120
2124
2112
2097
2082
2064
2040
2012
1997
1976
1965
1940
1932
1925
1910
1904
1904
1891
1882
1873
1870
1856
1862
1858
1861
1860
1856
1858
1860
1868
1872
1872
1864
1865
1872
1862
1865
1862
1857
1851
1842
1837
1832
1827
1824
1824
1835
1835
1838
1844
1850
1849
1856
1860
1850
1852
1853
1840
1844
1828
1832
1820
1816
1812
1816
1810
1822
1816
1825
1832
1844
1838
1840
1929
1849
1843
1842
1836
1826
1827
1820
1822
1804
1801
1805
1796
1812
1810
1816
1832
1824
1834
1832
1840
1836
1840
1844
1840
1833
1830
1818
1816
1809
1812
1808
1809
1808
1810
1817
1826
1824
1824
1824
1824
1827
1824
1826
1812
1804
1812
1824
1808
1792
1790
1794
1800
1804
1804
1808
1804
1810
1816
1816
1818
1820
1683
1808
1809
1803
1793
1785
1781
1784
1774
1776
1771
1776
1784
1792
1798
1794
1812
1812
1808
1816
1820
1818
1820
1808
1812
1802
1800
1797
1792
1798
1803
1804
1808
1816
1824
1830
1833
1846
1852
1846
1851
1858
1860
1859
1857
1864
1869
1869
1873
1876
1888
1900
1904
1908
1924
1924
1940
1952
1956
1953
1952
1952
1946
1952
1956
1952
1954
1956
1952
1961
1968
1984
1978
1993
2003
2011
2024
2024
2038
2041
2040
1944
2042
2047
2044
2042
2026
2032
2028
2036
2040
2051
2048
2054
2060
2068
2074
2080
2080
2075
2080
2076
2080
2068
2061
2058
2061
2052
2049
2048
2052
2048
2042
2064
2060
2057
2052
2060
2056
2058
2058
2056
2049
2052
2050
2030
2036
2020
2024
2024
2024
2037
2036
2039
2040
2049
2051
2050
2057
2050
2048
2048
2032
2039
2032
2020
2012
2009
2008
2016
2008
2012
2024
2024
2034
2040
2040
2048
2050
2060
2048
2048
2041
2034
2032
2018
2016
2024
2014
2016
2016
2023
2028
2040
2036
2036
2046
2047
2052
2047
2052
2047
2044
2040
2036
2033
2028
2026
2024
2026
2024
2025
2025
2028
2040
2048
2042
2037
2040
2040
2040
2035
2028
2026
2024
2016
2012
2016
2008
2008
2016
2021
2032
2032
2040
2042
2046
2050
2052
2048
2053
2040
2030
2029
2024
2016
2004
1998
2000
1994
1997
2000
2000
2012
2013
2028
2022
2027
2023
2032
2032
2028
2032
2032
2020
2020
2018
2016
2012
2018
2016
2016
2016
2032
2040
2034
2040
2048
2048
2049
2049
2038
2041
2033
2032
2016
2018
2013
2008
2016
2020
2028
2032
2026
2032
2044
2047
2056
2056
2052
2064
2050
2048
2038
2039
2029
2036
2022
2022
2019
2024
2018
2026
2048
2056
2056
2056
2053
2060
2068
2064
2058
2056
2065
2047
2047
2034
2040
2044
2030
2042
2040
2042
2052
2056
2064
2058
2070
2067
2069
2072
2060
2061
2064
2049
2048
2033
2039
2035
2034
2048
2040
2050
2058
2064
2061
2064
2072
2068
2080
2072
2066
2152
2060
2056
2056
2052
2053
2049
2049
2050
2065
2068
2066
2072
2070
2086
2088
2086
2091
2077
2082
2075
2076
2069
2065
2061
2053
2046
2047
2060
2068
2058
2072
2080
2084
2084
2096
2092
2102
2092
2088
2082
2076
2072
2068
2065
2060
2048
2050
2052
2058
2059
2065
2062
2064
2072
2069
2086
2076
2080
2072
2068
2066
2064
2060
2056
2056
2060
2056
2064
2068
2065
2080
2080
2085
2088
2086
2096
2097
2097
2097
2090
2087
2083
2072
2074
2067
2070
2073
2072
2088
2082
2088
2088
2082
2088
2088
2090
2084
2088
2080
2074
2068
2066
2064
2060
2054
2056
2073
2070
2074
2094
2096
2100
2107
2108
2113
2107
2105
2104
2096
2096
2096
2074
2069
2064
2056
2056
2056
2060
2064
2076
2072
2084
2089
2100
2107
2112
2125
2132
2139
2144
2144
2138
2138
2132
2128
2121
2120
2121
2121
2125
2117
2120
2128
2136
2130
2136
2144
2128
2132
2122
2112
2120
2114
2100
2089
2097
2086
2089
2089
2096
2088
2090
2085
2082
2083
2084
2080
2080
2069
2067
2061
2056
2052
2048
2048
2046
2047
2056
2060
2064
2058
2080
2076
2074
2080
2081
2088
2088
2088
2077
2076
2072
2071
2057
2058
2058
2056
2056
2066
2058
2074
2074
2075
2080
2082
2088
2085
2084
2080
2074
2064
2064
2052
2047
2044
2052
2064
2064
2066
2070
2074
2077
2088
2088
2088
2090
2086
2069
2064
2040
2018
2000
1965
1933
1896
1856
1809
1764
1714
1668
1608
1548
1504
1448
1404
1357
1332
1296
1252
1232
1216
1206
1206
1218
1252
1298
1349
1431
1524
1664
1821
2016
2244
2504
2779
3072
3369
3664
3936
4095
4095
4076
4080
4080
4080
4080
4080
4084
4080
4080
4095
4095
4095
4095
4095
4095
4095
4095
4095
4095
4054
3925
3752
3520
3273
3017
2773
2539
2336
2168
2051
1956
1890
1878
1880
1896
1924
1964
2000
2036
2047
2072
2085
2085
2081
2069
2048
2023
2020
2000
1980
1960
1944
1925
1911
1907
1892
1880
1881
1866
1853
1856
1849
1846
1843
1852
1857
1760
1864
1858
1876
1872
1866
1876
1864
1872
1864
1856
1846
1830
1828
1826
1814
1816
1810
1808
1810
1826
1826
1824
1833
1841
1845
1848
1856
1856
1850
1864
1856
1853
1848
1848
1836
1828
1834
1828
1820
1825
1826
1837
1832
1833
1842
1840
1845
1852
1847
1843
1847
1840
1826
1824
1817
1814
1812
1811
1810
1817
1824
1828
1834
1836
1852
1846
1842
1848
1848
1852
1848
1844
1833
1824
1818
1804
1812
1816
1808
1811
1818
1826
1824
1820
1828
1829
1832
1836
1833
1831
1828
1826
1812
1816
1816
1809
1812
1808
1816
1816
1817
1832
1837
1832
1835
1832
1848
1838
1841
1842
1825
1816
1822
1812
1795
1802
1798
1792
1780
1800
1796
1800
1810
1814
1819
1828
1832
1840
1840
1826
1844
1840
1836
1824
1832
1820
1814
1825
1832
1840
1849
1858
1862
1872
1876
1884
1888
1896
1902
1900
1902
1901
1904
1898
1901
1905
1904
1916
1920
1929
1940
1948
1956
1970
1972
1984
1976
1986
1992
2001
1996
1993
1995
1990
1990
2003
2002
2012
2024
2028
2036
2048
2065
2068
2077
2084
2091
2096
2102
2098
2104
2096
2090
2088
2084
2088
2088
2092
2096
2100
2112
2117
2120
2125
2124
2120
2128
2134
2132
2125
2122
2114
2112
2103
2091
2085
2096
2089
2088
2089
2088
2096
2092
2096
2108
2114
2114
2105
2106
2108
2104
2106
2090
2088
2085
2080
2075
2084
2070
2080
2082
2086
2086
2086
2089
2093
2086
2084
2084
2077
2075
2058
2065
2068
2056
2047
2056
2045
2052
2056
2060
2072
2080
2072
2080
2069
2080
2080
2074
2080
2068
2068
2064
2056
2056
2048
2052
2058
2061
2056
2066
2070
2096
2088
2092
2088
2072
2092
2088
2092
2080
2080
2080
2064
2064
2056
2066
2056
2056
2059
2062
2082
2073
2081
2089
2091
2096
2097
2100
2090
2096
2080
2080
2066
2068
2061
2056
2066
2056
2060
2047
2068
2072
2076
2068
2072
2072
2072
2070
2068
2061
2064
2051
2064
2052
2051
2056
2058
2061
2070
2077
2083
2084
2080
2094
2100
2097
2092
2088
2088
2080
2066
2064
2057
2052
2052
2044
2064
2064
2056
2061
2067
2070
2082
2077
2090
2080
2085
2080
2071
2081
2070
2068
2057
2053
2048
2052
2049
2057
2068
2068
2076
2084
2088
2089
2096
2092
2092
2092
2088
2088
2084
2080
2080
2076
2064
2064
2066
2075
2075
2080
2080
2089
2096
2098
2100
2097
2102
2101
2101
2089
2088
2085
2072
2074
2068
2068
2072
2080
2092
2088
2092
2101
2112
2108
2118
2117
2112
2112
2105
2101
2094
2096
2096
2096
2089
2089
2096
2096
2094
2102
2097
2112
2117
2108
2108
2116
2116
2106
2100
2100
2097
2092
2088
2084
2080
2084
2096
2086
2092
2098
2112
2112
2130
2118
2120
2116
2117
2115
2116
2112
2098
2104
2094
2096
2096
2096
2092
2088
2092
2100
2108
2121
2120
2128
2124
2128
2130
2121
2121
2106
2107
2100
2092
2085
2084
2075
2084
2088
2085
2094
2101
2107
2112
2120
2124
2128
2128
2128
2120
2116
2116
2104
2104
2100
2092
2100
2098
2112
2112
2112
2112
2120
2128
2128
2132
2144
2128
2130
2129
2115
2114
2112
2096
2098
2102
2096
2093
2098
2104
2112
2116
2128
2140
2140
2144
2148
2168
2148
2140
2148
2132
2124
2120
2118
2101
2100
2101
2096
2092
2104
2112
2118
2124
2132
2134
2144
2154
2158
2165
2166
2176
2166
2168
2168
2168
2164
2160
2169
2164
2172
2170
2176
2184
2185
2184
2178
2184
2165
2176
2169
2156
2162
2148
2144
2144
2147
2144
2134
2141
2137
2133
2130
2132
2121
2112
2100
2104
2106
2096
2090
2096
2096
2088
2080
2080
2085
2090
2091
2096
2102
2105
2112
2112
2112
2112
2115
2112
2105
2106
2106
2090
2088
2088
2089
2082
2080
2084
2088
2088
2100
2092
2104
2112
2120
2113
2116
2120
2117
2112
2112
2104
2098
2088
2080
2080
2070
2076
2088
2084
2097
2090
2101
2117
2114
2115
2120
2108
2118
2104
2080
2068
2052
2024
2008
1984
1952
1928
1890
1850
1808
1756
1702
1645
1588
1532
1473
1427
1395
1360
1331
1318
1308
1307
1321
1339
1362
1392
1437
1482
1545
1640
1736
1860
2016
2204
2424
2672
2942
3200
3512
3792
4040
4095
4095
4095
4095
4095
4095
4095
4095
4095
4095
4095
4095
4095
4095
4095
4095
4095
4095
4095
4064
3896
3736
3544
3332
3112
2900
2692
2504
2340
2228
2116
2037
2004
1986
1990
2000
2020
2039
2060
2083
2097
2112
2119
2112
2112
2100
2076
2072
2048
2026
2006
1990
1976
1956
1948
1930
1920
1904
1896
1884
1888
1880
1872
1876
1879
1882
1888
1891
1901
1907
1909
1910
1914
1910
1909
1901
1901
1888
1888
1876
1870
1860
1858
1851
1861
1868
1876
1876
1888
1884
1880
1894
1880
1884
1882
1877
1872
1862
1858
1856
1852
1845
1845
1843
1850
1848
1856
1869
1869
1868
1878
1878
1885
1882
1877
1876
1874
1868
1868
1856
1860
1845
1840
1840
1840
1840
1844
1856
1852
1859
1862
1865
1869
1872
1876
1870
1875
1860
1859
1851
1850
1845
1856
1849
1841
1849
1860
1858
1864
1866
1880
1876
1884
1888
1876
1888
1952
1866
1860
1856
1856
1849
1848
1850
1856
1856
1859
1862
1857
1868
1867
1874
1870
1878
1865
1867
1867
1856
1858
1853
1844
1840
1848
1833
1842
1848
1848
1852
1860
1860
1868
1872
1872
1878
1873
1872
1868
1862
1859
1857
1846
1851
1856
1852
1861
1864
1876
1890
1888
1904
1913
1914
1928
1932
1928
1925
1928
1925
1928
1922
1921
1920
1924
1928
1941
1944
1960
1976
1972
1978
1996
2000
2004
2001
2016
2016
2022
2012
2012
2011
2010
2010
2018
2016
2026
2033
2032
2041
2052
2056
2066
2074
2080
2088
2088
2092
2094
2097
2083
2092
2086
2085
2080
2092
2096
2089
2104
2105
2105
2113
2117
2113
2112
2116
2112
2106
2104
2092
2084
2080
2076
2080
2072
2080
2080
2096
2088
2089
2100
2095
2104
2104
2104
2096
2090
2086
2089
2075
2076
2064
2056
2057
2054
2052
2060
2064
2074
2062
2072
2072
2072
2076
2088
2084
2080
2068
2068
2056
2056
2048
2048
2048
2048
2048
2048
2053
2056
2066
2072
2080
2092
2080
2080
2082
2072
2075
2068
2062
2072
2066
2064
2052
2052
2060
2068
2072
2068
2076
2072
2072
2072
2080
2074
2080
2082
2080
2070
2066
2058
2052
2042
2037
2035
2049
2054
2055
2054
2061
2064
2068
2072
2070
2072
2072
2076
2060
2072
2064
2056
2047
2047
2040
2050
2048
2052
2048
2065
2061
2070
2082
2080
2080
2084
2081
2074
2074
2076
2066
2060
2064
2041
2037
2040
2038
2036
2052
2040
2056
2056
2056
2064
2068
2072
2072
2068
2058
2053
2057
2056
2039
2048
2040
2032
2036
2048
2037
2049
2058
2056
2060
2068
2072
2072
2065
2064
2070
2060
2058
2044
2040
2042
2042
2032
2036
2040
2040
2048
2054
2064
2065
2061
2070
2069
2068
2073
2068
2074
2054
2066
2057
2053
2053
2049
2054
2058
2062
2076
2072
2076
2088
2090
2089
2080
2080
2080
2076
2074
2072
2064
2058
2064
2058
2062
2065
2070
2085
2088
2090
2100
2101
2100
2107
2106
2104
2102
2100
2081
2080
2074
2069
2064
2056
2064
2064
2172
2072
2084
2084
2080
2096
2104
2104
2108
2102
2104
2096
2090
2088
2088
2080
2074
2085
2082
2080
2082
2086
2096
2098
2104
2104
2112
2112
2112
2100
2100
2104
2096
2092
2084
2080
2082
2072
2076
2083
2084
2094
2100
2097
2102
2105
2112
2108
2112
2112
2112
2101
2097
2088
2083
2081
2080
2080
2084
2080
2088
2088
2088
2104
2108
2116
2112
2116
2116
2104
2112
2112
2112
2100
2100
2093
2089
2090
2098
2092
2099
2102
2104
2108
2116
2117
2113
2113
2120
2112
2104
2102
2100
2084
2080
2080
2080
2076
2072
2085
2080
2089
2105
2108
2116
2118
2120
2123
2128
2128
2120
2120
2116
2106
2112
2101
2098
2092
2088
2096
2098
2093
2102
2105
2100
2100
2098
2104
2096
2096
2098
2104
2096
2090
2104
2104
2101
2112
2130
2137
2148
2156
2169
2176
2180
2180
2178
2180
2170
2158
2156
2144
2144
2144
2128
2130
2122
2128
2128
2120
2128
2136
2144
2140
2144
2152
2148
2141
2145
2128
2117
2112
2092
2088
2071
2064
2060
2058
2058
2058
2069
2070
2074
2080
2088
2097
2092
2104
2097
2092
2096
2098
2088
2080
2072
2072
2065
2064
2065
2068
2072
2072
2076
2080
2088
2085
2088
2092
2088
2097
2089
2080
2080
2075
2074
2069
2064
2058
2065
2064
2068
2072
2064
2080
2076
2072
2080
2080
2080
2080
2084
2077
2075
2066
2064
2060
2056
2054
2054
2049
2048
2036
2020
2008
1994
1975
1933
1909
1856
1806
1747
1692
1636
1564
1504
1460
1398
1362
1316
1292
1277
1253
1264
1266
1287
1301
1341
1380
1424
1489
1563
1665
1796
1956
2153
2380
2636
2904
3192
3482
3766
4034
4095
4095
4076
4080
4072
4072
4084
4080
4080
4084
4080
4095
4095
4095
4095
4095
4095
4095
4095
4091
4008
3867
3674
3466
3232
2988
2757
2544
2356
2200
2084
1988
1932
1904
1912
1916
1952
1980
2020
2047
2080
2104
2112
2100
2112
2094
2067
2037
2020
1981
1957
1932
1904
1893
1876
1873
1861
1863
1858
1864
1870
1873
1876
1885
1884
1878
1884
1888
1888
1881
1872
1864
1864
1856
1842
1844
1832
1835
1835
1843
1838
1849
1856
1850
1850
1858
1850
1851
1852
1848
1845
1840
1829
1832
1829
1828
1828
1826
1832
1846
1848
1850
1852
1860
1864
1858
1860
1864
1848
1850
1837
1819
1824
1820
1804
1802
1808
1816
1828
1843
1840
1846
1856
1858
1861
1856
1858
1849
1845
1840
1832
1824
1825
1820
1810
1804
1808
1816
1812
1816
1818
1828
1829
1833
1830
1833
1844
1832
1832
1832
1828
1818
1812
1808
1806
1808
1808
1812
1819
1817
1824
1832
1836
1836
1840
1832
1828
1824
1824
1820
1816
1800
1808
1794
1794
1800
1798
1808
1808
1809
1824
1826
1826
1836
1834
1837
1837
1833
1828
1824
1820
1813
1805
1816
1810
1808
1824
1818
1832
1840
1832
1834
1844
1848
1856
1856
1856
1859
1853
1844
1848
1841
1841
1845
1846
1845
1848
1856
1872
1885
1891
1892
1906
1922
1920
1930
1936
1932
1944
1940
1944
1946
1936
1952
1948
1956
1962
1970
1974
1984
1981
1992
2000
2006
2008
2016
2013
2020
2012
2022
2022
2026
2023
2028
2048
2040
2048
2048
2056
2056
2068
2076
2082
2084
2088
2092
2100
2104
2100
2088
2097
2091
2080
2086
2092
2071
2073
2080
2082
2093
2085
2089
2085
2084
2090
2090
2101
2086
2084
2082
2080
2060
2064
2056
2064
2052
2047
2047
2056
2048
2052
2065
2053
2062
2061
2061
2052
2058
2054
2048
2037
2032
2035
2028
2024
2024
2028
2026
2039
2052
2040
2048
2056
2047
2060
2056
2056
2047
2060
2047
2044
2048
2037
2032
2034
2034
2032
2048
2048
2060
2061
2066
2061
2072
2076
2072
2069
2068
2064
2049
2056
2048
2040
2040
2036
2036
2047
2044
2047
2047
2056
2064
2066
2066
2066
2070
2074
2058
2057
2048
2048
2048
2037
2037
2032
2032
2033
2037
2048
2040
2053
2060
2056
2059
2058
2060
2064
2052
2052
2040
2044
2040
2040
2034
2032
2036
2037
2036
2048
2048
2048
2048
2060
2056
2050
2048
2060
2056
2048
2048
2033
2035
2038
2032
2026
2030
2034
2034
2036
2040
2044
2047
2040
2053
2046
2056
2044
2052
2040
2048
2048
2032
2017
2019
2016
2016
2022
2024
2025
2038
2037
2048
2052
2054
2057
2049
2056
2058
2042
2037
2040
2034
2034
2017
2020
2018
2028
2028
2032
2037
2040
2041
2048
2040
2048
2048
2040
2053
2033
2041
2026
2028
2032
2027
2039
2032
2040
2039
2041
2048
2056
2049
2052
2060
2047
2057
2056
2056
2047
2040
2044
2036
2034
2021
2022
2017
2019
2029
2032
2048
2048
2051
2058
2064
2064
2060
2060
2056
2064
2057
2053
2053
2050
2033
2040
2040
2047
2047
2057
2057
2056
2080
2080
2088
2082
2080
2076
2072
2075
2054
2041
2048
2036
2036
2028
2028
2024
2034
2040
2041
2051
2053
2048
2058
2064
2066
2052
2047
2044
2056
2034
2036
2032
2028
2040
2034
2048
2052
2056
2064
2065
2064
2074
2073
2070
2072
2068
2064
2067
2058
2048
2048
2048
2048
2048
2048
2048
2050
2056
2064
2064
2068
2074
2072
2072
2072
2068
2068
2068
2058
2048
2048
2048
2042
2041
2048
2057
2053
2053
2057
2069
2073
2080
2080
2080
2080
2072
2060
2064
2050
2047
2052
2046
2042
2064
2047
2047
2064
2064
2080
2080
2084
2094
2088
2088
2086
2088
2089
2085
2080
2080
2057
2057
2059
2048
2056
2053
2056
2066
2057
2064
2080
2084
2080
2082
2080
2092
2072
2074
2080
2068
2072
2072
2080
2081
2096
2106
2116
2124
2137
2136
2150
2149
2149
2150
2139
2126
2120
2114
2113
2104
2096
2092
2097
2096
2000
2092
2098
2108
2106
2108
2112
2112
2116
2112
2106
2106
2096
2088
2073
2064
2064
2052
2049
2058
2048
2057
2054
2057
2066
2077
2070
2065
2070
2074
2067
2080
2072
2066
2074
2068
2066
2064
2056
2056
2056
2064
2067
2066
2072
2076
2082
2069
2077
2088
2084
2080
2080
2073
2065
2061
2054
2064
2048
2058
2048
2053
2065
2064
2072
2088
2084
2088
2088
2090
2088
2084
2080
2072
2065
2056
2048
2048
2032
2032
2024
2006
2001
1992
1972
1958
1922
1897
1848
1801
1753
1687
1618
1552
1485
1437
1378
1333
1292
1256
1234
1218
1216
1224
1218
1236
1275
1293
1372
1429
1520
1622
1760
1924
2129
2362
2629
2904
3190
3491
3776
4057
4095
4095
4095
4095
4095
4080
4084
4080
4080
4080
4088
4088
4080
4080
4095
4095
4095
4095
4095
4095
4052
3936
3754
3529
3301
3056
2808
2586
2373
2204
2060
1977
1909
1876
1862
1876
1896
1944
1984
2032
2056
2080
2104
2109
2106
2096
2080
2056
2040
2011
1987
1960
1930
1909
1888
1864
1856
1852
1842
1852
1856
1856
1852
1856
1868
1873
1876
1882
1873
1864
1864
1860
1850
1846
1841
1834
1826
1828
1816
1826
1832
1833
1829
1838
1849
1849
1840
1847
1848
1845
1837
1836
1832
1826
1814
1814
1816
1824
1834
1825
1830
1840
1844
1848
1848
1848
1850
1849
1856
1848
1845
1833
1829
1818
1818
1818
1810
1824
1818
1818
1833
1828
1842
1828
1836
1832
1837
1840
1841
1844
1830
1825
1829
1824
1820
1816
1824
1816
1824
1904
1829
1834
1840
1842
1837
1846
1840
1845
1846
1850
1845
1828
1825
1824
1813
1806
1805
1808
1814
1820
1813
1824
1835
1836
1838
1848
1848
1852
1850
1850
1842
1840
1832
1820
1812
1808
1798
1804
1805
1808
1811
1818
1820
1832
1840
1837
1840
1836
1844
1838
1832
1828
1819
1811
1812
1812
1810
1816
1824
1826
1836
1840
1856
1856
1864
1864
1864
1876
1880
1871
1875
1880
1872
1866
1867
1868
1874
1882
1876
1884
1896
1906
1906
1928
1938
1938
1946
1946
1953
1952
1956
1964
1952
1964
1968
1968
1960
1976
1984
1984
1993
2009
2016
2018
2034
2026
2040
2050
2041
2048
2048
2061
2050
2048
2048
2048
2052
2052
2056
2060
2068
2072
2080
2088
2092
2096
2106
2104
2108
2104
2104
2104
2092
2088
2080
2077
2070
2072
2068
2064
2082
2080
2082
2080
2076
2096
2088
2098
2094
2089
2087
2084
2072
2068
2058
2057
2056
2046
2040
2058
2056
2047
2056
2056
2065
2061
2052
2066
2056
2056
2048
2048
2048
2038
2036
2037
2027
2038
2032
2050
2052
2052
2064
2064
2060
2060
2060
2052
2052
2060
2047
2042
2044
2036
2036
2038
2041
2048
2048
2040
2052
2049
2065
2058
2074
2076
2080
2066
2065
2070
2067
2050
2056
2048
2035
2029
2036
2032
2040
2036
2044
2052
2064
2060
2068
2064
2056
2064
2058
2056
2049
2048
2052
2026
2023
2021
2016
2016
2022
2035
2036
2048
2048
2060
2048
2056
2052
2053
2064
2047
2046
2044
2044
2040
2032
2024
2032
2032
2024
2020
2036
2035
2040
2048
2035
2040
2048
2048
2041
2037
2038
2048
2037
2020
2013
2018
2019
2016
2027
2021
2032
2024
2040
2044
2036
2040
2038
2040
2032
2034
2024
2032
2018
2016
2005
2008
2010
2000
2016
2004
2024
2033
2033
2040
2040
2048
2052
2048
2053
2048
2039
2042
2029
2020
2024
2020
2016
2018
2024
2025
2036
2040
2044
2052
2053
2061
2053
2064
2054
2060
2064
2050
2048
2040
2033
2033
2026
2035
2048
2048
2038
2049
2057
2064
2062
2060
2058
2148
2058
2060
2047
2047
2044
2040
2036
2032
2032
2034
2041
2048
2041
2052
2052
2056
2060
2058
2064
2061
2068
2056
2048
2048
2036
2037
2036
2032
2032
2034
2036
2044
2044
2056
2056
2064
2068
2064
2064
2068
2061
2057
2050
2041
2037
2028
2017
2040
2031
2016
2033
2037
2048
2048
2041
2058
2054
2068
2060
2056
2052
2058
2052
2044
2040
2036
2036
2032
2032
2032
2032
2040
2052
2064
2056
2056
2068
2070
2070
2075
2072
2064
2058
2054
2037
2048
2032
2038
2035
2048
2048
2053
2048
2044
2044
2052
2056
2057
2047
2060
2056
2044
2036
2032
2026
2023
2016
2018
2018
2033
2034
2048
2037
2050
2057
2056
2056
2062
2060
2057
2059
2049
2036
2037
2036
2036
2020
2016
2026
2026
2024
2024
2028
2036
2032
2037
2040
2048
2048
2042
2040
2036
2026
2020
2017
2004
2008
2008
2001
2017
2016
2024
2036
2041
2034
2036
2048
2047
2056
2042
2047
2045
2040
2024
2024
2016
2024
2012
2005
2017
2022
2025
2040
2036
2033
2038
2040
2034
2037
2035
2027
2024
2024
2016
2009
2013
2025
2030
2022
2040
2044
2058
2064
2072
2076
2080
2076
2074
2072
2064
2064
2049
2048
2030
2028
2020
2012
2010
2012
2025
2022
2024
2027
2048
2032
2048
2048
2048
2041
2037
2028
2008
2000
1984
1980
1956
1960
1956
1972
1960
1964
1968
1969
1972
1984
1984
1985
1992
1996
1993
1992
1996
1980
1973
1968
1968
1969
1954
1957
1952
1956
1954
1966
1980
1972
1976
1985
1988
1986
1980
1981
1980
1970
1968
1954
1954
1945
1949
1941
1941
1943
1946
1952
1959
1953
1956
1960
1971
1965
1954
1960
1947
1952
1942
1926
1924
1918
1912
1904
1890
1888
1868
1848
1836
1812
1762
1738
1681
1636
1573
1518
1446
1376
1320
1257
1208
1163
1128
1101
1083
1075
1083
1080
1102
1128
1160
1198
1276
1332
1433
1558
1704
1896
2106
2340
2612
2920
3208
3490
3776
4040
4095
4095
4095
4095
4095
4095
4095
4095
4095
4095
4095
4095
4095
4095
4095
4095
4095
4064
3920
3764
3576
3360
3128
2882
2656
2448
2250
2096
1962
1872
1792
1745
1734
1736
1746
1781
1817
1845
1876
1894
1924
1923
1920
1899
1885
1862
1840
1819
1785
1760
1746
1720
1700
1680
1674
1662
1665
1657
1668
1664
1660
1658
1672
1666
1666
1661
1664
1660
1649
1640
1632
1632
1617
1608
1593
1600
1600
1593
1590
1600
1610
1616
1624
1624
1632
1636
1634
1636
1620
1616
1616
1600
1590
1576
1572
1568
1571
1572
1577
1584
1588
1594
1593
1596
1604
1600
1600
1605
1610
1592
1577
1579
1568
1560
1569
1564
1556
1560
1556
1554
1558
1564
1569
1568
1572
1573
1570
1574
1572
1568
1568
1560
1560
1552
1538
1538
1536
1536
1536
1536
1539
1537
1544
1538
1544
1548
1562
1568
1564
1557
1556
1544
1532
1528
1522
1506
1512
1510
1504
1504
1516
1513
1528
1530
1526
1536
1532
1520
1523
1524
1514
1510
1500
1488
1477
1480
1474
1474
1488
1496
1506
1506
1516
1516
1516
1528
1516
1505
1496
1499
1494
1485
1483
1482
1472
1477
1476
1474
1489
1481
1498
1500
1511
1507
1518
1515
1520
1520
1528
1520
1544
1544
1534
1529
1541
1546
1552
1558
1568
1572
1578
1587
1595
1604
1611
1612
1617
1616
1628
1616
1620
1612
1609
1608
1613
1610
1612
1616
1619
1632
1649
1646
1664
1676
1680
1686
1700
1697
1696
1698
1704
1676
1684
1677
1685
1674
1682
1688
1692
1692
1704
1717
1719
1724
1728
1724
1726
1734
1728
1730
1718
1707
1700
1693
1696
1688
1684
1674
1680
1676
1674
1686
1692
1684
1686
1677
1682
1683
1675
1664
1664
1656
1648
1636
1636
1624
1628
1630
1632
1626
1622
1629
1628
1628
1634
1636
1641
1645
1636
1640
1632
1624
1616
1612
1605
1592
1600
1597
1595
1602
1602
1602
1608
1608
1612
1608
1600
1606
1611
1601
1602
1590
1588
1584
1576
1576
1578
1578
1586
1600
1596
1600
1604
1612
1608
1600
1600
1588
1592
1576
1573
1574
1563
1553
1556
1554
1556
1555
1562
1561
1570
1563
1573
1565
1571
1576
1569
1576
1568
1568
1560
1568
1552
1552
1548
1545
1552
1550
1552
1544
1556
1552
1562
1545
1558
1536
1545
1541
1539
1536
1529
1538
1516
1510
1516
1522
1512
1523
1528
1522
1528
1542
1552
1556
1560
1560
1556
1568
1553
1548
1540
1525
1509
1506
1502
1504
1516
1510
1512
1518
1522
1526
1530
1541
1530
1536
1529
1518
1524
1510
1511
1512
1493
1492
1496
1494
1508
1500
1504
1512
1520
1520
1525
1520
1522
1521
1524
1516
1524
1515
1507
1500
1496
1490
1484
1484
1485
1488
1488
1488
1498
1511
1510
1516
1520
1520
1534
1528
1526
1513
1520
1508
1500
1500
1504
1488
1492
1492
1484
1499
1504
1499
1508
1514
1506
1512
1507
1502
1500
1494
1492
1479
1472
1467
1461
1460
1459
1456
1476
1472
1488
1492
1493
1496
1504
1506
1508
1505
1496
1497
1488
1485
1468
1477
1460
1462
1462
1462
1467
1473
1344
1482
1485
1488
1497
1498
1495
1488
1490
1488
1500
1496
1488
1488
1476
1476
1480
1484
1552
1480
1468
1484
1484
1493
1499
1495
1493
1501
1490
1492
1484
1476
1476
1472
1467
1462
1463
1462
1466
1472
1474
1482
1492
1504
1496
1501
1496
1504
1500
1506
1497
1482
1480
1467
1472
1467
1472
1464
1466
1477
1472
1484
1485
1497
1497
1508
1501
1504
1502
1504
1500
1488
1492
1488
1494
1488
1488
1485
1488
1484
1492
1505
1504
1496
1508
1502
1507
1506
1500
1500
1491
1486
1484
1482
1475
1478
1477
1481
1488
1493
1496
1507
1514
1522
1530
1536
1548
1553
1556
1556
1544
1532
1535
1524
1514
1504
1508
1508
1504
1504
1521
1518
1521
1530
1526
1536
1528
1528
1523
1516
1508
1502
1497
1494
1475
1479
1480
1474
1480
1482
1476
1485
1496
1490
1484
1497
1492
1476
1465
1466
1462
1457
1466
1453
1450
1461
1460
1473
1474
1490
1498
1497
1504
1517
1506
1516
1507
1496
1512
1488
1496
1480
1480
1476
1468
1472
1474
1489
1492
1498
1490
1494
1505
1504
1509
1513
1508
1504
1504
1506
1492
1482
1480
1480
1480
1472
1478
1482
1488
1496
1498
1542
1517
1504
1501
1492
1472
1457
1416
1385
1344
1296
1229
1174
1113
1056
1001
935
888
841
813
774
758
748
748
753
754
777
786
810
846
878
936
981
1084
1192
1328
1489
1680
1912
2166
2430
2704
3000
3256
3512
3745
3952
4095
4095
4095
4095
4095
4095
4095
4094
4064
3993
3874
3752
3592
3428
3266
3104
2944
2772
2608
2456
2314
2176
2047
1930
1824
1740
1660
1592
1560
1530
1517
1508
1500
1506
1516
1514
1524
1520
1526
1506
1494
1478
1464
1443
1422
1409
1390
1381
1376
1369
1382
1376
1380
1388
1384
1384
1382
1390
1384
1364
1357
1360
1344
1338
1338
1336
1333
1332
1333
1323
1344
1348
1340
1340
1336
1349
1341
1341
1334
1336
1330
1328
1330
1337
1336
1324
1328
1330
1328
1336
1340
1330
1330
1336
1345
1345
1350
1345
1356
1353
1360
1354
1347
1346
1338
1333
1322
1324
1329
1324
1342
1337
1348
1344
1369
1370
1378
1376
1460
1386
1378
1370
1372
1348
1338
1349
1347
1345
1358
1351
1361
1374
1368
1374
1382
1395
1396
1401
1394
1401
1389
1390
1378
1376
1354
1364
1373
1368
1364
1376
1376
1382
1392
1400
1400
1396
1400
1398
1408
1408
1400
1396
1390
1391
1389
1392
1378
1387
1373
1384
1389
1386
1402
1397
1398
1397
1404
1404
1412
1421
1408
1408
1400
1400
1401
1392
1392
1386
1386
1399
1402
1402
1410
1424
1416
1436
1434
1449
1441
1441
1440
1440
1434
1436
1436
1430
1432
1440
1450
1451
1468
1492
1489
1504
1524
1526
1528
1544
1556
1552
1544
1536
1542
1541
1536
1538
1530
1538
1540
1556
1564
1571
1576
1593
1604
1603
1614
1619
1624
1631
1641
1634
1656
1650
1650
1653
1668
1666
1680
1684
1696
1692
1701
1716
1712
1720
1724
1732
1720
1730
1728
1712
1704
1703
1692
1701
1699
1698
1696
1702
1706
1713
1712
1728
1736
1736
1736
1736
1740
1732
1724
1717
1706
1696
1696
1685
1681
1689
1688
1686
1684
1688
1696
1705
1709
1696
1707
1712
1705
1704
1700
1696
1682
1681
1676
1680
1686
1692
1682
1682
1692
1696
1696
1712
1704
1712
1708
1696
1707
1703
1698
1694
1692
1686
1674
1677
1680
1680
1681
1689
1693
1698
1705
1710
1721
1728
1717
1720
1724
1724
1724
1720
1708
1706
1698
1705
1704
1684
1696
1709
1702
1711
1728
1725
1728
1805
1734
1739
1734
1734
1728
1723
1716
1712
1700
1706
1697
1710
1720
1715
1740
1738
1760
1756
1768
1764
1770
1760
1760
1752
1760
1738
1747
1722
1728
1724
1732
1733
1728
1728
1748
1752
1755
1763
1766
1776
1779
1776
1776
1781
1772
1773
1770
1768
1764
1760
1768
1760
1768
1768
1772
1776
1766
1785
1786
1785
1792
1789
1785
1781
1785
1780
1773
1768
1763
1775
1767
1770
1768
1780
1781
1792
1797
1800
1816
1816
1824
1816
1824
1820
1824
1812
1810
1802
1796
1800
1801
1820
1813
1816
1826
1833
1835
1845
1850
1858
1852
1864
1857
1848
1852
1849
1841
1840
1841
1830
1840
1848
1852
1860
1864
1884
1884
1904
1892
1896
1904
1908
1896
1904
1896
1894
1890
1885
1879
1882
1878
1875
1877
1880
1883
1896
1914
1920
1920
1929
1944
1933
1944
1946
1948
1938
1930
1932
1928
1936
1928
1920
1920
1936
1936
1938
1948
1949
1952
1961
1963
1965
1974
1964
1968
1964
1961
1960
1952
1956
1962
1954
1969
1976
1973
1980
1988
1988
1996
2000
2000
2000
2002
1989
1994
1990
1985
1984
1974
1977
1976
1977
1978
1980
1991
2004
1998
2011
2013
2025
2026
2022
2030
2032
2018
2009
2004
2004
1992
2000
1992
1996
2000
2016
2020
2032
2026
2041
2048
2041
2040
2041
2048
2040
2037
2032
2028
2028
2029
2028
2029
2037
2040
2048
2059
2060
2053
2064
2064
2072
2068
2066
2072
2064
2072
2060
2060
2045
2052
2056
2064
2070
2072
2075
2096
2108
2120
2140
2146
2156
2162
2169
2167
2169
2156
2148
2140
2137
2132
2128
2120
2122
2132
2136
2138
2145
2152
2160
2152
2160
2160
2161
2164
2158
2160
2144
2140
2132
2128
2120
2118
2112
2108
2107
2112
2114
2108
2118
2120
2116
2114
2117
2114
2112
2100
2106
2104
2098
2096
2096
2092
2096
2100
2108
2116
2122
2128
2144
2140
2188
2138
2144
2148
2140
2137
2128
2133
2116
2116
2115
2112
2120
2130
2130
2132
2132
2144
2145
2152
2153
2144
2156
2152
2144
2152
2138
2134
2135
2126
2122
2124
2126
2133
2138
2140
2144
2149
2149
2134
2129
2116
2108
2096
2064
2013
1968
1938
1876
1832
1772
1724
1658
1612
1560
1524
1477
1444
1417
1396
1385
1377
1372
1386
1396
1416
1446
1489
1545
1611
1705
1835
1986
2181
2400
2661
2936
3232
3514
3752
4024
4072
4080
4076
4080
4080
4072
4072
4095
4095
4095
4095
4095
4095
4095
4095
4095
4095
4095
4095
4095
4095
4095
4027
3888
3712
3496
3253
3013
2784
2586
2400
2266
2161
2104
2056
2047
2064
2092
2112
2152
2188
2217
2242
2247
2245
2235
2224
2205
2182
2164
2144
2120
2112
2096
2074
2080
2065
2048
2048
2050
2037
2031
2024
2026
2018
2009
2012
2004
2001
2000
1992
2001
2008
2012
2018
2020
2022
2022
2022
2028
2012
2017
2005
1996
1986
1976
1965
1970
1957
1964
1962
1972
1968
1985
1992
1992
1992
2000
2002
2008
2004
2012
1996
2000
1986
1986
1979
1978
1972
1979
1970
1970
1976
1977
1979
1996
1993
1995
2000
2010
2009
2013
2000
2000
2000
1992
1986
1984
1976
1972
1972
1977
1976
1992
1992
1996
2002
2008
2013
2016
2014
2022
2018
2016
2012
2000
2004
1991
1991
1989
1986
1985
1984
1990
1996
1994
2009
1998
2000
2000
2000
2000
1996
1988
1996
1980
1984
1976
1964
1970
1968
1964
1978
1977
1988
1992
1992
1996
1996
2004
2006
1994
2003
2003
1989
1992
1980
1969
1976
1968
1968
1972
1976
1980
1984
1994
1994
2002
2010
2004
2000
2016
1995
1997
1991
2009
1990
2000
2002
2006
2006
2016
2025
2040
2058
2057
2064
2064
2082
2082
2076
2085
2084
2100
2084
2080
2096
2088
2088
2100
2112
2120
2136
2133
2146
2156
2176
2176
2188
2198
2192
2204
2200
2201
2199
2194
2203
2200
2197
2203
2216
2217
2228
2233
2244
2256
2264
2272
2296
2282
2288
2300
2288
2288
2296
2288
2280
2272
2272
2269
2272
2274
2290
2289
2290
2291
2296
2304
2298
2297
2304
2312
2309
2304
2288
2288
2272
2264
2258
2264
2256
2266
2260
2264
2268
2272
2280
2284
2283
2276
2282
2282
2272
2264
2258
2246
2246
2246
2240
2229
2240
2246
2249
2252
2256
2264
2264
2266
2268
2164
2268
2264
2260
2252
2252
2240
2240
2240
2232
2228
2240
2242
2248
2256
2256
2258
2272
2269
2278
2279
2280
2277
2272
2272
2264
2254
2248
2250
2240
2240
2228
2240
2240
2248
2252
2252
2264
2264
2272
2272
2288
2275
2268
2264
2267
2256
2248
2248
2246
2246
2244
2240
2242
2257
2266
2260
2268
2272
2281
2275
2268
2274
2268
2260
2256
2248
2248
2232
2232
2240
2232
2242
2241
2246
2260
2256
2257
2272
2268
2265
2264
2272
2268
2258
2248
2244
2240
2232
2230
2230
2240
2240
2240
2342
2244
2248
2256
2256
2260
2264
2272
2256
2248
2256
2249
2240
2236
2220
2227
2240
2225
2235
2233
2233
2249
2256
2256
2265
2260
2268
2273
2259
2261
2260
2252
2245
2232
2232
2232
2228
2232
2232
2236
2240
2252
2258
2256
2264
2268
2272
2272
2266
2266
2257
2249
2240
2248
2237
2228
2225
2232
2240
2242
2240
2245
2252
2257
2263
2256
2248
2248
2252
2240
2232
2226
2216
2216
2224
2224
2224
2229
2229
2241
2245
2249
2253
2252
2265
2264
2280
2275
2268
2264
2256
2249
2241
2224
2221
2226
2216
2220
2172
2225
2232
2232
2240
2252
2248
2248
2258
2258
2251
2250
2240
2235
2230
2226
2220
2218
2211
2217
2216
2216
2233
2233
2240
2248
2245
2242
2252
2250
2244
2232
2224
2217
2220
2212
2208
2210
2216
2216
2224
2224
2230
2236
2240
2245
2240
2240
2252
2252
2242
2249
2241
2232
2228
2216
2212
2212
2208
2208
2213
2220
2226
2226
2228
2236
2232
2232
2288
2336
2228
2218
2224
2216
2209
2208
2196
2194
2200
2192
2209
2208
2211
2212
2219
2217
2226
2232
2220
2220
2221
2216
2209
2212
2204
2196
2136
2196
2196
2197
2208
2208
2220
2218
2224
2228
2228
2234
2228
2235
2227
2218
2226
2216
2204
2204
2211
2192
2200
2204
2202
2216
2212
2224
2224
2240
2244
2240
2248
2256
2258
2260
2268
2268
2264
2264
2265
2268
2262
2258
2266
2258
2261
2260
2264
2268
2276
2274
2275
2276
2278
2264
2268
2256
2248
2256
2245
2240
2221
2220
2220
2216
2212
2208
2208
2208
2208
2202
2208
2208
2209
2201
2198
2201
2203
2195
2202
2188
2192
2197
2204
2208
2210
2216
2220
2211
2218
2216
2229
2224
2218
2210
2208
2196
2192
2192
2184
2188
2192
2188
2185
2200
2201
2216
2212
2221
2228
2232
2228
2228
2224
2214
2212
2197
2203
2181
2187
2178
2180
2192
2190
2192
2197
2192
2196
2204
2204
2216
2204
2204
2196
2184
2178
2156
2128
2101
2066
2034
1992
1944
1902
1856
1792
1729
1677
1616
1559
1504
1458
1411
1372
1344
1308
1298
1288
1302
1312
1340
1388
1436
1520
1616
1744
1900
2088
2304
2560
2834
3126
3421
3718
3992
4095
4095
4095
4095
4095
4095
4095
4095
4095
4095
4095
4095
4095
4095
4095
4080
4072
4080
4076
4072
4068
4064
4052
4028
3952
3784
3574
3334
3090
2855
2624
2433
2280
2160
2084
2033
2016
2008
2036
2058
2099
2129
2153
2182
2200
2216
2210
2210
2200
2192
2170
2160
2144
2120
2112
2084
2080
2056
2052
2034
2024
2008
2002
2001
1998
1997
1998
2001
2006
2006
2011
2008
2017
2021
2022
2016
2016
2004
2010
2000
2000
1988
1984
1972
1976
1976
1980
1978
1992
1992
1998
2002
1995
2012
2005
2008
2008
1996
2011
1997
1994
1992
1980
1974
1969
1968
1965
1975
1976
1994
1994
1994
2000
2000
2008
2008
2008
2004
1996
2000
1984
1984
1972
1976
1969
1968
1966
1968
1977
1984
1980
1988
2003
2002
2004
2000
2006
1990
1994
1993
2000
1989
1986
1976
1984
1872
1976
1986
1988
2000
2000
2002
2004
2008
2020
2019
2022
2020
2017
1996
1992
1988
1976
1971
1970
1974
1973
1984
1981
1994
1995
2008
2010
2013
2010
2016
2008
2008
2008
2000
2004
1996
2000
1992
1984
1984
2000
1995
2009
2012
2022
2024
2020
2029
2039
2032
2040
2041
2034
2020
2021
2024
2016
2010
2018
2028
2029
2032
2044
2058
2064
2072
2072
2092
2096
2108
2113
2120
2121
2120
2118
2122
2128
2128
2130
2136
2140
2148
2156
2168
2180
2190
2200
2208
2208
2218
2224
2226
2218
2212
2212
2224
2224
2232
2218
2240
2248
2250
2272
2280
2294
2306
2309
2325
2329
2344
2336
2344
2354
2352
2347
2337
2341
2336
2338
2341
2339
2348
2352
2354
2368
2360
2368
2368
2372
2372
2376
2368
2368
2360
2352
2344
2337
2336
2337
2336
2344
2341
2339
2352
2361
2368
2361
2361
2361
2360
2358
2360
2349
2342
2336
2304
2320
2312
2300
2296
2292
2296
2312
2313
2320
2320
2332
2336
2329
2324
2316
2328
2323
2312
2309
2304
2289
2290
2286
2289
2286
2296
2298
2304
2304
2304
2308
2309
2314
2302
2312
2304
2304
2302
2308
2298
2300
2292
2292
2304
2304
2305
2313
2316
2322
2336
2336
2336
2336
2332
2333
2336
2322
2322
2312
2320
2304
2304
2308
2306
2307
2308
2312
2324
2328
2336
2328
2338
2340
2336
2336
2344
2322
2316
2312
2305
2293
2304
2296
2294
2296
2298
2304
2304
2312
2316
2321
2325
2326
2332
2325
2324
2317
2312
2300
2305
2288
2288
2290
2288
2292
2292
2304
2304
2320
2324
2323
2324
2322
2326
2316
2322
2320
2316
2308
2304
2290
2286
2286
2288
2290
2294
2304
2304
2309
2304
2300
2312
2308
2312
2316
2308
2302
2298
2304
2304
2293
2282
2284
2291
2288
2298
2304
2304
2307
2323
2326
2327
2336
2338
2338
2333
2328
2320
2322
2304
2304
2296
2288
2296
2296
2300
2296
2308
2316
2316
2320
2322
2329
2316
2322
2316
2320
2308
2305
2304
2297
2292
2282
2288
2292
2293
2308
2304
2317
2312
2322
2322
2336
2324
2312
2316
2313
2298
2298
2288
2288
2284
2304
2296
2296
2304
2310
2320
2322
2328
2328
2330
2330
2328
2328
2320
2320
2316
2310
2304
2304
2304
2298
2296
2306
2296
2308
2308
2320
2328
2320
2328
2336
2328
2336
2328
2333
2325
2317
2312
2304
2304
2304
2304
2307
2306
2306
2326
2322
2325
2325
2332
2337
2336
2336
2338
2328
2308
2308
2300
2290
2280
2290
2292
2284
2300
2304
2304
2308
2312
2316
2312
2320
2316
2320
2309
2308
2304
2304
2297
2288
2285
2289
2290
2290
2296
2304
2306
2324
2312
2328
2328
2328
2328
2324
2328
2328
2322
2320
2314
2306
2304
2304
2304
2304
2308
2307
2316
2322
2324
2328
2336
2330
2338
2329
2321
2320
2320
2308
2310
2296
2288
2284
2284
2296
2300
2308
2312
2316
2320
2336
2341
2348
2344
2342
2341
2340
2330
2328
2306
2316
2305
2304
2309
2304
2304
2320
2322
2329
2325
2344
2352
2349
2344
2336
2336
2332
2328
2328
2312
2312
2296
2296
2292
2245
2304
2304
2305
2312
2312
2314
2322
2326
2320
2326
2316
2316
2314
2310
2308
2306
2312
2323
2328
2345
2340
2354
2361
2372
2376
2380
2400
2384
2384
2376
2376
2363
2362
2342
2337
2330
2324
2325
2326
2328
2337
2338
2344
2344
2338
2352
2346
2342
2348
2336
2320
2318
2296
2280
2273
2266
2268
2264
2256
2256
2264
2280
2280
2288
2296
2304
2309
2308
2309
2312
2308
2297
2306
2286
2286
2281
2268
2274
2276
2273
2274
2273
2280
2292
2288
2288
2292
2292
2284
2280
2276
2274
2268
2272
2264
2267
2257
2256
2260
2262
2266
2266
2278
2280
2282
2284
2288
2281
2281
2274
2272
2260
2264
2252
2256
2246
2240
2228
2228
2228
2224
2224
2216
2202
2192
2168
2140
2099
2053
2008
1949
1886
1824
1764
1689
1635
1569
1525
1483
1461
1443
1425
1425
1417
1432
1441
1465
1498
1557
1609
1688
1780
1898
2064
2248
2468
2722
3008
3300
3608
3888
4095
4095
4095
4095
4095
4095
4095
4095
4095
4095
4095
4095
4095
4095
4095
4095
4095
4095
4095
4080
4084
4064
4056
4028
3924
3776
3568
3344
3136
2900
2682
2488
2326
2201
2120
2060
2034
2048
2054
2090
2132
2176
2204
2229
2251
2259
2256
2249
2224
2212
2188
2148
2112
2084
2064
2040
2025
2020
2004
2005
2010
2018
2024
2019
2025
2035
2018
2024
2030
2016
2012
2003
1996
1994
1980
1976
1976
1971
1979
1984
1988
1988
1994
1992
1992
1996
1992
1994
1992
1992
1992
1980
1972
1962
1960
1963
1954
1955
1966
1957
1969
1965
1964
1968
1962
1965
1964
1965
1956
1957
1957
1953
1937
1936
1928
1928
1928
1930
1942
1940
1944
1948
1960
1968
1968
1960
1970
1970
1961
1960
1960
1948
1942
1928
1929
1928
1924
1936
1928
1930
1936
1929
1936
1946
1939
1944
1940
1944
1944
1942
1936
1928
1932
1922
1920
1916
1920
1920
1932
1926
1936
1938
1943
1948
1948
1956
1956
1956
1947
1942
1940
1926
1932
1927
1920
1917
1916
1921
1920
1936
1936
1952
1952
1944
1952
2056
1941
2024
1948
1938
1934
1928
1927
1925
1921
1922
1928
1929
1929
1937
1944
1947
1956
1953
1957
1956
1970
1976
1968
1976
1978
1969
1972
1980
1972
1976
1986
1984
2000
2005
2016
2016
2030
2041
2048
2051
2056
2060
2072
2065
2060
2070
2068
2061
2072
2066
2076
2090
2096
2100
2113
2114
2126
2132
2136
2144
2144
2144
2144
2144
2136
2136
2128
2136
2153
2142
2148
2155
2166
2176
2189
2192
2192
2203
2203
2210
2208
2216
2214
2212
2208
2202
2188
2185
2176
2172
2168
2168
2176
2184
2180
2184
2184
2192
2200
2208
2194
2194
2186
2186
2176
2163
2150
2144
2140
2134
2130
2128
2126
2134
2144
2146
2145
2152
2152
2156
2160
2152
2152
2148
2144
2134
2196
2128
2124
2132
2128
2128
2128
2140
2144
2144
2138
2136
2132
2129
2136
2125
2128
2115
2106
2112
2101
2092
2090
2096
2096
2097
2104
2112
2116
2120
2128
2128
2128
2128
2130
2128
2132
2130
2113
2104
2105
2100
2102
2100
2107
2112
2118
2121
2134
2134
2134
2137
2134
2139
2139
2129
2134
2117
2106
2108
2096
2088
2090
2096
2096
2100
2104
2116
2120
2128
2129
2130
2129
2140
2136
2133
2130
2121
2112
2102
2096
2093
2086
2092
2086
2082
2096
2104
2108
2118
2124
2128
2132
2122
2132
2128
2122
2116
2114
2100
2096
2080
2086
2080
2077
2086
2076
2084
2088
2102
2101
2100
2112
2116
2112
2125
2128
2121
2117
2112
2101
2112
2112
2100
2104
2100
2104
2108
2116
2106
2120
2116
2112
2112
2112
2107
2101
2103
2096
2088
2084
2076
2077
2073
2074
2081
2080
2091
2096
2093
2105
2100
2106
2101
2106
2100
2098
2096
2090
2084
2080
2073
2072
2072
2080
2080
2080
2086
2091
2096
2100
2096
2100
2104
2114
2112
2118
2106
2105
2098
2102
2102
2099
2105
2096
2106
2105
2112
2114
2112
2128
2132
2128
2128
2120
2116
2164
2116
2114
2105
2099
2100
2096
2096
2096
2103
2106
2112
2117
2122
2118
2124
2130
2126
2123
2129
2128
2116
2117
2120
2112
2112
2106
2204
2112
2112
2112
2112
2112
2122
2120
2126
2132
2122
2118
2124
2125
2122
2107
2105
2098
2086
2089
2091
2091
2089
2101
2104
2114
2124
2124
2128
2136
2140
2144
2148
2144
2138
2132
2132
2128
2128
2116
2112
2115
2108
2117
2120
2117
2120
2124
2116
2120
2120
2121
2120
2112
2116
2114
2112
2106
2112
2108
2104
2100
2108
2104
2128
2120
2132
2140
2136
2144
2148
2137
2135
2134
2120
2112
2112
2103
2092
2088
2089
2088
2092
2097
2092
2106
2112
2119
2122
2131
2132
2133
2128
2128
2124
2114
2124
2116
2116
2120
2114
2120
2120
2120
2136
2129
2141
2132
2132
2144
2132
2145
2140
2147
2137
2133
2133
2126
2120
2112
2121
2118
2114
2117
2116
2120
2124
2124
2120
2116
2120
2128
2124
2120
2120
2126
2114
2106
2118
2124
2120
2124
2133
2144
2160
2169
2168
2182
2188
2192
2193
2192
2196
2181
2176
2164
2156
2144
2132
2140
2140
2144
2152
2160
2168
2185
2184
2188
2188
2184
2183
2176
2180
2164
2151
2140
2125
2112
2104
2092
2088
2082
2080
2088
2092
2100
2100
2104
2108
2104
2108
2106
2101
2104
2096
2096
2096
2088
2072
2074
2072
2080
2084
2089
2096
2101
2097
2106
2112
2114
2112
2112
2112
2104
2101
2096
2100
2086
2088
2088
2088
2092
2088
2084
2096
2096
2104
2106
2108
2104
2112
2109
2096
2090
2088
2074
2068
2069
2067
2062
2059
2060
2076
2074
2074
2073
2073
2072
2072
2057
2032
2012
1988
1960
1912
1866
1818
1764
1704
1657
1594
1544
1478
1440
1404
1376
1356
1341
1340
1345
1345
1352
1366
1380
1414
1445
1493
1554
1649
1763
1920
2097
2320
2576
2824
3096
3376
3648
3916
4068
4080
4080
4072
4095
4095
4095
4095
4095
4095
4095
4095
4095
4095
4095
4095
4095
4095
4095
4095
4048
3920
3756
3569
3344
3105
2880
2642
2452
2284
2160
2068
2012
1992
1984
1996
2018
2048
2070
2104
2122
2144
2141
2144
2125
2104
2080
2048
2012
1981
1948
1928
1906
1892
1895
1882
1884
1872
1882
1876
1880
1882
1881
1880
1880
1872
1874
1872
1866
1857
1850
1847
1856
1848
1848
1852
1857
1856
1861
1850
1849
1856
1848
1848
1838
1840
1825
1825
1820
1824
1814
1824
1814
1824
1824
1824
1832
1836
1840
1840
1840
1844
1831
1833
1833
1830
1820
1818
1813
1796
1802
1802
1792
1792
1804
1805
1816
1813
1820
1824
1824
1832
1825
1832
1832
1828
1824
1808
1816
1804
1800
1802
1797
1796
1847
1808
1817
1819
1830
1832
1840
1840
1842
1833
1834
1824
1826
1812
1808
1797
1797
1804
1796
1808
1807
1816
1826
1832
1836
1840
1836
1842
1840
1836
1828
1817
1809
1803
1795
1792
1786
1787
1792
1784
1796
1808
1808
1819
1816
1825
1827
1824
1824
1824
1821
1816
1816
1820
1810
1808
1804
1816
1808
1816
1820
1832
1826
1828
1837
1837
1800
1835
1833
1834
1834
1838
1832
1830
1834
1828
1834
1835
1838
1852
1849
1856
1873
1872
1881
1896
1896
1904
1916
1916
1912
1917
1914
1912
1919
1920
1916
1921
1937
1936
1952
1968
1974
1992
2000
2009
2010
2022
2025
2021
2020
2016
2007
2008
2002
1996
2005
2008
2016
2025
2032
2036
2047
2047
2064
2064
2068
2072
2072
2074
2068
2068
2065
2066
2064
2066
2069
2066
2076
2068
2065
2084
2084
2080
2082
2076
2073
2080
2072
2072
2064
2060
2064
2064
2052
2047
2047
2044
2048
2056
2054
2058
2076
2066
2064
2068
2069
2060
2058
2058
2054
2048
2036
2033
2026
2022
2016
2010
2017
2020
2032
2028
2032
2036
2036
2040
2040
2047
2040
2032
2040
2032
2025
2017
2011
2011
2014
2010
2017
2018
2036
2040
2048
2048
2056
2050
2049
2056
2055
2048
2036
2030
2020
2016
2008
2008
2008
2008
2008
2016
2024
2024
2036
2036
2048
2048
2048
2052
2048
2052
2048
2033
2029
2016
2018
2005
2006
2000
2005
2008
2016
2022
2018
2016
2029
2032
2036
2034
2032
2032
2026
2020
2017
2008
2004
2000
1994
2000
2002
2002
2002
2018
2018
2021
2033
2037
2029
2048
2048
2041
2041
2029
2023
2021
2009
2000
2002
2000
1992
1992
1996
1994
1996
2002
1996
2008
2002
2008
2004
2002
2008
2000
2004
1996
1990
1987
2000
1992
2000
1996
2006
2006
2006
2006
2006
2008
2006
2002
2006
2004
2000
2008
1990
1984
1988
1982
1988
1988
1996
2004
2006
2016
2020
2024
2027
2028
2032
2033
2028
2020
2026
2018
2005
2007
2003
1998
1989
1992
2004
1996
2000
2000
2008
2016
2020
2024
2024
2020
2024
2028
2018
2016
2013
2009
2003
2001
2000
2008
2012
2009
2011
2013
2017
2021
2024
2027
2032
2034
2031
2024
2020
2026
2020
2020
2016
2020
2017
2016
2028
2028
2036
2028
2040
2048
2040
2039
2048
2048
2048
2042
2040
2030
2020
2022
2021
2016
2020
2032
2034
2035
2042
2048
2048
2058
2064
2058
2064
2058
2064
2056
2047
2042
2040
2033
2040
2032
2034
2029
2032
2049
2048
2051
2049
2056
2056
2058
2060
2065
2055
2052
2048
2034
2036
2036
2030
2030
2035
2036
2032
2040
2044
2044
2056
2056
2056
2060
2068
2060
2059
2060
2052
2048
2048
2040
2036
2033
2032
2037
2038
2040
2048
2048
2049
2056
2064
2057
2069
2060
2067
2064
2068
2056
2047
2068
2040
2032
2040
2042
2032
2036
2038
2048
2048
2041
2059
2058
2057
2056
2058
2048
2048
2036
2027
2025
2020
2016
2024
2018
2027
2033
2032
2032
2044
2052
2058
2064
2056
2057
2064
2052
2056
2056
2053
2048
2033
2032
2032
2040
2040
2048
2050
2060
2064
2068
2080
2080
2081
2082
2080
2077
2072
2080
2059
2056
1968
2040
2052
2047
2046
2047
2046
2064
2060
2064
2068
2056
2062
2064
2066
2054
2056
2068
2056
2064
2072
2080
2088
2097
2106
2113
2128
2129
2128
2129
2124
2120
2116
2114
2112
2112
2104
2106
2108
2104
2092
2100
2097
2102
2098
2091
2106
2096
2100
2099
2096
2093
2097
2082
2080
2060
2051
2048
2033
2022
2025
2024
2024
2024
2032
2036
2047
2046
2047
2058
2060
2060
2064
2064
2064
2058
2049
2048
2040
2038
2036
2032
2035
2034
2049
2048
2051
2053
2064
2055
2051
2056
2053
2057
2048
2044
2040
2036
2026
2024
2018
2020
2020
2024
2026
2036
2039
2048
2057
2057
2060
2064
2066
2064
2068
2064
2058
2048
2033
2029
2021
2018
2012
2013
1993
1988
1973
1948
1928
1894
1860
1824
1770
1716
1648
1589
1520
1450
1397
1336
1296
1264
1224
1217
1204
1205
1216
1239
1270
1300
1339
1402
1467
1560
1672
1813
2004
2212
2448
2704
2972
3264
3536
3832
4056
4072
4072
4080
4095
4095
4095
4095
4095
4095
4095
4095
4095
4095
4095
4095
4095
4095
4095
4095
4095
4032
3905
3722
3508
3276
3025
2776
2556
2376
2220
2092
1996
1952
1904
1906
1916
1936
1968
1995
2041
2058
2084
2089
2092
2085
2074
2060
2039
2011
1978
1942
1928
1896
1869
1856
1842
1832
1828
1828
1832
1832
1840
1852
1848
1856
1864
1868
1864
1856
1852
1861
1845
1841
1832
1824
1814
1800
1806
1808
1813
1814
1822
1826
1828
1833
1828
1827
1836
1820
1826
1824
1816
1809
1809
1804
1794
1856
1792
1790
1800
1808
1802
1801
1824
1816
1824
1819
1830
1813
1813
1808
1812
1804
1801
1800
1798
1800
1798
1804
1809
1809
1814
1824
1818
1824
1825
1832
1824
1825
1816
1812
1808
1794
1798
1787
1792
1785
1788
1792
1806
1810
1812
1809
1821
1821
1825
1837
1834
1837
1828
1817
1812
1808
1811
1812
1812
1808
1798
1800
1800
1808
1816
1808
1812
1808
1816
1804
1814
1802
1810
1804
1803
1796
1792
1785
1782
1782
1781
1776
1784
1785
1792
1792
1793
1800
1802
1808
1808
1808
1800
1812
1800
1800
1788
1788
1788
1792
1796
1797
1799
1806
1812
1820
1824
1828
1832
1836
1840
1840
1833
1842
1841
1837
1837
1827
1836
1840
1852
1864
1868
1884
1892
1908
1916
1920
1922
1944
1936
1942
1942
1941
1946
1938
1941
1937
1940
1946
1946
1960
1996
1976
1986
1996
2008
2016
2020
2020
2037
2029
2034
2036
2036
2040
2032
2028
2032
2036
2047
2042
2056
2066
2072
2086
2091
2098
2102
2116
2116
2113
2112
2118
2106
2100
2092
2086
2084
2080
2077
2080
2085
2084
2085
2084
2088
2096
2092
2092
2090
2088
2082
2068
2068
2066
2064
2052
2052
2052
2041
2040
2057
2062
2061
2054
2064
2080
2068
2068
2064
2057
2058
2050
2042
2034
2028
2024
2024
2020
2024
2032
2040
2044
2047
2047
2052
2056
2056
2056
2056
2054
2052
2048
2032
2030
2032
2026
2026
2032
2032
2036
2041
2048
2050
2052
2056
2060
2058
2058
2052
2052
2047
2047
2046
2047
2042
2040
2050
2048
2052
2042
2052
2064
2061
2072
2070
2068
2068
2072
2070
2060
2057
2050
2048
2034
2032
2027
2024
2024
2039
2036
2036
2046
2056
2056
2064
2064
2066
2068
2072
2072
2060
2064
2050
2048
2035
2034
2037
2032
2030
2037
2048
2048
2052
2050
2064
2064
2064
2065
2066
2057
2060
2047
2044
2040
2032
2032
2030
2028
2040
2040
2052
2056
2051
2064
2065
2072
2075
2069
2064
2064
2057
2051
2048
2048
2028
2028
2022
2022
2022
2023
2025
2036
2033
2047
2052
2144
2058
2052
2058
2052
2052
2056
2042
2052
2048
2040
2048
2035
2040
2048
2052
2056
2059
2060
2067
2060
2066
2064
2057
2052
2052
2050
2048
2034
2038
2036
2036
2036
2046
2046
2060
2058
2064
2064
2080
2080
2075
2072
2080
2072
2065
2068
2060
2056
2056
2057
2052
2053
2049
2058
2059
2066
2068
2072
2076
2072
2084
2080
2066
2088
2076
2072
2064
2072
2060
2060
2064
2056
2056
2064
2055
2060
2070
2072
2070
2076
2080
2077
2080
2074
2072
2068
2068
2059
2056
2053
2048
2048
2042
2046
2057
2066
2064
2068
2065
2080
2080
2074
2072
2080
2080
2065
2068
2058
2057
2053
2053
2053
2056
2060
2068
2072
2084
2084
2088
2088
2100
2104
2098
2096
2088
2080
2080
2072
2068
2056
2060
2058
2064
2072
2065
2076
2080
2085
2091
2090
2092
2092
2096
2096
2089
2084
2082
2073
2073
2068
2066
2067
2070
2072
2084
2088
2090
2088
2092
2104
2100
2105
2096
2096
2096
2096
2088
2080
2080
2073
2068
2074
2077
2080
2080
2088
2088
2092
2102
2106
2108
2108
2106
2112
2109
2099
2089
2100
2092
2092
2088
2080
2088
2088
2098
2106
2112
2114
2112
2117
2130
2120
2121
2117
2114
2118
2102
2100
2089
2093
2090
2096
2097
2105
2096
2112
2112
2108
2116
2121
2117
2108
2104
2108
2098
2092
2084
2088
2080
2084
2073
2080
2094
2097
2100
2112
2117
2117
2124
2124
2128
2122
2113
2105
2106
2098
2096
2088
2087
2081
2072
2076
2077
2080
2084
2096
2092
2096
2100
2104
2112
2116
2120
2136
2136
2134
2141
2144
2133
2138
2146
2144
2144
2146
2152
2145
2150
2148
2148
2144
2144
2146
2144
2144
2128
2128
2097
2104
2104
2100
2100
2088
2096
2096
2098
2100
2098
2102
2099
2104
2099
2092
2088
2082
2084
2080
2072
2056
2061
2056
2056
2058
2057
2058
2058
2065
2075
2080
2076
2080
2080
2080
2080
2080
2074
2068
2064
2068
2058
2050
2058
2060
2054
2060
2062
2068
2076
2068
2072
2068
2076
2072
2066
2073
2061
2064
2056
2048
2041
2040
2042
2045
2047
2040
2060
2056
2047
2058
2064
2068
2071
2067
2054
2048
2048
2037
2016
2000
1973
1965
1928
1896
1858
1829
1781
1729
1680
1616
1561
1508
1451
1410
1364
1320
1282
1246
1220
1208
1192
1194
1188
1212
1248
1302
1378
1466
1588
1740
1923
2133
2380
2651
2933
3226
3513
3801
4060
4095
4095
4095
4095
4095
4095
4088
4072
4072
4084
4076
4088
4080
4080
4072
4095
4095
4095
4095
4095
4092
4004
3880
3689
3460
3221
2976
2737
2509
2327
2181
2053
1964
1920
1891
1897
1916
1940
1976
2012
2034
2064
2072
2076
2080
2088
2072
2056
2033
2020
2002
1973
1954
1934
1920
1904
1890
1876
1868
1858
1851
1848
1848
1846
1856
1853
1857
1859
1861
1872
1868
1872
1868
1872
1865
1860
1848
1852
1852
1836
1834
1828
1829
1828
1820
1825
1821
1832
1828
1830
1830
1836
1830
1846
1836
1832
1826
1820
1818
1813
1810
1810
1816
1809
1816
1818
1820
1824
1828
1836
1832
1834
1832
1826
1840
1832
1831
1821
1824
1814
1811
1819
1818
1809
1811
1809
1816
1825
1824
1826
1830
1829
1832
1830
1834
1828
1828
1828
1820
1808
1816
1800
1800
1788
1792
1792
1805
1804
1812
1814
1818
1827
1834
1826
1832
1833
1824
1818
1820
1804
1800
1797
1794
1723
1792
1786
1800
1800
1797
1808
1808
1818
1820
1813
1812
1808
1810
1796
1792
1792
1792
1771
1776
1774
1771
1781
1776
1782
1796
1796
1801
1796
1805
1806
1809
1810
1810
1803
1802
1796
1796
1792
1796
1800
1804
1808
1812
1824
1824
1825
1829
1833
1828
1856
1856
1853
1849
1856
1856
1859
1865
1864
1867
1873
1872
1889
1901
1897
1912
1920
1938
1948
1952
1956
1960
1960
1968
1968
1968
1968
1972
1975
1978
1984
1992
1998
2009
2021
2028
2040
2048
2060
2057
2067
2065
2072
2080
2060
2072
2060
2064
2061
2068
2057
2072
2072
2088
2082
2092
2096
2104
2108
2114
2116
2117
2118
2108
2117
2101
2105
2092
2097
2076
2073
2076
2080
2081
2081
2088
2084
2084
2089
2096
2082
2084
2080
2076
2068
2068
2064
2056
2047
2047
2045
2048
2048
2061
2052
2052
2057
2060
2060
2060
2060
2056
2057
2054
2048
2040
2048
2028
2028
2024
2020
2024
2028
2024
2026
2032
2044
2044
2044
2047
2052
2047
2052
2048
2051
2050
2037
2034
2032
2029
2026
2025
2027
2028
2032
2033
2033
2036
2048
2048
2051
2056
2050
2050
2048
2042
2032
2036
2032
2026
2028
2112
2028
2024
2034
2034
2048
2041
2050
2048
2048
2057
2049
2048
2056
2049
2048
2041
2040
2041
2032
2040
2038
2048
2048
2034
2040
2040
2036
2032
2042
2044
2040
2040
2034
2032
2032
2024
2017
2021
2025
2016
2027
2026
2036
2029
2030
2036
2036
2036
2040
2048
2052
2048
2035
2040
2048
2036
2038
2032
2034
2032
2032
2040
2040
2042
2044
2040
2044
2050
2050
2048
2048
2048
2048
2036
2029
2030
2033
2022
2040
2048
2048
2048
2057
2056
2064
2074
2068
2070
2070
2074
2072
2064
2064
2056
2047
2044
2040
2128
2036
2038
2053
2053
2052
2066
2060
2064
2062
2072
2072
2073
2067
2061
2064
2053
2058
2053
2049
2048
2050
2052
2058
2056
2060
2068
2064
2072
2072
2072
2072
2072
2072
2072
2066
2064
2064
2056
2058
2060
2059
2070
2064
2074
2091
2082
2088
2096
2096
2099
2102
2098
2096
2091
2092
2080
2072
2068
2066
2064
2066
2068
2080
2080
2080
2092
2082
2096
2094
2098
2090
2098
2096
2096
2091
2086
2092
2080
2080
2080
2084
2084
2086
2088
2092
2084
2100
2100
2100
2100
2100
2104
2106
2096
2096
2096
2084
2084
2084
2083
2080
2084
2090
2092
2096
2104
2106
2105
2106
2112
2104
2104
2105
2104
2107
2093
2084
2092
2083
2080
2084
2092
2098
2096
2098
2104
2100
2104
2097
2120
2112
2112
2097
2103
2102
2096
2090
2088
2081
2088
2080
2086
2090
2094
2096
2096
2108
2101
2106
2112
2108
2100
2096
2088
2092
2092
2080
2080
2082
2080
2096
2090
2104
2096
2112
2106
2104
2116
2107
2116
2117
2112
2104
2112
2104
2101
2092
2088
2088
2088
2088
2088
2090
2084
2092
2104
2108
2108
2116
2120
2116
2116
2120
2120
2113
2105
2108
2099
2102
2101
2101
2105
2113
2112
2124
2122
2132
2126
2124
2126
2130
2128
2120
2120
2107
2104
2100
2096
2089
2096
2096
2098
2097
2100
2104
2112
2112
2104
2104
2116
2108
2112
2112
2108
2099
2093
2097
2090
2096
2092
2102
2092
2104
2100
2114
2112
2114
2112
2120
2116
2120
2120
2116
2108
2100
2100
2092
2096
2082
2085
2087
2081
2086
2096
2088
2093
2096
2100
2112
2112
2112
2115
2122
2125
2137
2150
2145
2144
2156
2156
2156
2161
2168
2168
2172
2170
2170
2176
2168
2180
2172
2176
2171
2168
2160
2154
2150
2145
2144
2140
2139
2141
2134
2144
2136
2138
2132
2134
2128
2112
2113
2114
2112
2096
2098
2096
2080
2084
2088
2084
2090
2088
2086
2088
2096
2102
2104
2107
2113
2119
2117
2120
2114
2112
2102
2105
2097
2090
2088
2087
2080
2082
2090
2082
2089
2100
2090
2200
2096
2098
2104
2098
2098
2096
2085
2087
2080
2076
2074
2076
2080
2080
2084
2089
2094
2096
2096
2102
2104
2098
2104
2104
2096
2084
2080
2065
2046
2032
2008
2000
1969
1958
1924
1898
1872
1813
1769
1716
1661
1600
1536
1482
1424
1381
1331
1295
1249
1232
1216
1206
1213
1234
1256
1297
1354
1424
1512
1641
1776
1964
2164
2402
2660
2936
3220
3504
3824
4092
4095
4095
4095
4095
4095
4095
4095
4095
4095
4095
4095
4095
4095
4095
4095
4095
4095
4095
4095
4095
4095
3992
3860
3672
3460
3224
2984
2744
2528
2340
2188
2066
1984
1929
1905
1908
1920
1948
1974
2016
2048
2075
2090
2106
2096
2101
2088
2074
2048
2030
2014
1980
1962
1940
1920
1912
1896
1881
1880
1872
1860
1866
1866
1872
1872
1873
1882
1883
1890
1888
1889
1891
1890
1888
1873
1872
1867
1862
1856
1856
1851
1849
1840
1856
1848
1848
1856
1860
1861
1864
1858
1856
1860
1860
1852
1850
1858
1841
1834
1832
1826
1828
1824
1828
1832
1830
1840
1829
1842
1835
1834
1838
1840
1831
1832
1832
1826
1825
1828
1832
1820
1832
1832
1825
1826
1828
1832
1825
1827
1827
1832
1824
1824
1824
1816
1808
1805
1812
1806
1803
1798
1808
1814
1805
1815
1816
1814
1816
1825
1824
1824
1820
1824
1818
1812
1800
1800
1800
1792
1792
1778
1778
1788
1792
1798
1794
1802
1816
1816
1812
1816
1832
1824
1817
1819
1816
1809
1806
1804
1808
1809
1820
1828
1820
1824
1826
1836
1832
1840
1840
1824
1836
1832
1824
1818
1824
1819
1821
1816
1812
1805
1814
1821
1857
1835
1838
1858
1858
1878
1872
1885
1898
1886
1904
1900
1892
1888
1892
1900
1897
1898
1904
1904
1906
1916
1920
1929
1941
1948
1953
1963
1970
1976
1975
1984
1985
1984
1986
1989
1990
1998
2000
2008
2020
2034
2036
2047
2047
2060
2064
2072
2076
2072
2072
2076
2080
2073
2072
2076
2081
2080
2086
2093
2101
2112
2122
2114
2131
2128
2130
2136
2128
2120
2125
2125
2122
2105
2096
2092
2084
2080
2080
2082
2076
2084
2084
2084
2092
2090
2094
2089
2085
2089
2088
2084
2084
2073
2068
2067
2057
2049
2051
2050
2048
2048
2048
2053
2052
2058
2060
2047
2047
2060
2052
2047
2046
2036
2032
2024
2020
2025
2029
2033
2030
2048
2042
2041
2048
2056
2049
2056
2060
2056
2058
2058
2061
2053
2048
2039
2048
2048
2047
2037
2036
2036
2044
2032
2040
2040
2040
2044
2040
2041
2041
2048
2050
2048
2048
2048
2036
2048
2048
2048
2050
2053
2048
2050
2048
2049
2048
2057
2048
2048
2044
2040
2036
2034
2026
2020
2018
2018
2024
2024
2028
2036
2040
2048
2048
2048
2050
2051
2048
2048
2048
2036
2032
2026
2032
2024
2024
2018
2019
2018
2024
2030
2037
2047
2047
2056
2064
2056
2056
2064
2056
2056
2048
2040
2033
2028
2022
2024
2018
2019
2024
2026
2035
2038
2053
2048
2048
2048
2048
2048
2038
2036
2032
2033
2024
2028
2032
2028
2026
2032
2036
2038
2042
2057
2052
2048
2048
2052
2048
2041
2040
2032
2020
2019
2028
2018
2016
2020
2026
2030
2040
2052
2048
2057
2051
2064
2060
2056
2058
2056
2056
2064
2056
2058
2064
2064
2068
2064
2072
2073
2072
2072
2080
2076
2072
2066
2069
2081
2080
2075
2080
2072
2064
2060
2057
2064
2064
2048
2056
2056
2064
2064
2080
2072
2082
2080
2092
2084
2080
2080
2080
2080
2070
2064
2072
2067
2057
2057
2056
2064
2066
2068
2072
2070
2086
2088
2086
2092
2096
2096
2098
2096
2084
2088
2080
2076
2072
2074
2068
2064
2076
2072
2073
2069
2080
2076
2081
2074
2085
2076
2084
2080
2075
2077
2073
2069
2065
2067
2066
2066
2080
2080
2080
2076
2081
2084
2088
2084
2088
2080
2088
2080
2080
2076
2080
2074
2073
2080
2076
2072
2081
2088
2090
2085
2086
2080
2082
2083
2086
2085
2080
2082
2068
2072
2074
2064
2064
2064
2072
2066
2072
2084
2084
2092
2100
2105
2098
2104
2112
2096
2102
2090
2090
2089
2066
2064
2066
2057
2062
2060
2070
2073
2072
2088
2084
2090
2088
2088
2096
2084
2092
2084
2080
2076
2072
2068
2068
2080
2070
2082
2096
2096
2100
2104
2112
2108
2112
2109
2106
2102
2098
2094
2084
2088
2076
2080
2076
2088
2080
2088
2088
2100
2104
2106
2112
2112
2112
2112
2116
2112
2107
2093
2084
2073
2073
2061
2065
2066
2065
2066
2077
2092
2096
2097
2106
2104
2116
2120
2128
2134
2132
2144
2136
2146
2146
2146
2148
2144
2144
2152
2144
2148
2152
2148
2149
2150
2148
2148
2144
2140
2144
2131
2122
2118
2120
2112
2108
2104
2096
2092
2088
2096
2088
2092
2084
2080
2080
2068
2072
2073
2056
2060
2052
2058
2048
2048
2040
2053
2057
2064
2072
2072
2084
2080
2090
2088
2096
2092
2094
2088
2083
2076
2072
2068
2056
2056
2052
2056
2056
2064
2068
2064
2080
2072
2074
2072
2076
2080
2076
2081
2068
2064
2066
2060
2059
2048
2041
2048
2041
2056
2064
2058
2069
2066
2068
2070
2080
2080
2064
2060
2056
2040
2020
2004
1978
1952
1909
1872
1843
1792
1749
1701
1648
1594
1537
1368
1438
1392
1357
1332
1310
1296
1283
1282
1299
1302
1337
1368
1432
1489
1556
1650
1782
1916
2102
2306
2548
2812
3104
3372
3650
3912
4095
4095
4095
4095
4095
4095
4095
4095
4095
4095
4095
4095
4095
4095
4095
4095
4095
4095
4052
4040
3968
3860
3688
3496
3274
3060
2832
2640
2456
2304
2176
2090
2020
1984
1966
1968
1979
2000
2020
2038
2056
2072
2073
2074
2056
2048
2036
2025
2006
1982
1968
1856
1924
1906
1906
1888
1876
1864
1862
1848
1836
1842
1831
1834
1832
1840
1834
1850
1852
1860
1864
1866
1868
1862
1864
1866
1857
1860
1850
1837
1833
1826
1824
1820
1820
1818
1820
1832
1832
1833
1836
1840
1842
1840
1836
1842
1834
1832
1826
1820
1811
1808
1804
1808
1796
1801
1808
1806
1808
1810
1824
1822
1824
1766
1824
1824
1820
1817
1820
1808
1792
1796
1797
1784
1787
1780
1792
1800
1798
1811
1816
1821
1821
1824
1820
1826
1826
1829
1820
1812
1805
1793
1792
1784
1772
1774
1780
1784
1788
1792
1800
1797
1812
1808
1808
1800
1808
1808
1808
1799
1801
1792
1778
1778
1782
1778
1785
1792
1792
1786
1796
1794
1798
1797
1794
1793
1802
1787
1794
1788
1784
1778
1778
1770
1788
1778
1788
1794
1808
1801
1805
1800
1813
1816
1812
1808
1801
1794
1792
1787
1769
1776
1769
1760
1764
1768
1771
1777
1782
1792
1808
1810
1824
1824
1832
1832
1824
1840
1836
1840
1836
1835
1836
1832
1830
1845
1844
1864
1864
1866
1882
1898
1896
1901
1908
1908
1907
1913
1913
1920
1905
1913
1918
1924
1928
1936
1940
1952
1952
1972
1984
1992
2002
2018
2008
2010
2016
2013
2016
2018
2016
2020
2016
2024
2018
2028
2027
2032
2039
2048
2053
2064
2066
2073
2080
2076
2080
2080
2072
2068
2056
2064
2058
2044
2048
2048
2048
2048
2052
2061
2053
2067
2062
2057
2054
2056
2059
2057
2052
2048
2042
2048
2034
2030
2032
2032
2028
2033
2040
2040
2042
2040
2124
2044
2044
2042
2048
2037
2028
2024
2012
2011
2008
2005
2001
2008
2011
2008
2008
2009
2018
2018
2020
2026
2027
2030
2032
2025
2032
2026
2020
2024
2020
2016
2016
2024
2020
2018
2024
2030
2024
2040
2033
2029
2038
2029
2037
2022
2022
2021
2024
2016
2014
2016
2004
2020
2021
2027
2027
2029
2029
2034
2036
2034
2036
2018
2024
2016
2016
2020
2008
2003
2008
2017
2013
2018
2016
2013
2022
2026
2016
2026
2019
2016
2019
2020
2014
2014
2009
2011
2008
2002
2012
2000
1994
2001
2004
2008
2008
2016
2024
2020
2025
2032
2032
2037
2037
2030
2016
2012
2013
2005
1996
2008
1998
1994
2002
2002
2014
2013
2012
2021
2026
2028
2032
2024
2024
2024
2028
2012
2008
2002
2000
1992
2000
1996
2003
2014
2016
2014
2026
2028
2032
2032
2030
2029
2031
2020
2027
2016
2013
2006
2002
2003
2004
2011
2008
2012
2010
2020
2024
2029
2025
2032
2032
2028
2024
2024
2020
2016
2009
2000
2000
2007
2008
2011
2017
2017
2022
2034
2036
2033
2036
2038
2034
2025
2025
2024
2016
2010
2000
1992
1992
1996
1986
1992
1992
1996
2004
2010
2018
2016
2016
2016
2020
2017
2010
2013
2009
2004
2000
1987
1994
1989
1991
1984
1996
1995
2010
2016
2021
2020
2032
2032
2032
2028
2032
2020
2020
2004
2002
2008
2000
1994
1988
2000
2006
2006
2016
2022
2021
2022
2026
2028
2036
2030
2030
2021
2020
2016
2004
2003
2002
2004
2000
2000
2008
2016
2012
2016
2024
2020
2018
2024
2032
2019
2021
2017
2016
2019
2004
2000
2004
2000
2005
1992
1998
2009
2018
2017
2017
2024
2017
2017
2026
2032
2032
2018
2008
2008
2000
2000
2002
2000
2004
2009
2009
2016
2018
2024
2029
2037
2034
2048
2027
2029
2028
2019
2016
2004
2004
2001
2005
2004
2000
2008
2026
2024
2032
2032
2040
2036
2036
2038
2034
2032
2024
2028
2017
2014
2008
2010
2008
2016
2018
2024
2028
2037
2039
2048
2048
2048
2037
2048
2038
2030
2025
2023
2012
2020
2002
1984
1988
1984
1984
1988
2000
2000
2008
2022
2034
2038
2052
2060
2067
2072
2072
2073
2068
2065
2053
2056
2050
2048
2053
2052
2054
2060
2070
2068
2080
2082
2084
2088
2084
2082
2080
2080
2064
2058
2056
2048
2036
2032
2022
2011
2005
2008
2017
2006
2012
2021
2016
2022
2027
2025
2016
2012
2016
2005
1997
1992
1988
1996
1984
1988
1990
1992
1994
2000
2000
2004
2016
2009
2011
2010
2008
2005
2006
1998
2000
1996
2000
1996
1992
2000
1998
2002
2008
2017
2009
2018
2008
2013
2008
2004
2004
1996
1992
1988
1982
1978
1978
1978
1976
1978
1984
1992
2002
2004
2000
2009
2006
1992
1997
1980
1964
1946
1920
1884
1842
1809
1757
1708
1656
1606
1568
1516
1472
1412
1364
1328
1290
1249
1228
1192
1168
1152
1153
1157
1174
1192
1234
1284
1353
1447
1580
1729
1928
2155
2406
2692
2976
3256
3544
3818
4080
4095
4080
4080
4076
4072
4072
4080
4076
4080
4088
4095
4095
4095
4095
4095
4095
4095
4095
4072
3992
3841
3656
3434
3200
2960
2732
2509
2316
2160
2038
1952
1900
1872
1864
1880
1896
1920
1944
1968
1982
1996
1992
1992
1976
1960
1940
1922
1905
1889
1876
1861
1848
1837
1828
1828
1808
1802
1792
1794
1780
1778
1762
1756
1760
1740
1752
1748
1748
1748
1742
1754
1760
1764
1764
1760
1760
1755
1755
1754
1751
1745
1737
1729
1722
1722
1716
1721
1713
1722
1723
1744
1737
1742
1757
1750
1744
1744
1744
1748
1744
1736
1736
1728
1716
1712
1716
1704
1708
1710
1718
1716
1728
1734
1736
1737
1731
1741
1738
1737
1730
1728
1722
1713
1702
1703
1700
1708
1700
1704
1720
1708
1720
1730
1736
1741
1728
1740
1740
1728
1728
1723
1713
1707
1700
1691
1692
1691
1692
1698
1709
1706
1709
1719
1728
1728
1732
1728
1728
1737
1729
1724
1721
1705
1700
1701
1688
1684
1684
1692
1692
1696
1696
1696
1697
1699
1704
1701
1704
1704
1694
1690
1689
1672
1670
1665
1669
1673
1664
1673
1676
1685
1684
1698
1712
1712
1716
1712
1716
1714
1708
1704
1704
1696
1684
1685
1688
1691
1696
1701
1720
1722
1730
1740
1740
1741
1740
1740
1745
1744
1744
1748
1745
1749
1736
1746
1756
1760
1760
1780
1788
1796
1804
1816
1824
1824
1825
1830
1833
1833
1830
1836
1842
1824
1825
1832
1836
1846
1850
1862
1864
1886
1891
1898
1907
1920
1920
1928
1932
1936
1940
1936
1936
1936
1936
1936
1940
1932
1938
1942
1952
1952
1957
1965
1976
1984
1984
1977
1977
1976
1970
1964
1952
1949
1946
1939
1929
1936
1928
1933
1930
1928
1937
1930
1929
1928
1928
1932
1932
1928
1936
1930
1921
1920
1905
1900
1906
1900
1896
1897
1912
1916
1920
1920
1922
1917
1920
1913
1920
1908
1907
1904
1888
1894
1880
1880
1876
1880
1889
1896
1898
1904
1900
1920
1916
1916
1911
1914
1914
1909
1909
1902
1896
1890
1881
1874
1881
1872
1878
1884
1889
1898
1901
1904
1908
1920
1918
1917
1916
1920
1916
1918
1900
1908
1894
1891
1888
1890
1898
1904
1896
1905
1912
1911
1904
1908
1923
1911
1921
1915
1912
1904
1908
1907
1896
1891
1896
1900
1904
1904
1916
1914
1932
1924
1938
1936
1920
1928
1926
1910
1909
1897
1898
1884
1872
1868
1872
1872
1874
1886
1890
1899
1905
1904
1901
1916
1908
1920
1916
1904
1904
1900
1904
1896
1880
1877
1876
1872
1877
1882
1888
1896
1897
1902
1912
1915
1912
1913
1913
1915
1904
1900
1881
1880
1881
1865
1862
1868
1872
1878
1884
1896
1900
1904
1916
1912
1920
1920
1920
1912
1912
1912
1905
1896
1892
1888
1884
1879
1885
1894
1899
1903
1904
1910
1912
1920
1909
1913
1920
1905
1898
1888
1888
1884
1877
1872
1876
1880
1880
1876
1881
1888
1888
1891
1890
1897
1901
1899
1900
1893
1882
1875
1866
1856
1864
1845
1856
1856
1856
1860
1866
1880
1875
1881
1892
1898
1896
1904
1901
1900
1890
1888
1876
1872
1860
1861
1860
1858
1863
1869
1872
1876
1888
1892
1892
1899
1900
1895
1897
1891
1888
1881
1874
1870
1861
1852
1852
1852
1853
1848
1861
1868
1864
1864
1872
1872
1881
1872
1880
1873
1866
1867
1864
1858
1856
1851
1850
1852
1861
1856
1868
1869
1875
1878
1892
1877
1874
1874
1876
1872
1864
1856
1842
1844
1836
1836
1832
1832
1836
1848
1860
1872
1880
1876
1889
1892
1896
1898
1896
1876
1877
1865
1864
1845
1840
1846
1845
1851
1858
1864
1872
1888
1888
1900
1896
1898
1884
1884
1882
1872
1864
1845
1846
1837
1829
1830
1833
1824
1837
1836
1848
1856
1861
1870
1876
1881
1888
1900
1906
1906
1912
1912
1908
1912
1898
1896
1902
1896
1888
1896
1900
1896
1898
1896
1890
1896
1904
1900
1892
1884
1880
1873
1866
1857
1857
1852
1843
1848
1845
1851
1842
1846
1840
1838
1848
1834
1848
1833
1832
1832
1828
1812
1816
1796
1796
1803
1792
1808
1812
1808
1824
1826
1833
1832
1838
1832
1837
1830
1826
1819
1809
1801
1793
1787
1778
1769
1791
1786
1800
1797
1808
1817
1820
1832
1888
1824
1828
1833
1821
1820
1812
1800
1792
1776
1774
1769
1766
1778
1784
1792
1795
1802
1799
1808
1808
1805
1800
1799
1792
1778
1764
1740
1724
1692
1652
1616
1576
1532
1484
1434
1384
1322
1272
1220
1164
1110
1064
1025
988
956
941
929
920
928
942
964
1006
1056
1134
1232
1376
1522
1718
1936
2176
2440
2720
3004
3288
3600
3859
4069
4095
4095
4095
4095
4095
4095
4095
4095
4095
4095
4095
4095
4095
4095
4095
4032
3908
3750
3552
3318
3048
2814
2584
2384
2196
2034
1904
1804
1736
1681
1664
1664
1676
1684
1708
1722
1736
1745
1747
1734
1730
1715
1705
1688
1665
1656
1643
1640
1635
1632
1632
1623
1628
1624
1616
1605
1606
1589
1580
1568
1554
1534
1528
1523
1523
1521
1520
1529
1536
1538
1546
1552
1549
1558
1545
1554
1552
1544
1529
1521
1516
1509
1498
1501
1520
1516
1528
1529
1532
1544
1552
1560
1556
1546
1544
1547
1536
1524
1520
1510
1505
1501
1496
1496
1500
1505
1507
1524
1520
1530
1541
1544
1549
1552
1548
1545
1552
1535
1534
1520
1516
1500
1508
1500
1504
1508
1504
1512
1518
1527
1532
1538
1541
1544
1536
1536
1526
1520
1512
1500
1494
1480
1476
1478
1488
1482
1481
1502
1516
1522
1534
1532
1540
1544
1548
1540
1534
1512
1504
1494
1487
1476
1468
1467
1466
1472
1473
1488
1497
1500
1510
1510
1522
1525
1524
1518
1516
1504
1488
1488
1494
1488
1480
1476
1466
1484
1488
1497
1504
1500
1514
1524
1522
1520
1522
1523
1516
1510
1514
1492
1483
1475
1472
1481
1485
1490
1495
1511
1524
1536
1541
1548
1570
1572
1584
1584
1590
1584
1582
1584
1576
1568
1561
1558
1564
1584
1585
1595
1602
1614
1622
1628
1645
1651
1659
1664
1668
1668
1665
1664
1664
1655
1654
1664
1673
1688
1692
1700
1708
1716
1728
1732
1736
1736
1728
1734
1732
1729
1732
1725
1721
1716
1718
1723
1723
1722
1724
1728
1731
1744
1741
1741
1744
1752
1738
1733
1736
1736
1730
1724
1772
1710
1704
1700
1712
1700
1706
1707
1722
1721
1724
1734
1720
1724
1712
1706
1702
1693
1689
1676
1670
1664
1664
1661
1664
1670
1664
1674
1692
1696
1696
1696
1692
1700
1696
1692
1696
1684
1665
1664
1653
1648
1650
1640
1648
1656
1658
1664
1672
1680
1688
1693
1702
1700
1702
1696
1697
1698
1693
1690
1684
1684
1674
1676
1670
1680
1669
1684
1674
1680
1680
1686
1680
1680
1682
1680
1672
1680
1670
1656
1485
1651
1651
1654
1653
1654
1664
1672
1670
1674
1676
1680
1688
1676
1682
1674
1662
1661
1652
1658
1640
1628
1628
1632
1643
1648
1652
1657
1664
1676
1676
1680
1688
1686
1691
1692
1684
1672
1676
1655
1648
1646
1636
1632
1642
1648
1656
1664
1665
1663
1665
1680
1686
1680
1676
1674
1669
1668
1656
1664
1642
1639
1632
1624
1632
1634
1641
1645
1656
1654
1669
1661
1672
1669
1676
1666
1672
1672
1668
1662
1652
1653
1652
1656
1664
1660
1665
1667
1670
1671
1696
1689
1685
1686
1692
1688
1676
1676
1666
1680
1669
1665
1668
1656
1664
1677
1680
1682
1696
1700
1701
1708
1712
1720
1712
1712
1712
1700
1692
1676
1672
1664
1672
1668
1664
1672
1665
1684
1689
1697
1700
1704
1705
1712
1709
1703
1700
1696
1688
1680
1684
1673
1680
1677
1682
1688
1680
1704
1709
1712
1708
1706
1713
1709
1705
1708
1698
1692
1678
1681
1667
1660
1669
1665
1672
1677
1686
1692
1699
1702
1705
1712
1713
1714
1708
1712
1706
1708
1704
1704
1688
1666
1666
1669
1677
1674
1680
1692
1696
1710
1713
1712
1716
1728
1723
1719
1718
1713
1705
1697
1691
1677
1674
1660
1680
1682
1680
1692
1698
1704
1705
1716
1720
1716
1716
1725
1712
1708
1705
1696
1685
1680
1680
1688
1690
1698
1707
1716
1732
1733
1730
1728
1720
1720
1715
1714
1720
1706
1700
1692
1690
1692
1688
1688
1698
1697
1708
1715
1733
1732
1744
1744
1750
1754
1750
1736
1723
1709
1700
1683
1680
1674
1672
1676
1684
1686
1706
1719
1744
1760
1768
1791
1804
1816
1816
1818
1824
1810
1802
1792
1777
1777
1773
1763
1756
1768
1766
1776
1774
1784
1788
1799
1809
1804
1808
1804
1798
1792
1785
1768
1768
1760
1756
1756
1760
1760
1748
1753
1752
1756
1760
1773
1772
1770
1773
1783
1784
1780
1777
1783
1776
1778
1768
1766
1762
1763
1768
1770
1776
1792
1792
1796
1804
1808
1808
1804
1804
1800
1790
1792
1785
1782
1782
1792
1792
1795
1797
1810
1802
1793
1796
1798
1796
1798
1798
1792
1792
1797
1787
1784
1784
1776
1778
1780
1786
1796
1800
1804
1812
1816
1818
1876
1800
1792
1778
1747
1720
1682
1648
1602
1556
1501
1448
1396
1341
1282
1237
1184
1134
1109
1082
1049
1024
1017
1005
998
1020
1037
1048
1078
1122
1180
1265
1386
1540
1720
1952
2208
2488
2784
3090
3392
3684
3961
4095
4095
4095
4095
4095
4095
4095
4095
4095
4095
4095
4095
4095
4095
4072
4056
4060
4032
3928
3792
3592
3376
3144
2920
2688
2454
2256
2080
1939
1838
1771
1744
1721
1738
1769
1812
1843
1882
1902
1926
1938
1939
1938
1916
1894
1877
1844
1812
1792
1768
1756
1744
1736
1732
1728
1722
1722
1722
1724
1724
1723
1721
1717
1710
1699
1683
1676
1674
1664
1665
1660
1672
1674
1676
1690
1696
1704
1710
1712
1721
1708
1712
1712
1700
1696
1688
1680
1676
1668
1668
1672
1676
1686
1686
1701
1699
1713
1713
1707
1728
1722
1716
1717
1708
1691
1688
1683
1678
1680
1676
1688
1698
1704
1714
1722
1736
1744
1754
1748
1748
1744
1735
1730
1721
1708
1699
1696
1690
1690
1692
1696
1694
1705
1712
1728
1738
1747
1756
1749
1756
1756
1751
1744
1734
1732
1724
1714
1712
1712
1716
1720
1728
1728
1732
1744
1749
1760
1756
1760
1760
1760
1755
1738
1742
1728
1715
1712
1701
1706
1706
1717
1717
1728
1732
1756
1760
1764
1772
1772
1776
1776
1764
1772
1756
1752
1745
1742
1740
1737
1739
1744
1746
1752
1753
1754
1768
1771
1780
1782
1784
1794
1792
1784
1784
1784
1784
1792
1794
1790
1800
1809
1818
1828
1834
1848
1856
1860
1872
1880
1880
1877
1881
1872
1874
1867
1875
1869
1878
1880
1886
1895
1915
1921
1929
1944
1946
1964
1969
1976
1976
1970
1976
1980
1976
1972
1970
1968
1976
1984
1990
2013
2010
2024
2040
2049
2064
2074
2074
2080
2080
2086
2083
2080
2076
2072
2064
2060
2057
2060
2070
2068
2072
2080
2080
2084
2085
2088
2084
2088
2092
2088
2080
2080
2064
2057
2049
2040
2041
2049
2053
2048
2048
2064
2066
2069
2086
2089
2085
2088
2096
2080
2085
2072
2060
2047
2044
2032
2040
2032
2036
2040
2040
2052
2058
2066
2065
2084
2080
2086
2073
2068
2071
2073
2061
2058
2048
2048
2048
2040
2049
2050
2050
2061
2068
2072
2080
2082
2084
2096
2096
2096
2088
2084
2080
2074
2066
2068
2070
2066
2072
2080
2082
2088
2100
2100
2108
2112
2104
2116
2116
2114
2113
2112
2108
2096
2096
2088
2084
2084
2082
2088
2096
2104
2104
2108
2120
2116
2124
2128
2130
2128
2116
2116
2114
2108
2104
2100
2096
2107
2105
2112
2116
2128
2129
2141
2145
2144
2144
2136
2132
2132
2132
2140
2116
2116
2120
2112
2112
2120
2116
2126
2128
2148
2152
2153
2157
2168
2166
2171
2152
2156
2152
2153
2148
2134
2132
2125
2130
2130
2144
2136
2140
2160
2162
2168
2168
2170
2172
2170
2184
2178
2176
2176
2165
2157
2160
2152
2152
2168
2170
2176
2179
2188
2196
2197
2204
2208
2219
2210
2201
2197
2185
2174
2092
2168
2156
2154
2153
2156
2153
2164
2176
2184
2193
2198
2204
2209
2218
2210
2212
2208
2202
2193
2184
2182
2170
2169
2170
2172
2176
2184
2196
2200
2211
2216
2216
2228
2236
2240
2242
2232
2232
2224
2216
2212
2205
2200
2204
2201
2212
2208
2220
2220
2240
2236
2234
2233
2240
2240
2233
2232
2234
2230
2215
2210
2200
2196
2200
2208
2204
2212
2212
2226
2240
2244
2248
2256
2265
2266
2272
2273
2264
2252
2252
2248
2244
2232
2231
2237
2240
2245
2260
2257
2272
2272
2277
2277
2276
2268
2272
2266
2266
2256
2256
2248
2232
2232
2240
2242
2240
2253
2253
2260
2268
2280
2280
2281
2286
2288
2296
2288
2294
2274
2272
2272
2259
2254
2250
2256
2264
2256
2260
2280
2280
2298
2300
2306
2316
2306
2320
2328
2326
2316
2313
2304
2304
2285
2285
2288
2284
2294
2296
2308
2321
2322
2317
2326
2322
2336
2324
2320
2316
2302
2292
2292
2288
2288
2288
2300
2320
2324
2344
2360
2371
2384
2384
2394
2392
2396
2401
2389
2381
2376
2372
2368
2364
2359
2356
2352
2350
2363
2369
2372
2378
2378
2376
2376
2372
2374
2369
2360
2352
2341
2340
2332
2322
2313
2310
2316
2313
2320
2336
2332
2336
2347
2352
2344
2360
2360
2352
2356
2348
2337
2337
2329
2329
2312
2305
2314
2320
2324
2336
2338
2344
2352
2360
2368
2364
2361
2359
2352
2344
2336
2323
2316
2308
2304
2304
2308
2307
2322
2339
2345
2352
2352
2368
2362
2364
2356
2356
2346
2352
2328
2324
2420
2312
2304
2304
2306
2298
2305
2296
2290
2268
2249
2229
2200
2161
2118
2074
2012
1956
1894
1824
1765
1705
1666
1630
1592
1572
1560
1556
1562
1562
1580
1594
1621
1644
1680
1732
1793
1882
2003
2144
2345
2560
2816
3084
3363
3660
3954
4095
4095
4095
4095
4095
4095
4095
4095
4095
4095
4095
4080
4076
4080
4088
4076
4072
4084
4072
4072
4095
4095
4095
4044
3920
3756
3554
3330
3112
2892
2701
2537
2403
2308
2237
2202
2187
2198
2222
2257
2289
2322
2362
2370
2384
2388
2380
2368
2352
2332
2312
2280
2260
2240
2212
2185
2177
2177
2164
2160
2166
2158
2169
2161
2171
2165
2168
2168
2166
2161
2149
2145
2128
2132
2120
2104
2100
2098
2108
2108
2116
2116
2128
2130
2132
2138
2144
2144
2136
2133
2130
2132
2130
2120
2120
2120
2116
2123
2128
2128
2131
2132
2139
2144
2144
2152
2140
2132
2132
2122
2114
2108
2104
2098
2088
2090
2098
2092
2104
2116
2124
2128
2138
2144
2150
2156
2158
2154
2153
2148
2139
2131
2117
2115
2108
2112
2104
2106
2106
2106
2112
2118
2116
2128
2145
2148
2148
2146
2148
2144
2140
2140
2118
2112
2107
2108
2112
2112
2116
2120
2129
2134
2144
2148
2148
2152
2145
2144
2134
2132
2128
2112
2108
2104
2090
2104
2096
2098
2106
2112
2112
2128
2133
2148
2144
2149
2156
2144
2151
2146
2140
2144
2138
2136
2136
2128
2144
2149
2153
2160
2169
2176
2187
2176
2176
2184
2184
2184
