ECG,IR,PCG
30,37231,0
3224,37253,0
3280,37247,0
3248,37249,0
3208,37239,0
3124,37211,0
3012,37215,0
2896,37240,0
2760,37230,0
2640,37230,0
2536,37265,0
2476,37261,0
2444,37218,0
2466,37232,0
2525,37228,0
2580,37231,0
2680,37273,0
2736,37260,0
2832,37234,0
2868,37244,0
2920,37236,0
2888,37242,0
2832,37265,0
2784,37253,0
2656,37244,0
2512,37245,0
2362,37246,0
2236,37271,0
2089,37265,0
2002,37240,0
1980,37248,0
2027,37245,0
2160,37252,0
2314,37276,0
2512,37277,0
2704,37249,0
2920,37258,0
3114,37273,0
3276,37278,0
3376,37251,0
3424,37272,0
3404,37258,0
3324,37255,0
3184,37250,0
3016,37242,0
2796,37269,0
2607,37278,0
2376,37245,0
2224,37254,0
2068,37255,0
2016,37251,0
1996,37270,0
2085,37296,0
2132,37274,0
2268,37263,0
2428,37265,0
2616,37257,0
2780,37261,0
2908,37286,0
2994,37264,0
3016,37268,0
3009,37270,0
2946,37259,0
2892,37282,0
2824,37291,0
2714,37252,0
2616,37255,0
2472,37284,0
2392,37285,0
2338,37282,0
2336,37276,0
2378,37278,0
2440,37264,0
2548,37261,0
2672,37303,0
2815,37299,0
2932,37253,0
3048,37272,0
3168,37263,0
3192,37263,0
3224,37295,0
3136,37266,0
3064,37265,0
2896,37262,0
2752,37259,0
2538,37270,0
2340,37293,0
2168,37271,0
2065,37258,0
1960,37264,0
1940,37271,0
1964,37297,0
2024,37285,0
2155,37244,0
2328,37264,0
2548,37259,0
2800,37260,0
3024,37288,0
3232,37285,0
3340,37270,0
3424,37282,0
3448,37286,0
3396,37281,0
3280,37276,0
3108,37289,0
2906,37260,0
2690,37272,0
2472,37273,0
2302,37282,0
2168,37306,0
2111,37298,0
2080,37252,0
2157,37286,0
2240,37276,0
2392,37277,0
2532,37312,0
2728,37289,0
2860,37281,0
2992,37277,0
3070,37280,0
3152,37307,0
3108,37306,0
3020,37262,0
2898,37278,0
2672,37273,0
2496,37274,0
2322,37311,0
2178,37303,0
2120,37286,0
2096,37286,0
2134,37284,0
2212,37293,0
2356,37294,0
2544,37298,0
2737,37285,0
2938,37310,0
3128,37274,0
3288,37269,0
3384,37305,0
3596,37301,0
3434,37265,0
3354,37283,0
3238,37274,0
3032,37276,0
2848,37302,0
2556,37295,0
2340,37279,0
2112,37277,0
1954,37286,0
1832,37287,0
1800,37313,0
1828,37301,0
1946,37291,0
2102,37282,0
2304,37280,0
2528,37315,0
2704,37324,0
2915,37267,0
3080,37293,0
3224,37285,0
3344,37294,0
3384,37318,0
3348,37321,0
3212,37318,0
3080,37327,0
2904,37310,0
2716,37323,0
2529,37321,0
2370,37327,0
2264,37292,0
2218,37308,0
2208,37303,0
2289,37318,0
2392,37338,0
2576,37307,0
2728,37301,0
2944,37305,0
3064,37302,0
3208,37340,0
3260,37337,0
3320,37292,0
3240,37297,0
3120,37309,0
2968,37302,0
2800,37323,0
2580,37320,0
2353,37297,0
2154,37316,0
1988,37307,0
1914,37308,0
1922,37333,0
2006,37329,0
2180,37292,0
2420,37311,0
2681,37304,0
2932,37330,0
3196,37336,0
3418,37333,0
3588,37330,0
3688,37324,0
3704,37317,0
3644,37314,0
3512,37333,0
3304,37326,0
3064,37308,0
2792,37313,0
2519,37309,0
2302,37329,0
2114,37338,0
1976,37326,0
1952,37307,0
1968,37308,0
2080,37313,0
2224,37308,0
2424,37342,0
2632,37296,0
2880,37294,0
3057,37297,0
3200,37279,0
3288,37322,0
3268,37313,0
3228,37262,0
3121,37276,0
2980,37269,0
2848,37265,0
2664,37287,0
2498,37284,0
2336,37263,0
2240,37233,0
2196,37266,0
2208,37264,0
2280,37276,0
2388,37223,0
2544,37222,0
2709,37221,0
2892,37223,0
3052,37238,0
3192,37195,0
3291,37190,0
3300,37191,0
3304,37180,0
3156,37209,0
3024,37197,0
2784,37149,0
2560,37162,0
2282,37139,0
2046,37146,0
1832,37171,0
1676,37167,0
1600,37123,0
1588,37134,0
1636,37110,0
1746,37104,0
1928,37136,0
2136,37127,0
2372,37077,0
2648,37092,0
2884,37089,0
3073,37075,0
3152,37107,0
3204,37053,0
3168,37052,0
3060,37077,0
2872,37059,0
2644,37054,0
2380,37042,0
2136,37070,0
1900,37059,0
1722,37015,0
1604,37024,0
1560,37023,0
1589,37022,0
1696,37037,0
1836,37027,0
2016,36994,0
2188,36993,0
2400,36989,0
2538,36998,0
2648,37009,0
2696,36984,0
2724,36969,0
2634,36960,0
2498,36965,0
2292,36976,0
2050,36977,0
1821,36958,0
1616,36948,0
1465,36944,0
1388,36941,0
1390,36943,0
1594,36872,0
1788,36907,0
2012,36913,0
2248,36896,0
2472,36904,0
2676,36911,0
2828,36897,0
2962,36909,0
2968,36926,0
2912,36932,0
2800,36883,0
2616,36891,0
2372,36889,0
2132,36892,0
1828,36911,0
1592,36884,0
1386,36891,0
1250,36879,0
1178,36883,0
1176,36894,0
1258,36910,0
1408,36868,0
1596,36880,0
1808,36877,0
2040,36879,0
2224,36901,0
2406,36884,0
2529,36878,0
2638,36876,0
2704,36873,0
2688,36878,0
2602,36899,0
2440,36872,0
2268,36856,0
2084,36864,0
1905,36861,0
1744,36871,0
1626,36850,0
1564,36864,0
1552,36862,0
1640,36873,0
1737,36888,0
1884,36886,0
2063,36846,0
2228,36856,0
2424,36851,0
2532,36856,0
2624,36884,0
2628,36879,0
2612,36861,0
2488,36861,0
2316,36859,0
2100,36864,0
1884,36889,0
1652,36881,0
1437,36865,0
1275,36859,0
1160,36866,0
1166,36876,0
1196,36885,0
1328,36859,0
1552,36855,0
1824,36853,0
2108,36869,0
2356,36866,0
2612,36865,0
2808,36871,0
2940,36877,0
2992,36876,0
2952,36867,0
2840,36870,0
2656,36886,0
2412,36877,0
2148,36871,0
1856,36870,0
1632,36869,0
1420,36877,0
1296,36901,0
1225,36884,0
1238,36872,0
1332,36870,0
1482,36862,0
1660,36883,0
1874,36897,0
2092,36861,0
2304,36870,0
2448,36876,0
2544,36865,0
2572,36904,0
2516,36898,0
2421,36855,0
2272,36887,0
2101,36881,0
1930,36878,0
1776,36895,0
1632,36904,0
1532,36873,0
1504,36890,0
1516,36864,0
1594,36875,0
1724,36881,0
1890,36876,0
2080,36891,0
2280,36887,0
2449,36886,0
2608,36902,0
2720,36903,0
2781,36870,0
2744,36882,0
2688,36887,0
2520,36888,0
2328,36913,0
2080,36910,0
1832,36875,0
1594,36900,0
1376,36883,0
1224,36886,0
1144,36908,0
1120,36902,0
1170,36887,0
1301,36895,0
1456,36893,0
1679,36908,0
1916,36918,0
2166,36877,0
2418,36899,0
2636,36892,0
2788,36893,0
2848,36898,0
2840,36897,0
2776,36895,0
2616,36904,0
2416,36914,0
2188,36901,0
1940,36918,0
1724,36913,0
1544,36876,0
1418,36898,0
1372,36902,0
1409,36907,0
1488,36925,0
1640,36920,0
1800,36895,0
2000,36906,0
2176,36900,0
2353,36914,0
2472,36930,0
2540,36912,0
2540,36901,0
2506,36914,0
2395,36906,0
2201,36925,0
1972,36936,0
1729,36898,0
1514,36907,0
1341,36905,0
1238,36909,0
1221,36936,0
1272,36937,0
1408,36905,0
1604,36923,0
1820,36913,0
2084,36919,0
2324,36916,0
2540,36915,0
2728,36913,0
2840,36929,0
2888,36918,0
2852,36933,0
2760,36957,0
2584,36921,0
2369,36932,0
2092,36919,0
1848,36925,0
1568,36947,0
1352,36949,0
1195,36935,0
1112,36930,0
1094,36931,0
1160,36936,0
1281,36941,0
1465,36963,0
1680,36917,0
1896,36934,0
2112,36935,0
2264,36939,0
2398,36967,0
2480,36963,0
2518,36926,0
2516,36946,0
2443,36932,0
2328,36938,0
2144,36937,0
1969,36941,0
1802,36951,0
1620,36937,0
1524,36958,0
1476,36946,0
1464,36961,0
1526,36966,0
1620,36923,0
1768,36950,0
1936,36940,0
2128,36943,0
2280,36973,0
2432,36961,0
2488,36952,0
2540,36948,0
2496,36947,0
2410,36948,0
2252,36973,0
2044,36949,0
1824,36934,0
1600,36946,0
1370,36952,0
1178,36956,0
1059,36962,0
992,36939,0
1033,36949,0
1124,36935,0
1304,36941,0
1541,36964,0
1818,36968,0
2108,36932,0
2346,36946,0
2578,36963,0
2736,36963,0
2814,36944,0
2820,36971,0
2732,36928,0
2568,36943,0
2354,36934,0
2089,36950,0
1821,36971,0
1568,36949,0
1343,36930,0
1189,36936,0
1112,36932,0
1072,36935,0
1162,36952,0
1290,36932,0
1458,36930,0
1658,36928,0
1864,36931,0
2056,36934,0
2244,36955,0
2356,36922,0
2400,36921,0
2385,36931,0
2272,36917,0
2130,36948,0
1950,36956,0
1764,36919,0
1600,36927,0
1440,36924,0
1282,36899,0
1292,36937,0
1353,36926,0
1485,36924,0
1656,36921,0
1836,36903,0
2040,36926,0
2224,36922,0
2380,36925,0
2506,36945,0
2576,36942,0
2592,36912,0
2512,36921,0
2400,36927,0
2200,36921,0
1978,36949,0
1720,36940,0
1486,36923,0
1258,36921,0
1084,36914,0
972,36928,0
941,36960,0
980,36940,0
1080,36923,0
1238,36917,0
1440,36925,0
1653,36924,0
1902,36941,0
2114,36912,0
2344,36919,0
2506,36917,0
2612,36916,0
2608,36947,0
2564,36946,0
2448,36926,0
2280,36921,0
2056,36912,0
1844,36960,0
1612,36902,0
1425,36922,0
1300,36916,0
1232,36933,0
1228,36945,0
1298,36941,0
1420,36918,0
1584,36915,0
1768,36924,0
1952,36937,0
2124,36960,0
2260,36932,0
2336,36928,0
2356,36922,0
2304,36918,0
2232,36937,0
2060,36952,0
1846,36906,0
1612,36931,0
1386,36922,0
1195,36936,0
1064,36939,0
1008,36951,0
1050,36915,0
1162,36936,0
1354,36943,0
1584,36947,0
1824,36933,0
2088,36946,0
2322,36926,0
2528,36935,0
2664,36966,0
2736,36930,0
2736,36930,0
2664,36927,0
2504,36944,0
2292,36963,0
2045,36961,0
1768,36928,0
1512,36944,0
1273,36932,0
1097,36942,0
984,36967,0
957,36967,0
1008,36936,0
1115,36946,0
1272,36948,0
1472,36958,0
1693,36975,0
1905,36970,0
2090,36948,0
2216,36957,0
2306,36958,0
2344,36971,0
2332,36982,0
2288,36976,0
2179,36958,0
2038,36955,0
1868,36944,0
1704,36959,0
1552,36968,0
1449,36968,0
1400,36959,0
1392,36968,0
1440,36961,0
1544,36964,0
1690,36983,0
1856,36989,0
2016,36974,0
2184,36977,0
2324,36974,0
2412,36985,0
2448,37001,0
2424,36973,0
2340,36976,0
2194,36983,0
1996,36985,0
1776,36991,0
1541,37005,0
1334,36985,0
1142,36994,0
992,36988,0
942,36993,0
944,37004,0
1032,37021,0
1189,36993,0
1405,37007,0
1684,37003,0
1978,36989,0
2251,37021,0
2472,36999,0
2652,37008,0
2776,37012,0
2810,37024,0
2768,37010,0
2640,37028,0
2452,37025,0
2216,37000,0
1956,37006,0
1692,37006,0
1466,37017,0
1297,37038,0
1190,37029,0
1154,37011,0
1200,37015,0
1304,37013,0
1449,37031,0
1636,37042,0
1836,37011,0
2010,37025,0
2168,37021,0
2312,37022,0
2364,37043,0
2348,37046,0
2266,37011,0
2112,37027,0
1938,37026,0
1717,37025,0
1540,37060,0
1392,37050,0
1272,37019,0
1222,37037,0
1226,37028,0
1312,37039,0
1424,37028,0
1590,37061,0
1786,37051,0
1996,37035,0
2192,37032,0
2354,37047,0
2482,37068,0
2564,37068,0
2564,37045,0
2527,37051,0
2392,37047,0
2216,37051,0
1972,37062,0
1736,37047,0
1474,37049,0
1248,37047,0
1052,37053,0
930,37076,0
868,37071,0
896,37023,0
978,37054,0
1134,37052,0
1318,37056,0
1525,37079,0
1756,37059,0
1972,37057,0
2157,37054,0
2344,37060,0
2468,37081,0
2520,37086,0
2464,37051,0
2366,37056,0
2208,37068,0
2024,37090,0
1808,37082,0
1588,37084,0
1404,37057,0
1272,37064,0
1188,37065,0
1188,37065,0
1236,37095,0
1350,37097,0
1504,37055,0
1672,37069,0
1856,37059,0
2024,37066,0
2164,37092,0
2248,37070,0
2282,37065,0
2256,37070,0
2154,37060,0
2024,37098,0
1818,37095,0
1586,37040,0
1354,37081,0
1142,37077,0
974,37074,0
900,37115,0
896,37090,0
976,37080,0
1142,37085,0
1372,37081,0
1612,37076,0
1880,37091,0
2144,37083,0
2384,37094,0
2536,37101,0
2632,37086,0
2650,37080,0
2584,37102,0
2476,37117,0
2284,37078,0
2040,37086,0
1782,37087,0
1526,37090,0
1276,37113,0
1090,37112,0
962,37076,0
910,37087,0
914,37088,0
996,37088,0
1122,37118,0
1289,37104,0
1480,37098,0
1672,37096,0
1832,37094,0
1964,37109,0
2036,37110,0
2069,37080,0
2051,37102,0
1993,37088,0
1908,37097,0
1796,37125,0
1672,37119,0
1537,37107,0
1448,37110,0
1380,37115,0
1366,37098,0
1432,37099,0
1535,37118,0
1706,37125,0
1916,37086,0
2149,37092,0
2404,37095,0
2648,37103,0
2864,37131,0
3064,37123,0
3194,37093,0
3274,37099,0
3280,37098,0
3232,37108,0
3144,37119,0
3000,37090,0
2836,37102,0
2652,37107,0
2512,37107,0
2352,37129,0
2233,37128,0
2178,37096,0
2144,37102,0
2196,37099,0
2292,37108,0
2452,37135,0
2656,37098,0
2816,37099,0
2912,37125,0
3070,37095,0
3044,37133,0
2948,37080,0
2776,37086,0
2556,37097,0
2280,37114,0
2001,37128,0
1729,37099,0
1496,37100,0
1314,37101,0
1207,37099,0
1168,37129,0
1200,37127,0
1279,37095,0
1424,37112,0
1592,37102,0
1776,37099,0
1928,37143,0
2088,37124,0
2200,37111,0
2240,37112,0
2208,37095,0
2112,37130,0
1952,37134,0
1728,37093,0
1496,37109,0
1266,37098,0
1069,37099,0
915,37131,0
848,37133,0
844,37091,0
908,37125,0
1050,37118,0
1224,37116,0
1452,37115,0
1680,37104,0
1918,37114,0
2116,37108,0
2272,37107,0
2376,37111,0
2418,37125,0
2384,37132,0
2284,37101,0
2117,37107,0
1920,37105,0
1660,37113,0
1412,37139,0
1170,37140,0
968,37106,0
840,37118,0
776,37111,0
762,37122,0
842,37135,0
980,37100,0
1160,37113,0
1366,37101,0
1588,37103,0
1794,37141,0
1990,37132,0
2144,37105,0
2280,37115,0
2349,37107,0
2330,37118,0
2232,37114,0
2104,37115,0
1914,37119,0
1724,37119,0
1512,37123,0
1334,37111,0
1190,37120,0
1108,37140,0
1098,37125,0
1144,37121,0
1249,37108,0
1392,37116,0
1568,37141,0
1756,37148,0
1940,37093,0
2068,37123,0
2180,37113,0
2216,37116,0
2204,37154,0
2128,37150,0
2004,37097,0
1808,37127,0
1580,37112,0
1344,37115,0
1128,37140,0
952,37133,0
836,37122,0
803,37112,0
861,37121,0
992,37154,0
1216,37148,0
1476,37119,0
1744,37122,0
2018,37124,0
2260,37131,0
2456,37147,0
2592,37140,0
2646,37134,0
2620,37127,0
2512,37130,0
2336,37116,0
2108,37151,0
1840,37157,0
1578,37112,0
1328,37133,0
1116,37131,0
960,37129,0
893,37164,0
906,37152,0
978,37117,0
1125,37137,0
1304,37136,0
1516,37134,0
1753,37162,0
1952,37161,0
2120,37130,0
2226,37134,0
2264,37147,0
2256,37145,0
2185,37170,0
2080,37135,0
1944,37133,0
1784,37137,0
1624,37138,0
1470,37146,0
1370,37142,0
1305,37163,0
1296,37154,0
1336,37167,0
1438,37136,0
1598,37141,0
1760,37168,0
1944,37176,0
2152,37134,0
2292,37157,0
2420,37147,0
2484,37158,0
2492,37180,0
2444,37161,0
2324,37148,0
2148,37148,0
1922,37148,0
1684,37167,0
1420,37174,0
1222,37144,0
1056,37157,0
948,37151,0
913,37160,0
950,37192,0
1060,37175,0
1237,37152,0
1464,37162,0
1733,37166,0
2010,37181,0
2284,37179,0
2528,37155,0
2668,37191,0
2768,37174,0
2788,37167,0
2720,37184,0
2568,37178,0
2360,37147,0
2112,37166,0
1852,37167,0
1596,37173,0
1401,37191,0
1256,37176,0
1181,37173,0
1188,37171,0
1288,37170,0
1364,37217,0
1596,37207,0
1792,37168,0
2017,37182,0
2216,37179,0
2380,37203,0
2476,37206,0
2552,37187,0
2530,37197,0
2432,37182,0
2252,37185,0
2028,37217,0
1801,37202,0
1589,37190,0
1413,37185,0
1312,37192,0
1280,37213,0
1324,37217,0
1432,37187,0
1608,37187,0
1832,37194,0
2056,37206,0
2308,37210,0
2532,37207,0
2728,37224,0
2866,37174,0
2960,37203,0
2940,37194,0
2860,37197,0
2726,37222,0
2500,37204,0
2284,37205,0
1992,37191,0
1728,37202,0
1500,37216,0
1316,37221,0
1206,37185,0
1178,37205,0
1224,37203,0
1353,37197,0
1536,37235,0
1754,37222,0
1986,37197,0
2204,37200,0
2412,37192,0
2594,37217,0
2729,37229,0
2836,37178,0
2852,37204,0
2805,37197,0
2656,37199,0
2484,37179,0
2296,37194,0
2076,37195,0
1876,37198,0
1717,37190,0
1608,37186,0
1560,37206,0
1588,37196,0
1680,37169,0
1793,37184,0
1984,37167,0
2168,37171,0
2368,37202,0
2500,37179,0
2632,37158,0
2672,37163,0
2680,37157,0
2594,37177,0
2448,37169,0
2252,37131,0
2032,37138,0
1780,37137,0
1524,37134,0
1315,37156,0
1144,37136,0
1062,37119,0
1064,37112,0
1158,37105,0
1334,37128,0
1584,37117,0
1850,37082,0
2128,37083,0
2384,37081,0
2608,37085,0
2772,37079,0
2860,37095,0
2732,37049,0
2776,37060,0
2612,37057,0
2384,37052,0
2120,37071,0
1829,37058,0
1550,37016,0
1292,37032,0
1117,37025,0
1000,37025,0
960,37037,0
1012,37012,0
1128,37001,0
1273,37008,0
1480,36986,0
1704,37014,0
1916,37013,0
2104,36959,0
2232,36975,0
2306,36963,0
2288,36971,0
2224,36984,0
2098,36944,0
1948,36944,0
1780,36938,0
1594,36938,0
1289,36837,0
1206,36926,0
1173,36921,0
1209,36925,0
1296,36925,0
1430,36923,0
1596,36906,0
1784,36901,0
1968,36904,0
2145,36927,0
2282,36914,0
2360,36878,0
2400,36894,0
2356,36885,0
2240,36889,0
2074,36911,0
1850,36895,0
1618,36863,0
1376,36874,0
1146,36859,0
960,36859,0
832,36884,0
773,36878,0
790,36843,0
876,36853,0
1036,36844,0
1229,36856,0
1465,36864,0
1726,36835,0
1992,36839,0
2284,36829,0
2418,36835,0
2504,36837,0
2534,36799,0
2508,36837,0
2386,36819,0
2208,36827,0
1982,36815,0
1740,36823,0
1514,36848,0
1298,36845,0
1154,36805,0
1057,36818,0
1058,36807,0
1108,36824,0
1232,36828,0
1394,36786,0
1584,36809,0
1770,36805,0
1980,36806,0
2112,36831,0
2212,36826,0
2248,36778,0
2248,36794,0
2152,36799,0
2005,36798,0
1804,36821,0
1564,36823,0
1344,36788,0
1155,36798,0
1020,36799,0
976,36796,0
993,36825,0
1105,36804,0
1268,36801,0
1482,36773,0
1712,36796,0
1954,36798,0
2180,36760,0
2380,36794,0
2520,36794,0
2600,36800,0
2604,36812,0
2540,36829,0
2402,36783,0
2212,36804,0
1980,36792,0
1720,36801,0
1460,36816,0
1236,36822,0
1064,36785,0
956,36802,0
910,36796,0
954,36807,0
1048,36835,0
1208,36796,0
1424,36810,0
1638,36802,0
1856,36802,0
2026,36823,0
2200,36834,0
2316,36776,0
2382,36807,0
2408,36806,0
2368,36808,0
2280,36837,0
2104,36809,0
1944,36816,0
1760,36805,0
1589,36794,0
1462,36792,0
1360,36816,0
1336,36835,0
1360,36837,0
1442,36798,0
1584,36820,0
1746,36812,0
1916,36820,0
2088,36851,0
2240,36831,0
2360,36817,0
2416,36821,0
2424,36806,0
2344,36834,0
2248,36846,0
2068,36832,0
1858,36817,0
1644,36814,0
1396,36821,0
1205,36833,0
1052,36855,0
969,36813,0
964,36829,0
1038,36826,0
1206,36828,0
1420,36853,0
1696,36852,0
1976,36823,0
2228,36844,0
2472,36863,0
2656,36802,0
2762,36842,0
2792,36808,0
2748,36845,0
2612,36833,0
2412,36832,0
2180,36831,0
1906,36849,0
1634,36854,0
1420,36829,0
1240,36835,0
1121,36833,0
1092,36845,0
1122,36855,0
1226,36865,0
1376,36827,0
1568,36848,0
1738,36842,0
1989,36842,0
2185,36864,0
2324,36860,0
2406,36841,0
2416,36862,0
2328,36845,0
2220,36854,0
2067,36872,0
1890,36864,0
1712,36856,0
1549,36851,0
1424,36853,0
1344,36881,0
1320,36864,0
1361,36854,0
1459,36880,0
1604,36808,0
1784,36869,0
1992,36868,0
2180,36887,0
2352,36897,0
2508,36850,0
2592,36880,0
2658,36875,0
2604,36882,0
2520,36906,0
2336,36887,0
2152,36883,0
1892,36882,0
1640,36888,0
1424,36903,0
1226,36921,0
1098,36875,0
1024,36902,0
1028,36886,0
1115,36898,0
1234,36925,0
1418,36933,0
1636,36892,0
1872,36900,0
2120,36902,0
2440,36916,0
2568,36935,0
2708,36910,0
2740,36934,0
2724,36936,0
2632,36901,0
2472,36884,0
2272,36921,0
2040,36915,0
1820,36915,0
1600,36918,0
1444,36942,0
1358,36939,0
1328,36922,0
1378,36922,0
1466,36920,0
1624,36937,0
1786,36948,0
1992,36908,0
2148,36924,0
2320,36923,0
2408,36924,0
2466,36945,0
2448,36944,0
2392,36914,0
2252,36928,0
2058,36922,0
1828,36934,0
1592,36947,0
1382,36929,0
1228,36933,0
1153,36921,0
1152,36923,0
1241,36950,0
1409,36943,0
1618,36948,0
1848,36910,0
2116,36928,0
2360,36943,0
2568,36946,0
2744,36917,0
2848,36923,0
2868,36922,0
2824,36917,0
2696,36935,0
2642,36945,0
2286,36896,0
2004,36919,0
1752,36922,0
1504,36923,0
1300,36947,0
1160,36925,0
1100,36917,0
1092,36912,0
1178,36916,0
1332,36930,0
1536,36931,0
1748,36916,0
1966,36910,0
2166,36905,0
2296,36917,0
2432,36934,0
2496,36899,0
2518,36907,0
2500,36895,0
2408,36903,0
2100,36871,0
1920,36895,0
1760,36909,0
1608,36904,0
1514,36899,0
1472,36900,0
1500,36901,0
1564,36913,0
1688,36921,0
1848,36877,0
2018,36898,0
2208,36892,0
2348,36892,0
2496,36907,0
2544,36916,0
2576,36874,0
2504,36899,0
2404,36895,0
2220,36893,0
2012,36917,0
1800,36902,0
1564,36881,0
1356,36888,0
1188,36884,0
1092,36893,0
1064,36905,0
1113,36892,0
1235,36880,0
1440,36883,0
1690,36876,0
1988,36896,0
2269,36909,0
2496,36872,0
2713,36900,0
2852,36882,0
2916,36887,0
2898,36892,0
2788,36897,0
2616,36870,0
2372,36888,0
2128,36878,0
1860,36884,0
1612,36903,0
1420,36880,0
1286,36876,0
1224,36876,0
1226,36868,0
1312,36892,0
1452,36902,0
1650,36875,0
1844,36865,0
2044,36874,0
2234,36864,0
2408,36897,0
2501,36893,0
2532,36858,0
2496,36874,0
2372,36871,0
2224,36869,0
2038,36900,0
1860,36894,0
1696,36869,0
1581,36870,0
1509,36872,0
1468,36872,0
1540,36876,0
1621,36872,0
1770,36874,0
1948,36881,0
2148,36892,0
2340,36868,0
2524,36875,0
2664,36874,0
2772,36895,0
2804,36907,0
2800,36885,0
2690,36876,0
2576,36887,0
2337,36884,0
2096,36904,0
1860,36902,0
1632,36877,0
1416,36884,0
1278,36887,0
1200,36909,0
1193,36909,0
1262,36880,0
1388,36892,0
1570,36880,0
1782,36873,0
2016,36920,0
2250,36903,0
2480,36879,0
2692,36883,0
2848,36883,0
2936,36919,0
2920,36897,0
2848,36886,0
2728,36905,0
2536,36912,0
2308,36928,0
2084,36918,0
1868,36882,0
1692,36903,0
1581,36897,0
1525,36913,0
1544,36929,0
1628,36910,0
1748,36899,0
1924,36910,0
2082,36905,0
2276,36927,0
2400,36924,0
2540,36885,0
2580,36914,0
2576,36906,0
2506,36911,0
2410,36935,0
2236,36939,0
2004,36903,0
1770,36924,0
1556,36918,0
1370,36921,0
1256,36942,0
1228,36926,0
1269,36917,0
1418,36912,0
1624,36915,0
1836,36929,0
2100,36942,0
2354,36943,0
2576,36936,0
2764,36936,0
2880,36924,0
2916,36931,0
2892,36951,0
2800,36947,0
2612,36921,0
2384,36923,0
2137,36918,0
1856,36952,0
1604,36957,0
1392,36909,0
1236,36937,0
1158,36932,0
1148,36934,0
1216,36963,0
1352,36957,0
1522,36910,0
1760,36937,0
1968,36930,0
2176,36938,0
2346,36966,0
2452,36964,0
2525,36925,0
2538,36937,0
2504,36936,0
2424,36950,0
2304,36974,0
2152,36946,0
1964,36922,0
1808,36916,0
1672,36974,0
1584,36969,0
1544,36954,0
1550,36955,0
1632,36946,0
1744,36941,0
1900,36969,0
2072,36975,0
2232,36938,0
2400,36942,0
2522,36937,0
2632,36956,0
2624,36976,0
2600,36960,0
2484,36958,0
2336,36946,0
2096,36946,0
1884,36979,0
1652,36981,0
1452,36938,0
1267,36958,0
1142,36952,0
1096,36965,0
1112,36978,0
1216,36960,0
1377,36967,0
1616,36950,0
1892,36967,0
2164,36978,0
2432,36983,0
2632,36976,0
2805,36957,0
2898,36973,0
2898,36956,0
2832,36962,0
2668,36970,0
2468,36961,0
2216,36965,0
1942,36955,0
1670,36991,0
1441,36988,0
1272,36960,0
1160,36962,0
1144,36966,0
1176,36972,0
1288,36992,0
1436,36965,0
1636,36968,0
1836,36969,0
2032,36972,0
2202,36999,0
2370,37001,0
2448,36957,0
2468,36982,0
2416,36974,0
2300,36975,0
2173,36999,0
2032,37001,0
1905,36966,0
1832,36992,0
1798,36972,0
1837,36973,0
1928,36988,0
2088,36979,0
2300,36989,0
2576,36999,0
2864,36986,0
3160,37011,0
3444,37004,0
3700,36963,0
3888,36995,0
4024,36993,0
4068,36994,0
4071,37016,0
3948,36983,0
3824,36986,0
3528,36983,0
3268,36991,0
2936,37011,0
2656,37012,0
2372,36964,0
2172,36991,0
2032,36986,0
1984,36988,0
1980,37020,0
2034,37003,0
2120,36998,0
2232,36988,0
2380,36994,0
2520,37012,0
2648,37016,0
2786,36988,0
2850,37000,0
2880,36989,0
2796,37003,0
2684,36985,0
2528,36979,0
2336,37013,0
2132,37021,0
1936,37019,0
1760,36980,0
1646,37008,0
1572,36995,0
1570,37010,0
1618,37024,0
1706,37023,0
1829,36995,0
1984,36998,0
2108,37005,0
2260,37026,0
2328,37032,0
2392,36982,0
2360,37006,0
2288,37004,0
2160,37003,0
2004,37027,0
1792,37019,0
1560,37004,0
1352,37004,0
1172,37011,0
1056,37036,0
1003,37042,0
1042,37001,0
1176,37014,0
1362,37012,0
1876,37029,0
2148,37006,0
2408,37002,0
2612,37023,0
2768,37025,0
2840,37004,0
2840,37008,0
2770,37016,0
2628,37050,0
2420,37014,0
2168,37019,0
1920,37013,0
1653,37014,0
1428,37044,0
1256,37040,0
1152,36998,0
1124,37025,0
1172,37023,0
1279,37035,0
1448,37049,0
1664,37011,0
1868,37021,0
2076,37023,0
2260,37021,0
2408,37052,0
2472,37023,0
2489,37022,0
2445,37025,0
2369,37018,0
2264,37040,0
2124,37049,0
1960,37014,0
1792,37029,0
1668,37023,0
1586,37033,0
1552,37042,0
1584,37034,0
1644,37025,0
1756,37021,0
1922,37055,0
2092,37050,0
2272,37014,0
2436,37023,0
2583,37025,0
2664,37032,0
2728,37060,0
2672,37021,0
2596,37035,0
2424,37034,0
2240,37033,0
2004,37050,0
1754,37048,0
1540,37031,0
1361,37033,0
1225,37028,0
1162,37049,0
1173,37053,0
1252,37022,0
1400,37040,0
1612,37046,0
1866,37034,0
2144,37062,0
2425,37062,0
2669,37043,0
2802,37039,0
2960,37045,0
2996,37049,0
2945,37054,0
2832,37049,0
2640,37042,0
2408,37045,0
2148,37075,0
1900,37069,0
1688,37035,0
1522,37044,0
1420,37052,0
1405,37051,0
1456,37065,0
1549,37054,0
1724,37050,0
1904,37053,0
2112,37044,0
2288,37074,0
2450,37053,0
2568,37055,0
2664,37049,0
2650,37054,0
2578,37097,0
2435,37066,0
2217,37050,0
2008,37070,0
1798,37056,0
1626,37069,0
1508,37095,0
1462,37070,0
1476,37066,0
1558,37058,0
1712,37070,0
1890,37063,0
2116,37074,0
2346,37073,0
2556,37078,0
2748,37076,0
2896,37079,0
2984,37108,0
3000,37091,0
2932,37079,0
2833,37085,0
2628,37075,0
2418,37097,0
2154,37111,0
1896,37077,0
1652,37081,0
1472,37082,0
1346,37082,0
1306,37104,0
1332,37120,0
1430,37077,0
1585,37088,0
1777,37091,0
2000,37092,0
2212,37118,0
2434,37104,0
2620,37085,0
2768,37089,0
2880,37092,0
2930,37109,0
2908,37127,0
2784,37113,0
2661,37093,0
2476,37097,0
2282,37104,0
2084,37097,0
1914,37124,0
1813,37097,0
1746,37113,0
1760,37106,0
1816,37105,0
1944,37141,0
2117,37134,0
2268,37111,0
2488,37115,0
2634,37111,0
2792,37124,0
2836,37133,0
2916,37103,0
2840,37123,0
2748,37108,0
2592,37121,0
2408,37141,0
2280,37138,0
1946,37132,0
1738,37117,0
1572,37123,0
1484,37145,0
1482,37149,0
1560,37119,0
1736,37125,0
1968,37138,0
2241,37140,0
2508,37148,0
2784,37162,0
3020,37103,0
3202,37123,0
3320,37105,0
3368,37158,0
3312,37127,0
3186,37148,0
2984,37132,0
2744,37141,0
2480,37171,0
2221,37148,0
1960,37134,0
1776,37139,0
1638,37144,0
1600,37167,0
1610,37164,0
1708,37123,0
1864,37130,0
2060,37132,0
2273,37140,0
2516,37155,0
2708,37125,0
2860,37116,0
2960,37126,0
2956,37128,0
2920,37158,0
2824,37150,0
2690,37116,0
2552,37112,0
2384,37115,0
2220,37121,0
2047,37108,0
1944,37102,0
1904,37105,0
1908,37110,0
1972,37105,0
2080,37129,0
2236,37103,0
2400,37093,0
2576,37094,0
2746,37080,0
2888,37106,0
2981,37109,0
3008,37066,0
3024,37073,0
2904,37063,0
2760,37072,0
2532,37087,0
2302,37063,0
2044,37056,0
1788,37040,0
1544,37041,0
1440,37072,0
1341,37050,0
1326,37023,0
1369,37028,0
1484,37019,0
1661,37038,0
1874,37034,0
2116,36996,0
2376,36993,0
2628,36989,0
2824,37003,0
2924,37001,0
2976,36979,0
2968,36976,0
2844,36970,0
2682,36972,0
2448,36968,0
2200,36984,0
1936,36976,0
1712,36945,0
1526,36959,0
1402,36948,0
1348,36962,0
1370,36963,0
1460,36915,0
1576,36924,0
1777,36918,0
1960,36918,0
2164,36925,0
2316,36893,0
2436,36901,0
2484,36894,0
2520,36896,0
2437,36918,0
2316,36885,0
2113,36879,0
1884,36884,0
1656,36879,0
1453,36886,0
1306,36896,0
1224,36834,0
1234,36861,0
1304,36867,0
1444,36835,0
1628,36843,0
1848,36817,0
2092,36847,0
2320,36848,0
2524,36838,0
2680,36848,0
2784,36851,0
2810,36806,0
2768,36822,0
2656,36826,0
2490,36839,0
2260,36838,0
2016,36812,0
1729,36814,0
1500,36818,0
1292,36801,0
1154,36839,0
1074,36827,0
1082,36794,0
1152,36800,0
1300,36798,0
1481,36801,0
1698,36817,0
1910,36784,0
2104,36794,0
2289,36785,0
2418,36789,0
2522,36807,0
2592,36814,0
2572,36774,0
2328,36779,0
2158,36767,0
1972,36759,0
1784,36798,0
1620,36766,0
1499,36776,0
1426,36772,0
1430,36779,0
1396,36803,0
1590,36797,0
1744,36758,0
1920,36782,0
2088,36765,0
2272,36783,0
2384,36800,0
2492,36767,0
2512,36779,0
2492,36778,0
2384,36769,0
2236,36796,0
2060,36795,0
1832,36757,0
1593,36776,0
1397,36774,0
1216,36782,0
1102,36805,0
1077,36800,0
1117,36763,0
1253,36773,0
1448,36778,0
1716,36783,0
1997,36796,0
2240,36779,0
2484,36768,0
2690,36786,0
2828,36781,0
2876,36791,0
2808,36789,0
2752,36805,0
2568,36775,0
2328,36784,0
2084,36785,0
1820,36777,0
1567,36805,0
1372,36811,0
1236,36786,0
1168,36783,0
1186,36783,0
1264,36807,0
1408,36804,0
1584,36767,0
1800,36792,0
2008,36788,0
2208,36793,0
2376,36815,0
2468,36812,0
2508,36792,0
2448,36792,0
2368,36794,0
2224,36810,0
2058,36815,0
1888,36769,0
1714,36800,0
1593,36802,0
1484,36790,0
1434,36804,0
1464,36794,0
1517,36789,0
1642,36804,0
1796,36795,0
1984,36796,0
2164,36829,0
2344,36819,0
2498,36803,0
2600,36803,0
2670,36809,0
2658,36821,0
2602,36830,0
2448,36801,0
2290,36805,0
2042,36812,0
1792,36798,0
1560,36829,0
1360,36826,0
1204,36805,0
1120,36812,0
1088,36809,0
1132,36826,0
1248,36839,0
1409,36782,0
1617,36804,0
1845,36809,0
2092,36828,0
2340,36833,0
2560,36780,0
2712,36818,0
2754,36835,0
2762,36813,0
2696,36814,0
2552,36818,0
2360,36815,0
2128,36820,0
1896,36821,0
1672,36815,0
1492,36841,0
1372,36834,0
1316,36817,0
1332,36812,0
1418,36824,0
1562,36845,0
1716,36840,0
1928,36802,0
2100,36827,0
2276,36825,0
2400,36827,0
2468,36853,0
2480,36831,0
2464,36823,0
2336,36823,0
2164,36816,0
1945,36862,0
1704,36856,0
1499,36821,0
1318,36828,0
1213,36827,0
1184,36850,0
1236,36866,0
1370,36804,0
1534,36832,0
1770,36857,0
2009,36856,0
2252,36855,0
2464,36856,0
2640,36854,0
2756,36845,0
2812,36843,0
2788,36846,0
2692,36866,0
2536,36879,0
2320,36836,0
2144,36853,0
1826,36853,0
1561,36854,0
1360,36880,0
1188,36866,0
1104,36860,0
1089,36855,0
1156,36868,0
1272,36877,0
1464,36884,0
1666,36856,0
1880,36870,0
2084,36867,0
2248,36874,0
2385,36889,0
2470,36851,0
2516,36865,0
2512,36861,0
2456,36877,0
2332,36895,0
2144,36870,0
1978,36868,0
1800,36852,0
1649,36853,0
1528,36868,0
1468,36873,0
1465,36901,0
1504,36888,0
1616,36882,0
1864,36875,0
1936,36868,0
2111,36899,0
2276,36901,0
2432,36875,0
2504,36880,0
2560,36878,0
2516,36887,0
2450,36901,0
2282,36873,0
2088,36873,0
1858,36877,0
1642,36876,0
1408,36903,0
1228,36895,0
1104,36877,0
1048,36877,0
1062,36871,0
1166,36901,0
1352,36908,0
1604,36857,0
1896,36870,0
2184,36869,0
2436,36890,0
2668,36891,0
2848,36891,0
2940,36864,0
2940,36874,0
2868,36900,0
2712,36887,0
2496,36861,0
2244,36879,0
1978,36866,0
1689,36870,0
1512,36887,0
1348,36859,0
1256,36872,0
1244,36866,0
1300,36867,0
1420,36884,0
1608,36878,0
1802,36855,0
2008,36868,0
2208,36851,0
2408,36878,0
2518,36884,0
2584,36847,0
2568,36860,0
2464,36853,0
2316,36867,0
2164,36878,0
1992,36851,0
1816,36860,0
1676,36859,0
1576,36849,0
1529,36863,0
1532,36840,0
1600,36883,0
1722,36860,0
1880,36856,0
2064,36875,0
2256,36825,0
2456,36853,0
2612,36843,0
2744,36851,0
2808,36880,0
2840,36866,0
2762,36848,0
2656,36849,0
2444,36841,0
2244,36864,0
1980,36866,0
1744,36834,0
1520,36840,0
1350,36847,0
1232,36862,0
1194,36864,0
1221,36822,0
1324,36839,0
1476,36841,0
1676,36836,0
1912,36867,0
2144,36837,0
2372,36844,0
2616,36841,0
2784,36838,0
2896,36868,0
2896,36833,0
2852,36858,0
2746,36850,0
2568,36855,0
2364,36841,0
2120,36844,0
1904,36870,0
1710,36865,0
1576,36836,0
1514,36843,0
1512,36836,0
1585,36846,0
1696,36863,0
1880,36823,0
2040,36840,0
2248,36831,0
2410,36837,0
2576,36869,0
2632,36869,0
2672,36839,0
2632,36836,0
2560,36831,0
2388,36855,0
2176,36862,0
1946,36832,0
1712,36858,0
1512,36853,0
1369,36844,0
1314,36870,0
1348,36873,0
1456,36843,0
1844,36894,0
2092,36867,0
2344,36881,0
2585,36827,0
2788,36866,0
2942,36849,0
3024,36848,0
3036,36857,0
2964,36886,0
2816,36872,0
2636,36839,0
2380,36856,0
2104,36850,0
1844,36864,0
1594,36889,0
1428,36877,0
1320,36865,0
1296,36858,0
1320,36866,0
1434,36888,0
1608,36882,0
1824,36858,0
2040,36871,0
2266,36863,0
2469,36882,0
2604,36899,0
2720,36875,0
2760,36873,0
2760,36872,0
2720,36873,0
2616,36892,0
2472,36904,0
2288,36894,0
2112,36874,0
1952,36879,0
1838,36883,0
1768,36886,0
1749,36910,0
1788,36915,0
1892,36869,0
2032,36881,0
2192,36888,0
2384,36890,0
2573,36917,0
2704,36882,0
2848,36898,0
2864,36895,0
2868,36888,0
2776,36934,0
2656,36912,0
2456,36886,0
2236,36898,0
2008,36897,0
1808,36914,0
1610,36924,0
1462,36890,0
1398,36899,0
1388,36906,0
1473,36899,0
1632,36931,0
1860,36933,0
2136,36886,0
2436,36904,0
2714,36909,0
2932,36901,0
3120,36919,0
3232,36926,0
3272,36890,0
3216,36906,0
3080,36941,0
2868,36905,0
2740,36918,0
2340,36919,0
2072,36918,0
1820,36948,0
1643,36932,0
1524,36916,0
1480,36927,0
1512,36928,0
1628,36945,0
1789,36950,0
1996,36909,0
2196,36931,0
2396,36924,0
2576,36932,0
2732,36960,0
2800,36956,0
2800,36934,0
2726,36929,0
2564,36929,0
2381,36961,0
2168,36963,0
1981,36933,0
1810,36938,0
1682,36935,0
1616,36942,0
1608,36968,0
1672,36978,0
1786,36977,0
1956,36945,0
2156,36956,0
2368,36971,0
2576,36943,0
2754,36944,0
2896,36950,0
2984,36935,0
3000,36976,0
2970,36972,0
2848,36928,0
2692,36947,0
2440,36952,0
2208,36961,0
1946,36986,0
1716,36970,0
1508,36954,0
1378,36959,0
1312,36956,0
1332,36979,0
1424,36989,0
1569,36941,0
1752,36961,0
1964,36959,0
2190,36965,0
2417,36982,0
2636,36977,0
2824,36962,0
2960,36959,0
3016,36961,0
2954,36962,0
2872,36962,0
2714,36957,0
2506,36971,0
2296,36964,0
2074,36965,0
1890,36969,0
1736,36993,0
1650,36991,0
1636,36954,0
1692,36963,0
1817,36963,0
1960,36990,0
2168,36996,0
2328,36950,0
2530,36964,0
2656,36970,0
2772,36982,0
2800,37007,0
2768,36987,0
2672,36984,0
2524,36959,0
2346,36978,0
2118,37005,0
1872,37003,0
1656,36966,0
1493,36970,0
1386,36976,0
1384,36981,0
1472,37004,0
1641,37000,0
1867,36974,0
2114,36994,0
2388,36983,0
2644,36980,0
2860,36987,0
3036,36964,0
3128,36973,0
3152,36988,0
3076,36984,0
2936,36986,0
2708,37009,0
2444,37015,0
2167,36982,0
1856,36983,0
1592,36980,0
1406,36999,0
1276,37006,0
1218,36966,0
1261,37001,0
1384,36990,0
1572,37004,0
1808,37032,0
2068,37019,0
2372,36996,0
2646,36999,0
2858,36992,0
3012,37024,0
3124,37024,0
3176,36983,0
3186,36997,0
3168,37001,0
3084,37000,0
2984,37026,0
2864,37006,0
2784,37021,0
2748,37019,0
2760,37009,0
2820,37031,0
2954,37018,0
3124,37015,0
3336,37003,0
3560,37010,0
3784,37024,0
3968,37034,0
4088,37001,0
4080,37012,0
4095,37006,0
4040,37011,0
3988,37039,0
3760,37037,0
3536,37005,0
3188,37016,0
2856,37023,0
2520,37042,0
2240,37043,0
1965,37010,0
1787,37027,0
1668,37022,0
1626,37022,0
1688,37048,0
1832,37046,0
2045,37014,0
2312,37031,0
2592,37026,0
2848,37034,0
3028,37009,0
3178,37004,0
3240,37027,0
3224,37031,0
3108,37026,0
2916,37062,0
2660,37054,0
2370,37010,0
2084,37037,0
1808,37029,0
1592,37035,0
1432,37064,0
1349,37061,0
1344,37031,0
1416,37045,0
1558,37036,0
1733,37056,0
1960,37069,0
2168,37019,0
2356,37035,0
2520,37042,0
2648,37044,0
2688,37066,0
2656,37043,0
2549,37048,0
2356,37039,0
2160,37045,0
1946,37071,0
1754,37069,0
1624,37034,0
1544,37044,0
1584,37072,0
1700,37077,0
1880,37062,0
2080,37066,0
2300,37055,0
2520,37066,0
2712,37045,0
2874,37057,0
2984,37048,0
3004,37073,0
2992,37085,0
2903,37035,0
2712,37061,0
2516,37059,0
2240,37066,0
2005,37076,0
1736,37070,0
1536,37065,0
1380,37069,0
1301,37062,0
1304,37082,0
1376,37097,0
1505,37044,0
1704,37067,0
1928,37062,0
2120,37065,0
2356,37098,0
2560,37087,0
2730,37075,0
2888,37068,0
2952,37071,0
2968,37084,0
2858,37089,0
2730,37058,0
2548,37086,0
2344,37096,0
2140,37077,0
1945,37051,0
1804,37086,0
1712,37071,0
1688,37074,0
1728,37098,0
1832,37092,0
1984,37078,0
2152,37080,0
2356,37075,0
2506,37108,0
2680,37096,0
2768,37074,0
2848,37077,0
2804,37071,0
2736,37085,0
2596,37111,0
2432,37069,0
2208,37085,0
1973,37090,0
1752,37080,0
1568,37102,0
1454,37115,0
1421,37076,0
1483,37091,0
1634,37078,0
1858,37091,0
2128,37111,0
2394,37089,0
2674,37098,0
2924,37093,0
3136,37089,0
3268,37120,0
3320,37088,0
3304,37092,0
3200,37096,0
3024,37102,0
2792,37122,0
2528,37125,0
2260,37093,0
1988,37109,0
1788,37106,0
1618,37109,0
1552,37130,0
1528,37097,0
1636,37108,0
1776,37103,0
1964,37102,0
2174,37133,0
2432,37124,0
2644,37105,0
2818,37117,0
2932,37106,0
2976,37111,0
2970,37139,0
2900,37121,0
2792,37091,0
2672,37114,0
2512,37118,0
2349,37134,0
2180,37121,0
2056,37109,0
1996,37125,0
1976,37094,0
2016,37141,0
2112,37150,0
2256,37119,0
2436,37129,0
2616,37125,0
2808,37136,0
2960,37166,0
3103,37125,0
3172,37138,0
3208,37138,0
3136,37130,0
3032,37173,0
2860,37151,0
2660,37137,0
2392,37145,0
2144,37139,0
1936,37154,0
1768,37165,0
1664,37128,0
1632,37155,0
1668,37151,0
1772,37149,0
1936,37178,0
2168,37169,0
2424,37149,0
2728,37150,0
2994,37150,0
3242,37158,0
3364,37168,0
3476,37184,0
3504,37170,0
3432,37171,0
3288,37160,0
3088,37194,0
2840,37185,0
2584,37154,0
2330,37162,0
2136,37157,0
1984,37168,0
1925,37198,0
1924,37168,0
2016,37168,0
2146,37175,0
2328,37176,0
2520,37202,0
2752,37200,0
2928,37166,0
3082,37178,0
3184,37173,0
3264,37197,0
3232,37206,0
3124,37171,0
2960,37194,0
2724,37189,0
2498,37183,0
2280,37215,0
2120,37207,0
2024,37177,0
1993,37189,0
2048,37184,0
2144,37185,0
2316,37182,0
2536,37174,0
2896,37186,0
3016,37194,0
3236,37190,0
3420,37185,0
3544,37179,0
3616,37210,0
3600,37197,0
3516,37173,0
3391,37176,0
3152,37171,0
2936,37186,0
2640,37191,0
2384,37144,0
2148,37164,0
1984,37163,0
1861,37158,0
1836,37182,0
1898,37163,0
2032,37144,0
2208,37142,0
2410,37138,0
2640,37143,0
2836,37153,0
3040,37116,0
3212,37134,0
3334,37125,0
3440,37110,0
3456,37144,0
3392,37124,0
3232,37094,0
3066,37101,0
2864,37080,0
2648,37090,0
2458,37094,0
2293,37098,0
2192,37072,0
2153,37070,0
2162,37056,0
2240,37046,0
2376,37073,0
2539,37067,0
2704,37020,0
2900,37033,0
3012,37024,0
3144,37022,0
3172,37049,0
3184,36991,0
3080,37019,0
2928,36992,0
2728,36992,0
2516,37019,0
2272,36998,0
2025,36970,0
1813,36973,0
1648,36968,0
1574,36987,0
1580,36990,0
1677,36953,0
1868,36955,0
2106,36943,0
2384,36943,0
2656,36937,0
2912,36930,0
3120,36926,0
3273,36922,0
3352,36931,0
3352,36913,0
3264,36940,0
3092,36918,0
2868,36901,0
2600,36895,0
2308,36897,0
2044,36914,0
1786,36911,0
1616,36864,0
1498,36877,0
1472,36870,0
1514,36883,0
1644,36904,0
1804,36889,0
2004,36861,0
2220,36864,0
2452,36856,0
2632,36870,0
2762,36877,0
2820,36831,0
2800,36853,0
2736,36843,0
2613,36845,0
2454,36869,0
2297,36862,0
2130,36827,0
1972,36831,0
1836,36840,0
1754,36829,0
1740,36839,0
1788,36844,0
1866,36825,0
2009,36823,0
2192,36817,0
2372,36845,0
2564,36842,0
2728,36806,0
2858,36816,0
2961,36800,0
2964,36819,0
2960,36826,0
2808,36800,0
2656,36807,0
2412,36806,0
2192,36799,0
1924,36831,0
1696,36819,0
1520,36796,0
1408,36792,0
1344,36806,0
1365,36837,0
1454,36815,0
1602,36781,0
1800,36799,0
2042,36799,0
2304,36806,0
2576,36816,0
2816,36778,0
3068,36830,0
3104,36806,0
3048,36816,0
2932,36775,0
2740,36787,0
2512,36794,0
2260,36824,0
2006,36831,0
1808,36781,0
1656,36792,0
1572,36787,0
1559,36810,0
1624,36815,0
1760,36782,0
1912,36802,0
2112,36792,0
2302,36798,0
2512,36820,0
2657,36818,0
2760,36796,0
2840,36798,0
2816,36792,0
2720,36824,0
2564,36825,0
2368,36775,0
2112,36805,0
1885,36809,0
1690,36811,0
1558,36827,0
1504,36820,0
1522,36814,0
1635,36802,0
1796,36832,0
2001,36800,0
2240,36804,0
2488,36813,0
2720,36818,0
2918,36806,0
3068,36812,0
3152,36808,0
3152,36815,0
3080,36841,0
2948,36848,0
2757,36803,0
2500,36817,0
2248,36811,0
1960,36821,0
1736,36854,0
1534,36836,0
1436,36817,0
1384,36820,0
1404,36826,0
1512,36849,0
1696,36847,0
1898,36809,0
2116,36822,0
2344,36830,0
2528,36835,0
2706,36864,0
2824,36831,0
2900,36831,0
2932,36832,0
2888,36835,0
2784,36865,0
2604,36832,0
2412,36842,0
2224,36830,0
2044,36836,0
1900,36845,0
1785,36836,0
1752,36835,0
1772,36870,0
1848,36850,0
1990,36828,0
2150,36838,0
2349,36843,0
2528,36867,0
2712,36865,0
2808,36833,0
2896,36843,0
2888,36833,0
2844,36852,0
2700,36862,0
2524,36840,0
2308,36839,0
2096,36841,0
1858,36845,0
1648,36871,0
1490,36874,0
1400,36847,0
1396,36847,0
1457,36839,0
1632,36856,0
1874,36861,0
2144,36838,0
2448,36857,0
2696,36837,0
2942,36842,0
3136,36850,0
3248,36865,0
3280,36859,0
3216,36871,0
3084,36838,0
2880,36841,0
2636,36846,0
2360,36855,0
2096,36873,0
1871,36861,0
1680,36867,0
1564,36853,0
1538,36850,0
1585,36882,0
1684,36881,0
1872,36842,0
2064,36858,0
2274,36845,0
2500,36866,0
2736,36890,0
2884,36866,0
2976,36862,0
2992,36847,0
2904,36867,0
2781,36881,0
2624,36897,0
2441,36852,0
2272,36872,0
2116,36869,0
1986,36876,0
1876,36892,0
1866,36898,0
1912,36888,0
2009,36889,0
2156,36881,0
2340,36875,0
2536,36888,0
2736,36912,0
3060,36868,0
3071,36889,0
3172,36878,0
3231,36894,0
3176,36918,0
3114,36896,0
2912,36887,0
2728,36892,0
2464,36888,0
2218,36923,0
1968,36918,0
1762,36888,0
1636,36903,0
1562,36908,0
1572,36912,0
1645,36923,0
1792,36908,0
1976,36900,0
2200,36913,0
2452,36906,0
2714,36939,0
2976,36936,0
3189,36899,0
3332,36915,0
3360,36908,0
3348,36911,0
3272,36934,0
3096,36914,0
2888,36902,0
2652,36906,0
2408,36931,0
2202,36949,0
2032,36916,0
1940,36924,0
1901,36921,0
1952,36924,0
2056,36952,0
2232,36941,0
2408,36919,0
2624,36926,0
2800,36916,0
2992,36941,0
3088,36947,0
3152,36911,0
3144,36926,0
3116,36921,0
2960,36929,0
2761,36951,0
2536,36936,0
2264,36927,0
2060,36934,0
1896,36918,0
1808,36952,0
1824,36948,0
1904,36908,0
2072,36938,0
2268,36899,0
2524,36896,0
2792,36900,0
3052,36931,0
3280,36900,0
3450,36921,0
3560,36933,0
3592,36951,0
3552,36923,0
3408,36928,0
3224,36929,0
2990,36922,0
2708,36954,0
2464,36948,0
2180,36919,0
1984,36914,0
1840,36921,0
1788,36945,0
1804,36946,0
1898,36904,0
2060,36925,0
2296,36925,0
2528,36921,0
2768,36945,0
2992,36916,0
3144,36918,0
3280,36921,0
3360,36921,0
3394,36942,0
3392,36942,0
3304,36912,0
3156,36925,0
2954,36930,0
2776,36934,0
2596,36944,0
2448,36932,0
2336,36941,0
2288,36921,0
2302,36912,0
2384,36930,0
2512,36932,0
2684,36910,0
2860,36917,0
3071,36916,0
3216,36918,0
3396,36941,0
3432,36933,0
3480,36918,0
3412,36907,0
3328,36916,0
3128,36932,0
2904,36937,0
2672,36902,0
2456,36919,0
2236,36918,0
2060,36911,0
1944,36946,0
1900,36928,0
1948,36917,0
2076,36919,0
2282,36916,0
2568,36945,0
2872,36937,0
3184,36910,0
3416,36925,0
3644,36956,0
3784,36939,0
3864,36944,0
3856,36929,0
3732,36925,0
3552,36934,0
3308,36928,0
3040,36916,0
2746,36920,0
2488,36917,0
2292,36926,0
2128,36958,0
2072,36932,0
2080,36926,0
2180,36923,0
2316,36926,0
2528,36949,0
2720,36946,0
2940,36928,0
3140,36918,0
3344,36916,0
3444,36949,0
3472,36949,0
3442,36910,0
3296,36928,0
3136,36928,0
2928,36933,0
2725,36969,0
2562,36954,0
2416,36932,0
2260,36971,0
2296,36958,0
2392,36947,0
2544,36954,0
2728,36941,0
2944,36960,0
3152,36929,0
3344,36934,0
3508,36938,0
3624,36949,0
3680,36965,0
3676,36931,0
3568,36944,0
3440,36942,0
3192,36962,0
2976,36963,0
2680,36940,0
2434,36954,0
2204,36949,0
2040,36961,0
1956,36971,0
1952,36975,0
2002,36952,0
2137,36950,0
2312,36967,0
2520,36993,0
2760,36994,0
3000,36955,0
3237,36966,0
3472,36975,0
3626,36984,0
3722,36993,0
3688,36971,0
3612,36975,0
3480,36983,0
3280,36995,0
3056,36978,0
2815,37008,0
2596,36954,0
2416,36977,0
2292,36978,0
2246,36969,0
2272,37010,0
2361,36997,0
2488,36976,0
2712,36978,0
2864,36987,0
3070,36997,0
3224,37012,0
3384,36974,0
3416,36999,0
3424,36982,0
3360,36990,0
3268,37017,0
3077,37016,0
2850,36973,0
2612,36990,0
2356,36981,0
2179,37007,0
2044,37020,0
2024,36971,0
2088,36993,0
2236,36993,0
2456,37006,0
2680,37004,0
2948,36984,0
3216,37006,0
3452,36997,0
3656,37010,0
3780,37004,0
3836,37034,0
3812,37015,0
3708,37008,0
3520,37017,0
3288,37019,0
3024,37043,0
2732,37031,0
2484,37008,0
2234,37015,0
2084,37016,0
1984,37043,0
1984,37041,0
2042,36997,0
2184,37021,0
2380,37015,0
2648,37026,0
2880,37054,0
3104,37015,0
3296,37029,0
3402,37016,0
3482,37023,0
3504,37051,0
3466,37038,0
3412,37020,0
3264,37025,0
3072,37020,0
2864,37035,0
2686,37002,0
2532,37006,0
2424,37019,0
2360,37025,0
2364,37048,0
2424,37027,0
2533,37034,0
2684,37036,0
2860,37026,0
3044,37051,0
3220,37057,0
3320,37023,0
3448,37025,0
3428,37028,0
3424,37040,0
3284,37060,0
3136,37022,0
2904,37040,0
2656,37038,0
2408,37034,0
2208,37070,0
2010,37044,0
1884,37043,0
1829,37038,0
1840,37043,0
1936,37065,0
2106,37065,0
2344,37034,0
2632,37037,0
2922,37036,0
3200,37061,0
3396,37038,0
3560,37039,0
3648,37034,0
3664,37050,0
3580,37050,0
3412,37076,0
3196,37068,0
2960,37044,0
2648,37050,0
2380,37052,0
2152,37071,0
2001,37077,0
1904,37037,0
1908,37048,0
1964,37058,0
2112,37055,0
2282,37077,0
2502,37056,0
2696,37058,0
2912,37046,0
3064,37047,0
3208,37084,0
3258,37080,0
3248,37056,0
3124,37052,0
2936,37061,0
2733,37079,0
2517,37087,0
2305,37042,0
2156,37053,0
2040,37065,0
2008,37091,0
2012,37064,0
2112,37085,0
2252,37061,0
2440,37079,0
2644,37073,0
2888,37068,0
3084,37074,0
3264,37091,0
3392,37058,0
3456,37067,0
3452,37054,0
3394,37070,0
3216,37087,0
3060,37059,0
2770,37069,0
2512,37070,0
2236,37066,0
2008,37106,0
1816,37073,0
1704,37080,0
1672,37084,0
1730,37075,0
1836,37100,0
2006,37101,0
2221,37071,0
2424,37072,0
2658,37081,0
2868,37102,0
3085,37108,0
3264,37069,0
3360,37083,0
3401,37066,0
3308,37101,0
3184,37103,0
3004,37087,0
2786,37100,0
2556,37103,0
2336,37097,0
2144,37103,0
1996,37087,0
1918,37097,0
1898,37087,0
1948,37091,0
2064,37109,0
2208,37092,0
2400,37092,0
2554,37091,0
2736,37089,0
2872,37119,0
2988,37111,0
3012,37084,0
2984,37085,0
2904,37086,0
2816,37108,0
2648,37120,0
2460,37086,0
2288,37096,0
2116,37100,0
2040,37113,0
2024,37116,0
2112,37075,0
2296,37092,0
2560,37094,0
2872,37099,0
3172,37103,0
3524,37110,0
3872,37101,0
4072,37099,0
4088,37107,0
4080,37117,0
4092,37126,0
4080,37088,0
4080,37104,0
4060,37101,0
4024,37095,0
3924,37133,0
3720,37103,0
3552,37087,0
3320,37113,0
3186,37105,0
3032,37126,0
2984,37130,0
2916,37091,0
2932,37114,0
2972,37109,0
3072,37112,0
3137,37132,0
3200,37093,0
3220,37106,0
3184,37108,0
3129,37114,0
3044,37139,0
2928,37128,0
2800,37107,0
2610,37113,0
2476,37110,0
2302,37136,0
2172,37133,0
2088,37109,0
2053,37136,0
2056,37117,0
2122,37148,0
2186,37140,0
2348,37124,0
2504,37109,0
2648,37113,0
2792,37150,0
2916,37134,0
2964,37123,0
2994,37118,0
2896,37117,0
2832,37148,0
2640,37154,0
2450,37110,0
2196,37120,0
1956,37118,0
1750,37130,0
1586,37159,0
1472,37123,0
1412,37129,0
1424,37124,0
1512,37125,0
1674,37148,0
1885,37147,0
2141,37128,0
2432,37119,0
2712,37129,0
3128,37164,0
3256,37123,0
3296,37135,0
3236,37142,0
3120,37161,0
2912,37136,0
2664,37128,0
2388,37142,0
2128,37160,0
1898,37115,0
1724,37131,0
1624,37135,0
1588,37144,0
1653,37164,0
1756,37144,0
1924,37146,0
2114,37141,0
2336,37143,0
2512,37167,0
2688,37164,0
2840,37137,0
2904,37141,0
2888,37147,0
2804,37163,0
2650,37173,0
2434,37126,0
2208,37154,0
1990,37132,0
1814,37148,0
1702,37175,0
1634,37173,0
1668,37134,0
1728,37164,0
1888,37162,0
2080,37174,0
2308,37150,0
2540,37154,0
2752,37145,0
2944,37141,0
3088,37147,0
3164,37171,0
3184,37159,0
3120,37157,0
3003,37146,0
2796,37148,0
2568,37173,0
2276,37180,0
2024,37139,0
1776,37155,0
1584,37157,0
1453,37167,0
1408,37177,0
1436,37160,0
1538,37159,0
1720,37150,0
1900,37161,0
2128,37188,0
2344,37172,0
2552,37150,0
2740,37161,0
2904,37158,0
3024,37187,0
3056,37181,0
3033,37153,0
2904,37183,0
2760,37190,0
2559,37184,0
2354,37187,0
2152,37186,0
1976,37165,0
1850,37165,0
1786,37194,0
1793,37199,0
1856,37161,0
1976,37168,0
2148,37173,0
2352,37185,0
2532,37198,0
2684,37153,0
2832,37177,0
2896,37174,0
2952,37188,0
2752,37212,0
2770,37194,0
2600,37194,0
2424,37186,0
2176,37184,0
1930,37213,0
1714,37210,0
1536,37176,0
1448,37194,0
1429,37183,0
1520,37192,0
1698,37217,0
1936,37193,0
2208,37195,0
2480,37203,0
2756,37198,0
3000,37199,0
3178,37204,0
3300,37199,0
3332,37188,0
3276,37210,0
3140,37194,0
2936,37209,0
2682,37242,0
2408,37232,0
2144,37212,0
1884,37224,0
1696,37207,0
1554,37231,0
1512,37240,0
1534,37200,0
1640,37209,0
1800,37210,0
2002,37232,0
2224,37243,0
2480,37229,0
2680,37218,0
2840,37223,0
2932,37221,0
2944,37246,0
2908,37253,0
2812,37219,0
2676,37233,0
2536,37233,0
2356,37240,0
2192,37259,0
2020,37227,0
1932,37238,0
1882,37233,0
1890,37242,0
1960,37234,0
2084,37265,0
2248,37240,0
2440,37236,0
2640,37231,0
2818,37242,0
2976,37270,0
3111,37258,0
3152,37241,0
3168,37253,0
3048,37246,0
2920,37272,0
2708,37277,0
2488,37231,0
2220,37250,0
1980,37251,0
1776,37267,0
1633,37279,0
1558,37253,0
1554,37272,0
1611,37253,0
1736,37258,0
1928,37286,0
2168,37271,0
2434,37253,0
2736,37247,0
2992,37260,0
3228,37292,0
3320,37246,0
3388,37227,0
3376,37241,0
3273,37250,0
3106,37232,0
2880,37295,0
2632,37274,0
2364,37257,0
2136,37256,0
1952,37244,0
1836,37270,0
1800,37274,0
1817,37234,0
1936,37248,0
2089,37235,0
2274,37243,0
2464,37268,0
2688,37235,0
2836,37238,0
2964,37228,0
3036,37230,0
3080,37261,0
3001,37255,0
2864,37215,0
2661,37222,0
2418,37226,0
2184,37249,0
1970,37245,0
1816,37192,0
1728,37208,0
1721,37204,0
1792,37215,0
1912,37194,0
2104,37213,0
2340,37217,0
2601,37198,0
2814,37198,0
3016,37189,0
3170,37210,0
3196,37186,0
3304,37167,0
3248,37161,0
3120,37162,0
2952,37184,0
2672,37172,0
2416,37133,0
2120,37144,0
1856,37136,0
1632,37144,0
1472,37145,0
1384,37104,0
1380,37107,0
1448,37113,0
1592,37112,0
1766,37131,0
1984,37097,0
2192,37095,0
2378,37091,0
2560,37089,0
2696,37105,0
2790,37098,0
2848,37077,0
2816,37060,0
2730,37061,0
2559,37074,0
2370,37065,0
2160,37070,0
1968,37058,0
1777,37045,0
1650,37068,0
1562,37058,0
1549,37019,0
1594,37021,0
1698,37020,0
1848,37019,0
2025,37044,0
2192,37016,0
2368,37006,0
2472,37003,0
2572,37004,0
2584,37019,0
2568,37022,0
2448,36981,0
2282,36991,0
2072,36988,0
1842,36987,0
1612,37009,0
1376,36976,0
1204,36973,0
1076,36976,0
1035,36971,0
1074,37002,0
1204,37000,0
1408,36950,0
1672,36964,0
1964,36967,0
2172,36994,0
2476,36987,0
2696,36990,0
2828,36979,0
2884,36956,0
2856,36964,0
2744,36979,0
2564,36941,0
2324,36948,0
2047,36948,0
1772,36937,0
1513,36970,0
1308,36965,0
1160,36940,0
1088,36939,0
1100,36944,0
1178,36966,0
1316,36947,0
1506,36940,0
1720,36931,0
1932,36942,0
2152,36971,0
2312,36963,0
2426,36931,0
2448,36943,0
2412,36946,0
2328,36962,0
2184,36961,0
2022,36926,0
1844,36935,0
1672,36934,0
1426,36985,0
1373,36948,0
1380,36939,0
1444,36961,0
1560,36953,0
1728,36948,0
1908,36942,0
2098,36934,0
2280,36970,0
2448,36951,0
2544,36943,0
2630,36945,0
2600,36929,0
2560,36959,0
2396,36973,0
2212,36930,0
1968,36946,0
1728,36937,0
1485,36965,0
1258,36967,0
1108,36938,0
1010,36951,0
984,36948,0
1028,36954,0
1142,36983,0
1312,36959,0
1524,36953,0
1765,36951,0
2024,36959,0
2292,36980,0
2504,36978,0
2672,36960,0
2728,36985,0
2736,36950,0
2672,36989,0
2522,36972,0
2321,36980,0
2096,36966,0
1844,36990,0
1616,36969,0
1416,36973,0
1288,36959,0
1224,36963,0
1251,36990,0
1320,36989,0
1476,36960,0
1641,36969,0
1836,36963,0
2012,36993,0
2204,36993,0
2328,36963,0
2408,36962,0
2416,36971,0
2384,36985,0
2262,36994,0
2072,36949,0
1842,36968,0
1593,36963,0
1384,36963,0
1198,36990,0
1090,36979,0
1070,36978,0
1127,36959,0
1266,36969,0
1452,36976,0
1694,36977,0
1948,36988,0
2194,36976,0
2424,36984,0
2612,36984,0
2724,37006,0
2776,36960,0
2760,36967,0
2658,36971,0
2484,36978,0
2271,36999,0
2000,36998,0
1744,36971,0
1458,36967,0
1253,36978,0
1082,36993,0
986,37006,0
980,36972,0
1032,36975,0
1168,36976,0
1357,36990,0
1560,36998,0
1787,36954,0
1993,36979,0
2161,36985,0
2306,36984,0
2396,37010,0
2464,36967,0
2452,36984,0
2392,36976,0
2272,36989,0
2096,37005,0
1912,37001,0
1732,36993,0
1570,37001,0
1449,37002,0
1380,37008,0
1376,36992,0
1416,36984,0
1524,36975,0
1673,36985,0
1849,37015,0
2036,37001,0
2197,36973,0
2340,36993,0
2440,36982,0
2481,37003,0
2460,37009,0
2364,36974,0
2220,36991,0
2008,36980,0
1784,37003,0
1556,37007,0
1322,36978,0
1146,36994,0
1003,36998,0
946,36994,0
968,37027,0
1064,37003,0
1250,36998,0
1492,36991,0
1780,36985,0
2074,37026,0
2336,37008,0
2558,37011,0
2724,37005,0
2806,37005,0
2804,37003,0
2724,37030,0
2558,37030,0
2344,36991,0
2066,37000,0
1808,37009,0
1534,37020,0
1323,37033,0
1149,37020,0
1060,37008,0
1000,37009,0
1104,37021,0
1236,37045,0
1401,37024,0
1604,37014,0
1820,37018,0
2032,37011,0
2224,37037,0
2344,37037,0
2400,36999,0
2389,37024,0
2276,37010,0
2142,37036,0
1957,37040,0
1768,37007,0
1588,37024,0
1434,37019,0
1328,37027,0
1276,37054,0
1272,37042,0
1344,37040,0
1466,37017,0
1624,37029,0
1820,37000,0
2016,37014,0
2204,37021,0
2404,37012,0
2500,37049,0
2572,37028,0
2591,37027,0
2508,37020,0
2416,37023,0
2204,37041,0
1984,37048,0
1720,37014,0
1488,37021,0
1248,37025,0
1084,37041,0
968,37039,0
913,37017,0
953,37034,0
1048,37016,0
1216,37046,0
1409,37037,0
1632,37015,0
1880,37008,0
2116,37017,0
2344,37047,0
2520,37041,0
2632,37002,0
2624,36993,0
2588,37019,0
2476,37012,0
2288,36988,0
2068,37049,0
1829,37021,0
1604,37011,0
1416,37042,0
1282,37029,0
1206,37015,0
1208,37012,0
1288,37022,0
1401,37046,0
1560,37036,0
1752,37011,0
1952,37004,0
2120,37013,0
2260,37037,0
2348,37041,0
2376,37010,0
2328,37013,0
2256,37009,0
2084,37020,0
1864,37036,0
1625,37008,0
1380,37016,0
1181,37010,0
1043,37016,0
987,37031,0
1005,37010,0
1124,37008,0
1316,37004,0
1535,37013,0
1804,37017,0
2064,37003,0
2304,37002,0
2508,37014,0
2560,36999,0
2748,37000,0
2740,37015,0
2666,37025,0
2512,37007,0
2298,37005,0
2055,37006,0
1776,37004,0
1502,37026,0
1272,37024,0
1089,36997,0
976,37008,0
930,36995,0
990,37019,0
1092,37033,0
1258,36992,0
1441,37003,0
1690,37002,0
1906,37018,0
2093,37029,0
2228,36989,0
2324,37010,0
2370,37007,0
2348,37022,0
2312,37023,0
2208,36980,0
2058,37005,0
1874,36994,0
1704,37018,0
1552,37019,0
1434,37033,0
1354,36996,0
1348,37007,0
1392,37025,0
1492,37026,0
1628,37001,0
1816,37001,0
1982,37000,0
2156,37030,0
2312,37031,0
2416,36991,0
2468,37000,0
2444,37000,0
2356,37034,0
2224,37032,0
2028,36989,0
1800,37002,0
1562,37004,0
1336,37020,0
1144,37039,0
990,36978,0
908,37000,0
904,37007,0
979,37014,0
1131,37034,0
1357,36999,0
1624,37013,0
1922,37015,0
2458,37038,0
2612,37015,0
2740,37038,0
2780,37025,0
2730,37002,0
2592,37017,0
2392,37012,0
2148,37019,0
1866,37044,0
1616,37036,0
1364,37022,0
1192,37015,0
1088,37022,0
1052,37051,0
1104,37049,0
1193,37023,0
1368,37026,0
1564,37023,0
1764,37045,0
1960,37051,0
2168,36997,0
2290,37030,0
2368,37028,0
2352,37039,0
2288,37053,0
2128,37023,0
1954,37033,0
1744,37035,0
1549,37029,0
1384,37058,0
1274,37054,0
1203,37033,0
1208,37038,0
1277,37012,0
1398,37040,0
1570,37054,0
1784,37060,0
1986,37039,0
2196,37065,0
2384,37067,0
2528,37033,0
2620,37043,0
2648,37050,0
2614,37065,0
2488,37075,0
2328,37035,0
2092,37051,0
1850,37051,0
1592,37053,0
1360,37080,0
1172,37051,0
1044,37060,0
986,37050,0
1008,37059,0
1084,37091,0
1227,37062,0
1421,37070,0
1620,37059,0
1860,37061,0
2068,37082,0
2282,37083,0
2480,37055,0
2601,37061,0
2664,37062,0
2608,37055,0
2528,37050,0
2356,37065,0
2188,37064,0
1976,37077,0
1760,37064,0
1573,37064,0
1438,37070,0
1368,37100,0
1362,37089,0
1420,37064,0
1546,37067,0
1696,37058,0
1888,37099,0
2076,37095,0
2248,37071,0
2400,37073,0
2496,37070,0
2528,37084,0
2488,37092,0
2388,37055,0
2250,37068,0
2022,37066,0
1785,37078,0
1536,37094,0
1308,37052,0
1126,37072,0
1028,37065,0
1001,37068,0
1094,37104,0
1256,37087,0
1480,37060,0
1720,37083,0
1998,37081,0
2260,37076,0
2490,37079,0
2664,37078,0
2773,37062,0
2800,37077,0
2744,37075,0
2624,37090,0
2416,37107,0
2172,37067,0
1896,37077,0
1620,37083,0
1368,37082,0
1157,37109,0
1028,37088,0
948,37081,0
970,37085,0
1064,37086,0
1204,37119,0
1392,37094,0
1618,37086,0
1834,37096,0
2024,37088,0
2180,37113,0
2264,37102,0
2210,37088,0
2286,37094,0
2217,37085,0
2116,37089,0
1968,37120,0
1800,37093,0
1612,37107,0
1464,37084,0
1348,37091,0
1286,37062,0
1272,37111,0
1312,37078,0
1406,37086,0
1580,37091,0
1720,37113,0
1908,37126,0
2072,37090,0
2232,37104,0
2346,37088,0
2428,37115,0
2392,37121,0
2324,37079,0
2188,37091,0
2008,37096,0
1780,37097,0
1540,37119,0
1304,37097,0
1101,37100,0
952,37112,0
857,37102,0
833,37142,0
882,37122,0
1004,37104,0
1194,37113,0
1443,37106,0
1720,37132,0
1997,37138,0
2264,37097,0
2448,37101,0
2584,37119,0
2648,37119,0
2624,37113,0
2520,37111,0
2340,37139,0
2108,37112,0
1840,37119,0
1594,37108,0
1348,37112,0
1158,37140,0
1047,37147,0
984,37099,0
1013,37128,0
1104,37124,0
1254,37132,0
1448,37143,0
1656,37097,0
1853,37125,0
2040,37118,0
2164,37135,0
2264,37153,0
2274,37112,0
2205,37125,0
2060,37124,0
1850,37130,0
1613,37145,0
1372,37136,0
1161,37119,0
996,37121,0
888,37113,0
865,37155,0
916,37122,0
1028,37125,0
1216,37146,0
1440,37130,0
1688,37128,0
1936,37136,0
2180,37160,0
2384,37113,0
2536,37138,0
2656,37132,0
2672,37147,0
2612,37147,0
2528,37117,0
2376,37132,0
2196,37129,0
2000,37139,0
1826,37158,0
1690,37121,0
1620,37128,0
1632,37129,0
1708,37143,0
1900,37158,0
2112,37118,0
2388,37141,0
2680,37141,0
2960,37143,0
3240,37176,0
3496,37136,0
3688,37129,0
3840,37140,0
3880,37139,0
3844,37167,0
3644,37148,0
3434,37134,0
3156,37144,0
2853,37139,0
2540,37131,0
2257,37138,0
1988,37135,0
1790,37164,0
1649,37168,0
1620,37131,0
1626,37142,0
1712,37135,0
1840,37153,0
1992,37175,0
2148,37139,0
2300,37147,0
2408,37146,0
2464,37157,0
2464,37179,0
2392,37144,0
2256,37152,0
2084,37154,0
1858,37161,0
1600,37179,0
1356,37175,0
1148,37139,0
992,37153,0
908,37160,0
926,37168,0
1014,37184,0
1190,37139,0
1656,37184,0
1896,37183,0
2124,37180,0
2308,37160,0
2434,37185,0
2500,37199,0
2468,37177,0
2369,37148,0
2210,37152,0
1989,37150,0
1736,37181,0
1486,37195,0
1245,37141,0
1052,37159,0
905,37158,0
834,37164,0
837,37184,0
909,37170,0
1060,37165,0
1240,37166,0
1473,37173,0
1690,37198,0
1908,37185,0
2066,37167,0
2186,37164,0
2224,37164,0
2218,37193,0
2148,37194,0
2044,37168,0
1900,37171,0
1732,37160,0
1573,37192,0
1420,37191,0
1324,37202,0
1242,37179,0
1236,37173,0
1280,37159,0
1376,37166,0
1520,37166,0
1704,37179,0
1876,37205,0
2076,37175,0
2218,37175,0
2344,37168,0
2416,37176,0
2428,37204,0
2370,37187,0
2248,37174,0
2068,37176,0
1844,37173,0
1604,37204,0
1362,37202,0
1152,37171,0
984,37182,0
875,37176,0
841,37194,0
877,37213,0
989,37175,0
1162,37192,0
1382,37176,0
1650,37190,0
1936,37212,0
2208,37159,0
2449,37185,0
2588,37191,0
2686,37216,0
2704,37199,0
2618,37212,0
2472,37203,0
2272,37190,0
2016,37201,0
1754,37218,0
1512,37179,0
1316,37203,0
1182,37184,0
1108,37196,0
1122,37220,0
1194,37177,0
1337,37199,0
1514,37202,0
1712,37207,0
1920,37223,0
2100,37211,0
2248,37202,0
2336,37201,0
2394,37198,0
2352,37234,0
2245,37218,0
2069,37195,0
1844,37201,0
1624,37198,0
1419,37227,0
1257,37233,0
1160,37210,0
1148,37208,0
1200,37205,0
1314,37226,0
1496,37208,0
1712,37190,0
1948,37197,0
2176,37213,0
2404,37243,0
2585,37198,0
2696,37216,0
2768,37207,0
2744,37223,0
2656,37249,0
2525,37223,0
2308,37214,0
2072,37218,0
1796,37222,0
1544,37240,0
1328,37253,0
1168,37221,0
1072,37223,0
1056,37219,0
1114,37255,0
1246,37261,0
1424,37220,0
1644,37229,0
1872,37226,0
2082,37249,0
2285,37254,0
2456,37219,0
2578,37232,0
2676,37225,0
2690,37238,0
2644,37257,0
2496,37227,0
2350,37230,0
2152,37227,0
1949,37229,0
1772,37232,0
1632,37246,0
1540,37256,0
1517,37231,0
1556,37245,0
1656,37242,0
1800,37256,0
1988,37276,0
2162,37224,0
2370,37242,0
2504,37234,0
2648,37256,0
2692,37277,0
2704,37239,0
2620,37250,0
2488,37252,0
2306,37239,0
2112,37289,0
1872,37282,0
1642,37243,0
1454,37254,0
1316,37251,0
1257,37272,0
1282,37290,0
1397,37242,0
1600,37257,0
1866,37254,0
2156,37260,0
2420,37278,0
2692,37256,0
2932,37268,0
3088,37274,0
3180,37288,0
3188,37287,0
3112,37275,0
2952,37257,0
2732,37265,0
2468,37275,0
2188,37290,0
1938,37287,0
1708,37268,0
1536,37279,0
1440,37271,0
1440,37301,0
1488,37291,0
1624,37271,0
1796,37273,0
2016,37271,0
2240,37295,0
2488,37300,0
2676,37260,0
2808,37271,0
2882,37273,0
2864,37304,0
2804,37296,0
2689,37262,0
2537,37288,0
2384,37276,0
2210,37303,0
2050,37306,0
1918,37280,0
1842,37277,0
1828,37271,0
1876,37289,0
1976,37275,0
2128,37307,0
2296,37294,0
2496,37275,0
2682,37279,0
2852,37273,0
2996,37306,0
3087,37290,0
3088,37272,0
3076,37269,0
2928,37265,0
2768,37295,0
2516,37269,0
2292,37265,0
2016,37250,0
1784,37264,0
1608,37284,0
1482,37269,0
1408,37251,0
1432,37240,0
1516,37242,0
1654,37274,0
1853,37262,0
2093,37236,0
2340,37237,0
2600,37226,0
2848,37250,0
3026,37255,0
3088,37201,0
3116,37199,0
3068,37174,0
2928,37236,0
2732,37211,0
2472,37203,0
2208,37191,0
1956,37204,0
1732,37217,0
1570,37186,0
1468,37186,0
1456,37180,0
1496,37179,0
1620,37208,0
1768,37177,0
1964,37167,0
2154,37158,0
2338,37160,0
2466,37183,0
2568,37177,0
2592,37132,0
2596,37148,0
2486,37140,0
2308,37156,0
2092,37154,0
1722,37112,0
1603,37124,0
1401,37122,0
1264,37118,0
1204,37146,0
1233,37123,0
1339,37107,0
1496,37114,0
1708,37101,0
1952,37102,0
2192,37104,0
2416,37123,0
2618,37109,0
2760,37087,0
2836,37085,0
2832,37079,0
2764,37110,0
2624,37106,0
2424,37059,0
2154,37072,0
1897,37069,0
1612,37074,0
1378,37095,0
1184,37063,0
1072,37058,0
1018,37061,0
1060,37061,0
1160,37076,0
1329,37060,0
1536,37047,0
1750,37039,0
1972,37046,0
2160,37069,0
2333,37054,0
2448,37041,0
2532,37038,0
2560,37039,0
2504,37066,0
2240,37019,0
2052,37046,0
1864,37039,0
1684,36999,0
1548,37020,0
1451,37013,0
1416,37048,0
1414,37051,0
1514,37012,0
1652,37022,0
1816,37021,0
2003,37036,0
2184,37050,0
2368,37007,0
2460,37019,0
2544,37021,0
2524,37034,0
2484,37051,0
2330,37012,0
2160,37028,0
1952,37034,0
1720,37033,0
1476,37045,0
1266,37005,0
1107,37023,0
1022,37012,0
1012,37031,0
1089,37054,0
1262,37031,0
1490,37025,0
1774,37021,0
2072,37024,0
2314,37019,0
2592,37043,0
2788,37031,0
2904,37028,0
2932,37026,0
2880,37047,0
2732,37013,0
2536,37022,0
2288,37014,0
2012,37021,0
1744,37049,0
1504,37042,0
1320,37015,0
1204,37026,0
1156,37013,0
1208,37035,0
1306,37039,0
1466,37013,0
1672,37029,0
1892,37024,0
2098,37053,0
2328,37041,0
2449,37013,0
2530,37037,0
2546,37023,0
2464,37038,0
2341,37048,0
2184,37023,0
2008,37035,0
1824,37033,0
1649,37043,0
1536,37063,0
1450,37051,0
1436,37046,0
1476,37069,0
1576,37059,0
1724,37014,0
1896,37027,0
2096,37043,0
2292,37039,0
2472,37064,0
2621,37074,0
2712,37038,0
2776,37044,0
2712,37040,0
2640,37058,0
2452,37084,0
2248,37035,0
1984,37060,0
1740,37046,0
1504,37062,0
1304,37087,0
1174,37053,0
1098,37060,0
1104,37058,0
1196,37061,0
1323,37089,0
1512,37071,0
1744,37059,0
1984,37063,0
2236,37065,0
2496,37085,0
2693,37082,0
2832,37068,0
2868,37051,0
2844,37073,0
2752,37064,0
2600,37055,0
2384,37064,0
2140,37045,0
1892,37066,0
1684,37062,0
1520,37072,0
1424,37088,0
1354,37074,0
1435,37065,0
1532,37076,0
1696,37063,0
1868,37099,0
2082,37077,0
2256,37068,0
2434,37074,0
2528,37073,0
2592,37108,0
2576,37094,0
2534,37085,0
2376,37081,0
2178,37081,0
1944,37093,0
1700,37104,0
1481,37060,0
1324,37084,0
1248,37084,0
1241,37095,0
1332,37103,0
1500,37070,0
1704,37107,0
1950,37055,0
2204,37062,0
2458,37083,0
2692,37069,0
2844,37096,0
2948,37084,0
2976,37095,0
2916,37117,0
2796,37077,0
2604,37088,0
2374,37099,0
2092,37096,0
1824,37122,0
1573,37083,0
1376,37096,0
1225,37097,0
1160,37099,0
1180,37128,0
1281,37092,0
1416,37098,0
1632,37099,0
1860,37105,0
2084,37134,0
2280,37101,0
2436,37111,0
2564,37099,0
2634,37110,0
2648,37146,0
2640,37120,0
2536,37110,0
2402,37121,0
2212,37110,0
2029,37109,0
1857,37115,0
1716,37107,0
1612,37104,0
1580,37108,0
1584,37114,0
1670,37112,0
1788,37153,0
1956,37150,0
2132,37112,0
2331,37121,0
2480,37116,0
2624,37149,0
2688,37137,0
2712,37117,0
2648,37123,0
2540,37117,0
2352,37137,0
2136,37143,0
1848,37105,0
1680,37119,0
1460,37118,0
1302,37146,0
1180,37148,0
1152,37103,0
1201,37109,0
1325,37106,0
1529,37143,0
1802,37148,0
2088,37099,0
2372,37117,0
2602,37092,0
2820,37095,0
2960,37104,0
3024,37096,0
3000,37155,0
2884,37112,0
2700,37127,0
2456,37138,0
2188,37099,0
1916,37118,0
1660,37123,0
1471,37139,0
1328,37147,0
1273,37114,0
1268,37110,0
1378,37114,0
1524,37117,0
1728,37143,0
1928,37120,0
2128,37121,0
2330,37108,0
2496,37113,0
2608,37146,0
2626,37145,0
2584,37112,0
2440,37101,0
2269,37117,0
2084,37136,0
1886,37150,0
1708,37091,0
1577,37108,0
1480,37112,0
1456,37099,0
1488,37112,0
1588,37102,0
1730,37126,0
1920,37145,0
2124,37099,0
2336,37114,0
2528,37109,0
2696,37120,0
2808,37134,0
2848,37094,0
2847,37108,0
2737,37107,0
2612,37105,0
2370,37135,0
2144,37102,0
1866,37105,0
1632,37095,0
1408,37099,0
1257,37116,0
1164,37126,0
1162,37077,0
1221,37102,0
1350,37100,0
1536,37113,0
1740,37124,0
1972,37077,0
2208,37100,0
2436,37103,0
2656,37112,0
2796,37122,0
2881,37075,0
2844,37103,0
2768,37090,0
2632,37096,0
2440,37090,0
2210,37122,0
1984,37109,0
1770,37093,0
1600,37098,0
1488,37085,0
1458,37122,0
1478,37114,0
1584,37081,0
1720,37088,0
1908,37084,0
2088,37106,0
2292,37111,0
2433,37084,0
2576,37090,0
2620,37093,0
2624,37100,0
2548,37113,0
2450,37091,0
2260,37084,0
2038,37092,0
1788,37111,0
1557,37113,0
1379,37074,0
1256,37097,0
1230,37090,0
1289,37105,0
1429,37126,0
1872,37107,0
2140,37106,0
2400,37079,0
2632,37081,0
2824,37064,0
2912,37099,0
3000,37101,0
2976,37134,0
2872,37122,0
2696,37103,0
2464,37097,0
2216,37114,0
1926,37134,0
1684,37121,0
1448,37110,0
1292,37108,0
1217,37105,0
1200,37132,0
1276,37133,0
1414,37094,0
1616,37107,0
1834,37116,0
2066,37126,0
2274,37140,0
2453,37103,0
2556,37113,0
2636,37114,0
2640,37153,0
2600,37139,0
2536,37088,0
2396,37118,0
2232,37117,0
2032,37107,0
1876,37134,0
1729,37136,0
1638,37141,0
1600,37103,0
1620,37119,0
1688,37150,0
1800,37151,0
1976,37113,0
2154,37114,0
2336,37127,0
2521,37152,0
2636,37146,0
2748,37126,0
2744,37122,0
2720,37119,0
2592,37156,0
2448,37157,0
2216,37114,0
1976,37127,0
1728,37126,0
1504,37143,0
1332,37153,0
1210,37121,0
1170,37138,0
1192,37131,0
1298,37139,0
1476,37162,0
1724,37125,0
2010,37140,0
2306,37136,0
2592,37148,0
2800,37135,0
2978,37144,0
3070,37146,0
3092,37147,0
3008,37145,0
2868,37149,0
2640,37144,0
2388,37178,0
2112,37146,0
1858,37163,0
1644,37151,0
1490,37151,0
1405,37178,0
1408,37162,0
1456,37150,0
1620,37157,0
1784,37142,0
1994,37181,0
2196,37182,0
2394,37151,0
2544,37154,0
2696,37162,0
2736,37188,0
2658,37178,0
2614,37153,0
2433,37165,0
2240,37168,0
2036,37180,0
1840,37198,0
1696,37142,0
1600,37167,0
1568,37165,0
1596,37145,0
1701,37141,0
1852,37143,0
2060,37145,0
2264,37157,0
2492,37174,0
2704,37210,0
2876,37198,0
3004,37167,0
3060,37177,0
3048,37178,0
2976,37195,0
2808,37182,0
2624,37174,0
2338,37190,0
2080,37185,0
1800,37212,0
1572,37209,0
1382,37167,0
1269,37182,0
1228,37181,0
1274,37207,0
1385,37204,0
1553,37182,0
1760,37186,0
1976,37185,0
2208,37205,0
2432,37221,0
2625,37178,0
2800,37190,0
2890,37193,0
2916,37220,0
2840,37187,0
2712,37201,0
2536,37199,0
2314,37197,0
2096,37200,0
1882,37204,0
1700,37218,0
1573,37227,0
1524,37191,0
1532,37204,0
1602,37204,0
1743,37223,0
1892,37232,0
2096,37193,0
2256,37205,0
2432,37210,0
2544,37216,0
2640,37229,0
2624,37190,0
2559,37199,0
2448,37205,0
2296,37231,0
2070,37214,0
1813,37198,0
1594,37205,0
1392,37198,0
1266,37225,0
1200,37234,0
1232,37184,0
1360,37201,0
1557,37198,0
1814,37220,0
2072,37232,0
2354,37212,0
2604,37229,0
2824,37227,0
2972,37224,0
3056,37227,0
3048,37202,0
2960,37213,0
2800,37209,0
2577,37237,0
2316,37224,0
2052,37198,0
1756,37196,0
1548,37212,0
1362,37229,0
1258,37234,0
1220,37219,0
1280,37217,0
1396,37212,0
1584,37235,0
1784,37240,0
2028,37210,0
2248,37209,0
2432,37216,0
2576,37244,0
2636,37242,0
2648,37215,0
2608,37214,0
2506,37222,0
2392,37236,0
2228,37240,0
2058,37210,0
1924,37210,0
1742,37225,0
1654,37236,0
1606,37261,0
1632,37241,0
1710,37231,0
1834,37260,0
1992,37231,0
2170,37237,0
2356,37231,0
2528,37232,0
2682,37260,0
2756,37244,0
2808,37242,0
2732,37227,0
2640,37235,0
2440,37269,0
2224,37248,0
1944,37233,0
1672,37238,0
1426,37233,0
1226,37261,0
1080,37269,0
1001,37239,0
1024,37249,0
1110,37240,0
1278,37273,0
1520,37277,0
1808,37226,0
2144,37249,0
2466,37245,0
2776,37267,0
2992,37222,0
3168,37225,0
3280,37268,0
3292,37237,0
3224,37266,0
3088,37268,0
2906,37229,0
2712,37247,0
2520,37247,0
2368,37242,0
2276,37266,0
2259,37250,0
2312,37256,0
2468,37250,0
2648,37258,0
2936,37282,0
3172,37238,0
3476,37257,0
3696,37250,0
3888,37255,0
4008,37282,0
4094,37242,0
4036,37263,0
3904,37255,0
3680,37257,0
3360,37295,0
3040,37275,0
2708,37256,0
2408,37257,0
2178,37256,0
2002,37294,0
1898,37300,0
1960,37267,0
2080,37268,0
2244,37272,0
2432,37260,0
2634,37261,0
2812,37266,0
2948,37267,0
3024,37278,0
3034,37294,0
3004,37250,0
2866,37278,0
2648,37264,0
2424,37288,0
2116,37304,0
1829,37254,0
1557,37275,0
1344,37263,0
1177,37289,0
1104,37304,0
1094,37269,0
1163,37277,0
1301,37281,0
1483,37292,0
1696,37298,0
1892,37269,0
2108,37272,0
2293,37277,0
2456,37293,0
2584,37309,0
2656,37267,0
2636,37282,0
2520,37296,0
2392,37295,0
2216,37292,0
2016,37288,0
1810,37274,0
1641,37277,0
1528,37280,0
1464,37297,0
1476,37304,0
1549,37262,0
1673,37280,0
1841,37285,0
2016,37298,0
2224,37309,0
2376,37274,0
2528,37285,0
2592,37277,0
2628,37307,0
2564,37313,0
2456,37280,0
2264,37293,0
2096,37275,0
1856,37315,0
1613,37313,0
1397,37280,0
1226,37298,0
1145,37291,0
1136,37299,0
1221,37317,0
1400,37289,0
1628,37295,0
1910,37303,0
2192,37296,0
2460,37311,0
2704,37324,0
2888,37325,0
2992,37322,0
3024,37302,0
2960,37322,0
2960,37317,0
2616,37285,0
2364,37299,0
2076,37300,0
1819,37333,0
1560,37331,0
1384,37299,0
1256,37305,0
1209,37296,0
1248,37324,0
1354,37327,0
1520,37295,0
1724,37302,0
1944,37305,0
2184,37322,0
2384,37335,0
2532,37293,0
2624,37307,0
2628,37308,0
2592,37335,0
2485,37329,0
2349,37288,0
2200,37315,0
2020,37308,0
1856,37319,0
1700,37323,0
1616,37331,0
1568,37326,0
1592,37328,0
1660,37340,0
1797,37330,0
1960,37335,0
2148,37310,0
2344,37312,0
2516,37315,0
2664,37350,0
2784,37345,0
2824,37308,0
2820,37328,0
2704,37320,0
2568,37334,0
2344,37349,0
2120,37318,0
1860,37327,0
1624,37330,0
1424,37349,0
1276,37350,0
1209,37317,0
1194,37328,0
1288,37319,0
1416,37341,0
1608,37357,0
1849,37318,0
2117,37330,0
2400,37328,0
2656,37343,0
2880,37359,0
2980,37328,0
3042,37331,0
3016,37327,0
2904,37345,0
2752,37343,0
2512,37344,0
2264,37362,0
2008,37327,0
1778,37345,0
1612,37331,0
1488,37349,0
1466,37370,0
1500,37342,0
1622,37349,0
1764,37346,0
1968,37341,0
2160,37369,0
2376,37358,0
2532,37352,0
2656,37351,0
2732,37350,0
2760,37376,0
2692,37374,0
2560,37348,0
2356,37355,0
2120,37345,0
1896,37389,0
1692,37380,0
1541,37351,0
1472,37367,0
1472,37357,0
1560,37385,0
1696,37377,0
1898,37376,0
2132,37354,0
2376,37360,0
2608,37363,0
2812,37367,0
2988,37358,0
3096,37377,0
3120,37393,0
3070,37351,0
2964,37378,0
2795,37375,0
2540,37387,0
2308,37399,0
2018,37359,0
1784,37379,0
1580,37375,0
1450,37378,0
1368,37411,0
1394,37366,0
1476,37385,0
1640,37379,0
1848,37400,0
2068,37406,0
2297,37373,0
2492,37391,0
2696,37388,0
2832,37395,0
2930,37416,0
3000,37373,0
2978,37390,0
2896,37395,0
2720,37399,0
2552,37410,0
2356,37383,0
2172,37367,0
2012,37363,0
1894,37408,0
1834,37426,0
1840,37379,0
1912,37401,0
2028,37386,0
2200,37398,0
2384,37423,0
2568,37377,0
2772,37401,0
2884,37387,0
3000,37404,0
3016,37422,0
3004,37393,0
2872,37383,0
2720,37388,0
2500,37393,0
2296,37431,0
2064,37425,0
1837,37385,0
1654,37394,0
1538,37389,0
1507,37405,0
1562,37413,0
1708,37364,0
1930,37385,0
2210,37381,0
2512,37387,0
2760,37374,0
3028,37376,0
3240,37376,0
3376,37356,0
3428,37384,0
3402,37369,0
3272,37397,0
3082,37367,0
2840,37357,0
2558,37359,0
2256,37356,0
2008,37377,0
1786,37375,0
1636,37356,0
1562,37344,0
1568,37337,0
1641,37365,0
1808,37349,0
1976,37326,0
2192,37322,0
2386,37312,0
2618,37347,0
2772,37340,0
2872,37314,0
2900,37310,0
2832,37313,0
2721,37320,0
2564,37319,0
2374,37270,0
2192,37300,0
2006,37282,0
1844,37307,0
1720,37285,0
1668,37290,0
1668,37275,0
1732,37277,0
1856,37290,0
2016,37286,0
2188,37232,0
2381,37256,0
2558,37253,0
2708,37249,0
2808,37271,0
2879,37228,0
2840,37239,0
2788,37226,0
2600,37234,0
2408,37248,0
2136,37235,0
1888,37213,0
1612,37208,0
1396,37210,0
1224,37241,0
1126,37216,0
1104,37203,0
1145,37204,0
1276,37197,0
1440,37221,0
1664,37217,0
1908,37189,0
2165,37191,0
2432,37186,0
2650,37213,0
2857,37145,0
1232,37166,0
1405,37133,0
1621,37133,0
1840,37133,0
2048,37133,0
2228,37133,0
2356,37133,0
2428,37133,0
2425,37164,0
2352,37164,0
2214,37164,0
2016,37164,0
1776,37164,0
1520,37164,0
1298,37164,0
1094,37169,0
941,37169,0
862,37169,0
869,37169,0
946,37169,0
1080,37169,0
1264,37169,0
1481,37132,0
1705,37132,0
1914,37132,0
2092,37132,0
2240,37132,0
2322,37132,0
2362,37132,0
2368,37164,0
2292,37153,0
2169,37153,0
1988,37164,0
1818,37187,0
1640,37140,0
1480,37168,0
1372,37166,0
1302,37184,0
1304,37196,0
1368,37156,0
1496,37165,0
1644,37167,0
1828,37190,0
2032,37205,0
2200,37160,0
2344,37179,0
2448,37165,0
2484,37193,0
2452,37203,0
2368,37169,0
2212,37182,0
2012,37172,0
1784,37195,0
1552,37210,0
1324,37170,0
1140,37186,0
1016,37170,0
960,37200,0
992,37209,0
2368,37197,0
2604,37206,0
2760,37194,0
2832,37186,0
2832,37180,0
2736,37189,0
2584,37177,0
2344,37206,0
2084,37207,0
1814,37173,0
1546,37186,0
1347,37188,0
1186,37218,0
1120,37196,0
1122,37177,0
1180,37194,0
1332,37178,0
1520,37214,0
1736,37201,0
1961,37196,0
2176,37184,0
2344,37186,0
2464,37222,0
2524,37197,0
2496,37190,0
2393,37184,0
2254,37186,0
2056,37215,0
1860,37196,0
1680,37192,0
1536,37199,0
1430,37190,0
1376,37203,0
1344,37184,0
1472,37196,0
1624,37196,0
1789,37189,0
2004,37220,0
2208,37190,0
2402,37210,0
2584,37194,0
2710,37207,0
2776,37222,0
2808,37190,0
2706,37197,0
2592,37198,0
2388,37216,0
2160,37226,0
1892,37191,0
1644,37194,0
1404,37198,0
1242,37216,0
1128,37226,0
1090,37185,0
1134,37205,0
1240,37202,0
1410,37226,0
1621,37224,0
1860,37193,0
2100,37201,0
2337,37200,0
2576,37215,0
2769,37220,0
2868,37192,0
2872,37206,0
2824,37196,0
2700,37203,0
2512,37192,0
2290,37216,0
2064,37203,0
1828,37243,0
1640,37214,0
1512,37200,0
1437,37204,0
1450,37209,0
1529,37232,0
1648,37223,0
1832,37218,0
2004,37210,0
2212,37206,0
2384,37236,0
2544,37227,0
2608,37217,0
2636,37219,0
2584,37211,0
2508,37247,0
2328,37238,0
2116,37213,0
1866,37221,0
1616,37213,0
1422,37254,0
1289,37240,0
1238,37218,0
1280,37231,0
1393,37231,0
1587,37252,0
1816,37228,0
2088,37237,0
2352,37233,0
2596,37234,0
2808,37243,0
2960,37275,0
3036,37241,0
3024,37231,0
2948,37229,0
2784,37226,0
2564,37268,0
2308,37237,0
2024,37249,0
1768,37234,0
1528,37240,0
1344,37261,0
1236,37249,0
1193,37241,0
1258,37240,0
1380,37238,0
1560,37265,0
1792,37265,0
2016,37242,0
2240,37243,0
2433,37234,0
2557,37271,0
2661,37252,0
2690,37236,0
2672,37238,0
2624,37239,0
2500,37256,0
2338,37265,0
2144,37214,0
1956,37219,0
1809,37224,0
1692,37245,0
1632,37267,0
1625,37241,0
1676,37233,0
1791,37242,0
1940,37265,0
2124,37245,0
2308,37239,0
2508,37232,0
2634,37248,0
2776,37270,0
2784,37259,0
2784,37240,0
2684,37242,0
2546,37251,0
2324,37265,0
2096,37242,0
1828,37244,0
1632,37230,0
1440,37242,0
1288,37274,0
1209,37253,0
1212,37234,0
1301,37247,0
1461,37233,0
1688,37268,0
1968,37245,0
2268,37237,0
2560,37232,0
2776,37257,0
2968,37209,0
3080,37212,0
3104,37226,0
3048,37234,0
2904,37254,0
2700,37253,0
2442,37208,0
2168,37235,0
1901,37224,0
1672,37246,0
1495,37254,0
1392,37214,0
1365,37229,0
1428,37231,0
1540,37251,0
1708,37252,0
1920,37212,0
2128,37232,0
2336,37225,0
2520,37234,0
2676,37259,0
2752,37207,0
2746,37231,0
2669,37216,0
2506,37239,0
2320,37250,0
2104,37208,0
1906,37226,0
1744,37225,0
1624,37235,0
1568,37253,0
1644,37233,0
1780,37243,0
1952,37242,0
2172,37239,0
2396,37224,0
2608,37226,0
2800,37214,0
2944,37252,0
3044,37245,0
3060,37214,0
3030,37221,0
2896,37226,0
2738,37259,0
2476,37236,0
2240,37222,0
1960,37228,0
1744,37220,0
1524,37255,0
1394,37251,0
1346,37224,0
1369,37221,0
1452,37235,0
1624,37251,0
1832,37244,0
2056,37226,0
2293,37223,0
2528,37227,0
2752,37258,0
2952,37249,0
3072,37230,0
3124,37225,0
3064,37253,0
2964,37246,0
2800,37240,0
2582,37256,0
2360,37249,0
2129,37231,0
1930,37230,0
1790,37245,0
1708,37259,0
1702,37203,0
1760,37229,0
1893,37228,0
2056,37246,0
2260,37261,0
2436,37209,0
2648,37242,0
2778,37223,0
2896,37240,0
2920,37261,0
2884,37216,0
2778,37238,0
2648,37232,0
2437,37242,0
2192,37261,0
1936,37240,0
1708,37237,0
1530,37244,0
1444,37250,0
1445,37268,0
1540,37242,0
1718,37244,0
1968,37247,0
2216,37233,0
2496,37249,0
2776,37242,0
3008,37244,0
3192,37253,0
3288,37254,0
3320,37257,0
3264,37272,0
3124,37233,0
2922,37250,0
2664,37247,0
2379,37265,0
2080,37283,0
1830,37246,0
1618,37257,0
1488,37257,0
1424,37262,0
1456,37288,0
1548,37272,0
1720,37271,0
1928,37262,0
2180,37268,0
2418,37295,0
2632,37264,0
2809,37273,0
2898,37267,0
2944,37279,0
2936,37291,0
2860,37240,0
2764,37276,0
2608,37268,0
2428,37281,0
2220,37274,0
2036,37302,0
1920,37272,0
1844,37280,0
1820,37300,0
1862,37306,0
1976,37277,0
2106,37281,0
2392,37276,0
2492,37271,0
2676,37306,0
2855,37291,0
2978,37270,0
3084,37286,0
3052,37270,0
3008,37305,0
2852,37295,0
2676,37288,0
2420,37273,0
2160,37283,0
1905,37304,0
1696,37305,0
1524,37283,0
1429,37283,0
1397,37285,0
1449,37307,0
1580,37303,0
1785,37286,0
2049,37291,0
2360,37293,0
2672,37310,0
2949,37290,0
3152,37278,0
3296,37297,0
3384,37261,0
3360,37286,0
3256,37282,0
3076,37273,0
2832,37285,0
2559,37296,0
2265,37296,0
2008,37315,0
1800,37289,0
1668,37300,0
1600,37294,0
1626,37301,0
1720,37329,0
1876,37284,0
2080,37300,0
2312,37297,0
2516,37315,0
2716,37330,0
2868,37280,0
3000,37297,0
3032,37303,0
2981,37316,0
2860,37323,0
2648,37293,0
2435,37306,0
2208,37293,0
2010,37320,0
1858,37333,0
1784,37287,0
1766,37310,0
1812,37306,0
1944,37315,0
2128,37317,0
2344,37310,0
2580,37312,0
2826,37301,0
3040,37306,0
3216,37338,0
3324,37316,0
3380,37313,0
3344,37306,0
3252,37313,0
3052,37341,0
2848,37337,0
2532,37307,0
2256,37311,0
1972,37304,0
1745,37327,0
1560,37340,0
1464,37293,0
1456,37313,0
1525,37315,0
1665,37330,0
1856,37339,0
2088,37306,0
2320,37323,0
2565,37313,0
2784,37332,0
2976,37350,0
3144,37298,0
3208,37317,0
3212,37317,0
3088,37347,0
2936,37338,0
2744,37309,0
2496,37307,0
2264,37316,0
2047,37314,0
1873,37323,0
1781,37336,0
1745,37350,0
1784,37316,0
1880,37323,0
2053,37334,0
2220,37338,0
2448,37357,0
2608,37323,0
2800,37338,0
2904,37329,0
2984,37351,0
2944,37358,0
2856,37320,0
2704,37329,0
2530,37337,0
2288,37347,0
2020,37364,0
1787,37337,0
1576,37348,0
1445,37341,0
1410,37354,0
1462,37375,0
1612,37334,0
1830,37349,0
2105,37350,0
2384,37360,0
2664,37337,0
2936,37344,0
3144,37348,0
3280,37379,0
3340,37347,0
3316,37350,0
3208,37349,0
3008,37374,0
2760,37381,0
2458,37339,0
2192,37359,0
1898,37364,0
1688,37368,0
1508,37394,0
1420,37341,0
1428,37355,0
1508,37358,0
1656,37376,0
1856,37376,0
2088,37348,0
2352,37367,0
2576,37362,0
2760,37392,0
2884,37388,0
2928,37360,0
2920,37375,0
2840,37364,0
2730,37399,0
2592,37389,0
2405,37369,0
2220,37369,0
2032,37346,0
1900,37342,0
1808,37351,0
1786,37352,0
1828,37372,0
1942,37370,0
2080,37379,0
2260,37408,0
2474,37364,0
2664,37369,0
2836,37370,0
2996,37401,0
3048,37397,0
3088,37355,0
2992,37375,0
2872,37374,0
2636,37398,0
2392,37403,0
2100,37372,0
1816,37391,0
1560,37389,0
1368,37394,0
1238,37419,0
1196,37394,0
1237,37385,0
1356,37383,0
1557,37388,0
1818,37415,0
2132,37395,0
2468,37387,0
2801,37391,0
3280,37426,0
3428,37401,0
3504,37389,0
3472,37392,0
3368,37392,0
3208,37403,0
3012,37400,0
2804,37397,0
2616,37390,0
2460,37422,0
2392,37413,0
2409,37395,0
2490,37403,0
2688,37396,0
2888,37432,0
3192,37414,0
3454,37401,0
3776,37409,0
3972,37392,0
4076,37429,0
4095,37426,0
4095,37401,0
4095,37400,0
4004,37403,0
3786,37430,0
3488,37426,0
3184,37394,0
2866,37413,0
2606,37413,0
2392,37439,0
2240,37429,0
2184,37408,0
2176,37426,0
2268,37416,0
2412,37434,0
2596,37433,0
2784,37428,0
2964,37412,0
3128,37442,0
3252,37442,0
3296,37405,0
3288,37422,0
3196,37419,0
3039,37437,0
2792,37443,0
2536,37406,0
2220,37426,0
1921,37422,0
1652,37433,0
1464,37455,0
1330,37408,0
1286,37425,0
1312,37426,0
1433,37435,0
1594,37444,0
1810,37404,0
2029,37424,0
2236,37429,0
2450,37454,0
2630,37453,0
2764,37429,0
2880,37428,0
2897,37427,0
2858,37463,0
2706,37393,0
2532,37435,0
2348,37452,0
2160,37453,0
1954,37454,0
1788,37431,0
1690,37425,0
1668,37439,0
1704,37462,0
1814,37431,0
1960,37437,0
2156,37436,0
2328,37433,0
2544,37458,0
2684,37423,0
2824,37437,0
2858,37432,0
2868,37439,0
2768,37465,0
2620,37424,0
2416,37456,0
2200,37442,0
1945,37457,0
1700,37468,0
1490,37430,0
1344,37446,0
1282,37441,0
1306,37452,0
1429,37472,0
1636,37436,0
1892,37454,0
2192,37450,0
2464,37468,0
2744,37453,0
2976,37475,0
3144,37483,0
3232,37455,0
3216,37452,0
3124,37471,0
2980,37483,0
2696,37444,0
2444,37457,0
2152,37455,0
1879,37482,0
1644,37486,0
1484,37445,0
1384,37452,0
1376,37459,0
1440,37474,0
1580,37482,0
1764,37455,0
1988,37465,0
2216,37469,0
2464,37490,0
2642,37485,0
2784,37458,0
2848,37457,0
2818,37463,0
2736,37493,0
2604,37487,0
2448,37461,0
2272,37461,0
2080,37467,0
1922,37495,0
1781,37497,0
1704,37490,0
1702,37473,0
1744,37494,0
1850,37455,0
2006,37468,0
2196,37473,0
2400,37469,0
2600,37485,0
2778,37503,0
2920,37461,0
3026,37471,0
3024,37479,0
3016,37483,0
2856,37508,0
2689,37468,0
2440,37475,0
2210,37479,0
1932,37487,0
1696,37515,0
1504,37479,0
1388,37487,0
1344,37481,0
1374,37492,0
1492,37512,0
1648,37468,0
1864,37487,0
2120,37490,0
2398,37499,0
2688,37521,0
2937,37475,0
3130,37499,0
3192,37500,0
3248,37498,0
3180,37498,0
3044,37500,0
2848,37455,0
2594,37477,0
2332,37497,0
2084,37503,0
1860,37518,0
1714,37532,0
1606,37493,0
1634,37505,0
1704,37504,0
1852,37508,0
2018,37527,0
2244,37489,0
2450,37515,0
2672,37496,0
2818,37517,0
2930,37535,0
2972,37490,0
2985,37506,0
2882,37509,0
2708,37530,0
2485,37544,0
2226,37501,0
1988,37529,0
1780,37514,0
1644,37525,0
1586,37550,0
1626,37517,0
1735,37527,0
1904,37531,0
2125,37539,0
2392,37545,0
2656,37522,0
2912,37554,0
3112,37524,0
3264,37535,0
3360,37547,0
3376,37557,0
3308,37536,0
3168,37531,0
2970,37531,0
2696,37555,0
2440,37563,0
2138,37535,0
1901,37533,0
1700,37531,0
1584,37562,0
1533,37562,0
1578,37532,0
1696,37549,0
1892,37553,0
2124,37568,0
2376,37565,0
2616,37534,0
2808,37550,0
2996,37550,0
3128,37563,0
3204,37571,0
3256,37542,0
3204,37552,0
3104,37544,0
2904,37572,0
2704,37562,0
2496,37566,0
2308,37562,0
2156,37572,0
2058,37544,0
1996,37558,0
2036,37552,0
2136,37580,0
2282,37573,0
2456,37555,0
2672,37560,0
2856,37550,0
3060,37580,0
3156,37570,0
3264,37537,0
3248,37554,0
3212,37552,0
3060,37574,0
2876,37575,0
2648,37546,0
2432,37554,0
2176,37544,0
1955,37569,0
1792,37568,0
1692,37546,0
1680,37546,0
1762,37551,0
1932,37552,0
2170,37568,0
2464,37529,0
3008,37464,0
3272,37520,0
3464,37519,0
3572,37513,0
3608,37509,0
3544,37540,0
3408,37563,0
3196,37513,0
2920,37528,0
2628,37520,0
2344,37530,0
2100,37542,0
1888,37507,0
1764,37520,0
1704,37515,0
1748,37505,0
1856,37534,0
2026,37504,0
2216,37499,0
2432,37499,0
2692,37512,0
2872,37517,0
3024,37472,0
3104,37498,0
3112,37478,0
3017,37493,0
2882,37499,0
2696,37473,0
2496,37486,0
2304,37474,0
2108,37481,0
1960,37489,0
1841,37464,0
1814,37480,0
1832,37480,0
1920,37478,0
2064,37449,0
2240,37477,0
2436,37462,0
2624,37442,0
2812,37443,0
2932,37432,0
3040,37463,0
3083,37429,0
3032,37425,0
2860,37423,0
2760,37414,0
2516,37441,0
2240,37415,0
1988,37417,0
1712,37412,0
1508,37403,0
1348,37440,0
1272,37413,0
1276,37405,0
1344,37397,0
1485,37403,0
1674,37419,0
1904,37379,0
2148,37399,0
2406,37396,0
2658,37391,0
2857,37406,0
3008,37368,0
3016,37376,0
2992,37362,0
2888,37373,0
2714,37388,0
2486,37390,0
2232,37369,0
1984,37369,0
1764,37393,0
1597,37373,0
1488,37361,0
1456,37360,0
1510,37369,0
1608,37385,0
1770,37375,0
1946,37364,0
2164,37371,0
2344,37362,0
2520,37390,0
2536,37380,0
2682,37367,0
2676,37359,0
2616,37357,0
2465,37380,0
2268,37379,0
2032,37340,0
1780,37359,0
1564,37348,0
1398,37375,0
1320,37380,0
1322,37334,0
1412,37352,0
1558,37352,0
1776,37351,0
2028,37346,0
2276,37350,0
2528,37344,0
2736,37347,0
2908,37332,0
3012,37345,0
3036,37342,0
2984,37365,0
2852,37367,0
2664,37330,0
2428,37341,0
2148,37338,0
1888,37368,0
1632,37371,0
1440,37333,0
1300,37346,0
1250,37337,0
1270,37360,0
1368,37376,0
1522,37332,0
1740,37343,0
1960,37340,0
2170,37379,0
2400,37372,0
2540,37340,0
2662,37348,0
2720,37343,0
2732,37375,0
2704,37371,0
2602,37345,0
2458,37353,0
2264,37374,0
2084,37379,0
1914,37336,0
1773,37347,0
1676,37353,0
1648,37346,0
1665,37347,0
1744,37363,0
1800,37382,0
2044,37338,0
2224,37365,0
2415,37357,0
2564,37379,0
2720,37389,0
2760,37354,0
2800,37359,0
2720,37355,0
2616,37391,0
2420,37386,0
2200,37361,0
1973,37362,0
1748,37355,0
1544,37379,0
1372,37376,0
1276,37353,0
1258,37355,0
1310,37352,0
1440,37384,0
1652,37370,0
1912,37369,0
2204,37356,0
2496,37359,0
2720,37384,0
2920,37394,0
3052,37368,0
3100,37376,0
3070,37388,0
2952,37366,0
2768,37389,0
2532,37367,0
2264,37358,0
2004,37352,0
1753,37367,0
1578,37387,0
1440,37390,0
1396,37368,0
1416,37362,0
1514,37370,0
1662,37392,0
1872,37399,0
2064,37361,0
2272,37367,0
2448,37368,0
2634,37381,0
2720,37391,0
2737,37355,0
2682,37371,0
2548,37364,0
2376,37382,0
2192,37398,0
1995,37348,0
1832,37382,0
1698,37373,0
1628,37382,0
1594,37385,0
1636,37393,0
1744,37396,0
1904,37398,0
2088,37391,0
2284,37375,0
2500,37405,0
2682,37397,0
2832,37378,0
2938,37381,0
3000,37386,0
2976,37406,0
2852,37402,0
2720,37382,0
2482,37374,0
2256,37381,0
1984,37408,0
1760,37402,0
1534,37374,0
1382,37378,0
1308,37383,0
1312,37403,0
1382,37407,0
1509,37368,0
1693,37392,0
1898,37380,0
2115,37386,0
2344,37404,0
2577,37373,0
2784,37389,0
2928,37373,0
2998,37386,0
2968,37381,0
1696,37401,0
1906,37406,0
2120,37394,0
2320,37423,0
2484,37421,0
2592,37391,0
2646,37408,0
2628,37408,0
2544,37433,0
2385,37436,0
2184,37399,0
1932,37410,0
1689,37407,0
1458,37442,0
1274,37428,0
1152,37403,0
1074,37408,0
1085,37415,0
1148,37438,0
1312,37428,0
1506,37409,0
1708,37409,0
1922,37410,0
2121,37438,0
2298,37427,0
2400,37418,0
2458,37409,0
2466,37411,0
2421,37434,0
2348,37428,0
2226,37405,0
1888,37416,0
1744,37418,0
1608,37418,0
1528,37418,0
1493,37418,0
1522,37418,0
1608,37418,0
1730,37407,0
1889,37433,0
2076,37433,0
2248,37433,0
2415,37433,0
2532,37433,0
2636,37433,0
2628,37420,0
2600,37407,0
2480,37407,0
2320,37407,0
2096,37407,0
1866,37407,0
1644,37407,0
1432,37404,0
1268,37408,0
1146,37408,0
1109,37408,0
1142,37408,0
1256,37408,0
1421,37408,0
1663,37408,0
1960,37439,0
2241,37439,0
2528,37439,0
2722,37396,0
2884,37412,0
2976,37430,0
2980,37394,0
2896,37404,0
2736,37391,0
2522,37397,0
2268,37432,0
2000,37418,0
1748,37410,0
1544,37398,0
1405,37407,0
1324,37428,0
1328,37388,0
1417,37394,0
1552,37399,0
1716,37400,0
1932,37425,0
2136,37391,0
2320,37395,0
2472,37398,0
2608,37400,0
2650,37424,0
2617,37384,0
2512,37400,0
2328,37393,0
2118,37406,0
1458,37405,0
1554,37414,0
1700,37404,0
1888,37418,0
2084,37384,0
2296,37387,0
2492,37405,0
2660,37419,0
2784,37411,0
2852,37394,0
2836,37396,0
2780,37394,0
2628,37418,0
2444,37415,0
2194,37395,0
1936,37399,0
1680,37393,0
1480,37426,0
1304,37387,0
1204,37399,0
1186,37395,0
1234,37403,0
1364,37432,0
1528,37399,0
1737,37399,0
1957,37396,0
2180,37403,0
2401,37431,0
2589,37402,0
2760,37402,0
2853,37405,0
2880,37402,0
2792,37384,0
2668,37424,0
2504,37419,0
2290,37418,0
2074,37437,0
1872,37422,0
1704,37389,0
1588,37413,0
1572,37399,0
1566,37414,0
1643,37432,0
1796,37385,0
1960,37410,0
2170,37421,0
2340,37428,0
2520,37424,0
2624,37394,0
2720,37418,0
2704,37417,0
2644,37426,0
2520,37450,0
2368,37394,0
2140,37416,0
1901,37409,0
1670,37428,0
1464,37437,0
1320,37428,0
1252,37416,0
1298,37417,0
1416,37420,0
1620,37442,0
1872,37417,0
2140,37397,0
2412,37415,0
2674,37448,0
2896,37444,0
3048,37452,0
3128,37428,0
3128,37419,0
3026,37456,0
2872,37454,0
2656,37430,0
2372,37432,0
2105,37428,0
1820,37459,0
1588,37456,0
1357,37436,0
1316,37433,0
1288,37438,0
1338,37465,0
1474,37446,0
1664,37446,0
1876,37438,0
2128,37439,0
2344,37465,0
2540,37444,0
2668,37438,0
2732,37436,0
2738,37446,0
2692,37474,0
2597,37449,0
2468,37442,0
2305,37434,0
2128,37437,0
1946,37429,0
1802,37442,0
1722,37463,0
1676,37484,0
1692,37467,0
1778,37476,0
1900,37440,0
2072,37448,0
2288,37446,0
2456,37468,0
2628,37471,0
2791,37442,0
2868,37452,0
2944,37447,0
2876,37474,0
2784,37467,0
2600,37455,0
2400,37454,0
2132,37442,0
1880,37477,0
1640,37462,0
1460,37450,0
1328,37451,0
1262,37448,0
1280,37499,0
1364,37472,0
1534,37454,0
1748,37458,0
2018,37460,0
2320,37484,0
2612,37453,0
2866,37455,0
3032,37491,0
3144,37480,0
3176,37464,0
3112,37481,0
2976,37473,0
2776,37453,0
2522,37498,0
2268,37464,0
1992,37464,0
1772,37457,0
1608,37476,0
1522,37486,0
1504,37455,0
1584,37470,0
1700,37468,0
1917,37468,0
2080,37494,0
2312,37456,0
2504,37478,0
2666,37477,0
2776,37478,0
2872,37502,0
2852,37459,0
2762,37478,0
2592,37475,0
2360,37492,0
2157,37498,0
1893,37459,0
1724,37472,0
1604,37465,0
1560,37498,0
1584,37502,0
1680,37499,0
1842,37497,0
2047,37496,0
2296,37475,0
2536,37508,0
2668,37499,0
2976,37470,0
3128,37470,0
3216,37478,0
3224,37508,0
3160,37493,0
3024,37477,0
2800,37485,0
2576,37473,0
2260,37507,0
1988,37497,0
1732,37473,0
1540,37472,0
1400,37483,0
1340,37512,0
1362,37513,0
1478,37480,0
1642,37475,0
1852,37485,0
2080,37511,0
2296,37495,0
2513,37493,0
2700,37485,0
2850,37492,0
2968,37505,0
3000,37491,0
2960,37491,0
2808,37499,0
2652,37461,0
2440,37474,0
2228,37464,0
2016,37487,0
1828,37487,0
1700,37488,0
1634,37525,0
1656,37490,0
1720,37489,0
1850,37496,0
2035,37496,0
2196,37529,0
2402,37480,0
2556,37501,0
2712,37494,0
2776,37514,0
2816,37523,0
2728,37479,0
2604,37502,0
2424,37503,0
2216,37526,0
1956,37533,0
1700,37484,0
1475,37504,0
1305,37504,0
1220,37507,0
1217,37529,0
1315,37479,0
1492,37507,0
1752,37506,0
2308,37549,0
2594,37503,0
2840,37480,0
3024,37491,0
3120,37519,0
3146,37490,0
3071,37508,0
2928,37512,0
2696,37522,0
2432,37536,0
2136,37505,0
1864,37511,0
1592,37507,0
1408,37520,0
1269,37549,0
1232,37526,0
1265,37525,0
1388,37510,0
1564,37523,0
1784,37547,0
2032,37519,0
2264,37509,0
2466,37526,0
2624,37527,0
2720,37544,0
2714,37504,0
2669,37525,0
2554,37533,0
2402,37541,0
2232,37556,0
2042,37514,0
1860,37533,0
1704,37549,0
1600,37520,0
1553,37543,0
1569,37544,0
1652,37558,0
1781,37522,0
1960,37561,0
2160,37549,0
2360,37534,0
2552,37533,0
2708,37535,0
2829,37563,0
2856,37525,0
2872,37534,0
2736,37535,0
2592,37541,0
2360,37566,0
2120,37523,0
1844,37540,0
1580,37524,0
1365,37549,0
1210,37565,0
1112,37525,0
1092,37549,0
1141,37540,0
1258,37549,0
1435,37571,0
1657,37512,0
1916,37543,0
2192,37542,0
2444,37561,0
2660,37570,0
2776,37552,0
2852,37556,0
2856,37522,0
2784,37552,0
2648,37531,0
2456,37581,0
2256,37534,0
2044,37547,0
1880,37547,0
1784,37549,0
1748,37574,0
1777,37532,0
1882,37551,0
2084,37554,0
2288,37561,0
2576,37580,0
2852,37535,0
3160,37546,0
3376,37545,0
3588,37578,0
3736,37572,0
3872,37545,0
3860,37551,0
3768,37550,0
3608,37571,0
3364,37576,0
3122,37540,0
2888,37553,0
2688,37555,0
2568,37581,0
2500,37574,0
2512,37541,0
2536,37576,0
2644,37580,0
2784,37573,0
2936,37566,0
3080,37557,0
3196,37580,0
3296,37560,0
3324,37569,0
3248,37573,0
3172,37599,0
3008,37566,0
2804,37571,0
2516,37560,0
2256,37573,0
1952,37599,0
1692,37555,0
1480,37565,0
1338,37574,0
1268,37578,0
1266,37592,0
1341,37555,0
1484,37576,0
1657,37564,0
1848,37578,0
2048,37607,0
2212,37567,0
2368,37583,0
2476,37564,0
2538,37579,0
2568,37605,0
2520,37548,0
2416,37578,0
2244,37574,0
2062,37570,0
1872,37592,0
1688,37604,0
1542,37559,0
1453,37554,0
1406,37580,0
1430,37583,0
1514,37592,0
1648,37595,0
1816,37548,0
2006,37588,0
2184,37579,0
2372,37590,0
2496,37611,0
2592,37564,0
2600,37585,0
2584,37576,0
2456,37579,0
2276,37607,0
2056,37571,0
1832,37586,0
1590,37583,0
1369,37596,0
1186,37616,0
1076,37574,0
1052,37601,0
1112,37588,0
1264,37591,0
1488,37616,0
1776,37581,0
2080,37595,0
2336,37613,0
2610,37595,0
2812,37599,0
2946,37588,0
2992,37618,0
2952,37632,0
2836,37618,0
2640,37599,0
2384,37602,0
2112,37601,0
1808,37622,0
1563,37609,0
1356,37593,0
1220,37604,0
1156,37606,0
1188,37633,0
1284,37607,0
1458,37601,0
1660,37591,0
1880,37602,0
2106,37633,0
2340,37598,0
2504,37604,0
2604,37603,0
2642,37620,0
2568,37632,0
2480,37590,0
2324,37613,0
2136,37616,0
1952,37615,0
1768,37632,0
1624,37596,0
1514,37580,0
1452,37577,0
1480,37602,0
1564,37622,0
1704,37636,0
1881,37616,0
2080,37620,0
2292,37615,0
2488,37641,0
2658,37647,0
2916,37615,0
2845,37619,0
2828,37610,0
2776,37640,0
2594,37645,0
2404,37614,0
2136,37625,0
1880,37622,0
1604,37656,0
1393,37649,0
1220,37628,0
1138,37635,0
1121,37629,0
1180,37663,0
1312,37640,0
1494,37633,0
1728,37637,0
1984,37625,0
2252,37660,0
2532,37656,0
2754,37644,0
2928,37632,0
2984,37640,0
2968,37642,0
2888,37643,0
2736,37649,0
2516,37633,0
2264,37663,0
2008,37664,0
1773,37627,0
1576,37649,0
1464,37642,0
1410,37666,0
1444,37673,0
1535,37634,0
1696,37648,0
1874,37642,0
2104,37675,0
2296,37652,0
2496,37647,0
2624,37641,0
2704,37663,0
2720,37672,0
2692,37664,0
2548,37654,0
2349,37647,0
2114,37653,0
1858,37681,0
1622,37674,0
1432,37651,0
1328,37638,0
1314,37664,0
1372,37682,0
1716,37717,0
1968,37679,0
2236,37648,0
2496,37686,0
2728,37675,0
2928,37688,0
3064,37661,0
3120,37662,0
3100,37670,0
3000,37684,0
2815,37700,0
2595,37658,0
2312,37667,0
2050,37679,0
1756,37686,0
1537,37692,0
1366,37656,0
1285,37675,0
1276,37660,0
1362,37707,0
1512,37695,0
1712,37669,0
1952,37680,0
2194,37672,0
2420,37700,0
2604,37689,0
2760,37670,0
2856,37681,0
2898,37678,0
2896,37711,0
2817,37682,0
2688,37682,0
2492,37717,0
2396,37691,0
2106,37696,0
1936,37707,0
1820,37696,0
1749,37691,0
1752,37685,0
1828,37708,0
1952,37683,0
2112,37693,0
2296,37690,0
2517,37708,0
2696,37724,0
2880,37676,0
2952,37690,0
3008,37690,0
2968,37714,0
2888,37711,0
2700,37684,0
2492,37688,0
2240,37692,0
2008,37722,0
1772,37713,0
1576,37686,0
1442,37698,0
1384,37690,0
1422,37721,0
1541,37704,0
1742,37693,0
2010,37689,0
2324,37695,0
2628,37726,0
2884,37692,0
3120,37707,0
3284,37711,0
3368,37698,0
3368,37686,0
3268,37708,0
3080,37700,0
2860,37685,0
2576,37681,0
2290,37681,0
2016,37712,0
1776,37690,0
1604,37689,0
1526,37679,0
1506,37678,0
1580,37698,0
1712,37666,0
1924,37672,0
2130,37665,0
2352,37669,0
2556,37694,0
2772,37634,0
2892,37652,0
2930,37651,0
2901,37665,0
2772,37676,0
2600,37636,0
2400,37654,0
2180,37634,0
1969,37654,0
1796,37657,0
1680,37618,0
1596,37636,0
1608,37632,0
1668,37629,0
1790,37620,0
1964,37621,0
2152,37613,0
2364,37619,0
2560,37615,0
2730,37640,0
2856,37599,0
2912,37606,0
2923,37608,0
2815,37596,0
2672,37627,0
2456,37609,0
2208,37581,0
1908,37582,0
1648,37578,0
1392,37617,0
1204,37589,0
1082,37579,0
1040,37570,0
1078,37580,0
1184,37588,0
1356,37565,0
1560,37561,0
1794,37552,0
2037,37559,0
2276,37579,0
2504,37532,0
2674,37551,0
2774,37546,0
2752,37554,0
2696,37560,0
2524,37548,0
2344,37548,0
2104,37556,0
1852,37529,0
1624,37535,0
1422,37527,0
1284,37555,0
1220,37544,0
1221,37528,0
1300,37520,0
1440,37512,0
1618,37536,0
1816,37528,0
2016,37514,0
2184,37502,0
2336,37511,0
2372,37531,0
2416,37522,0
2357,37497,0
2260,37505,0
2067,37504,0
1838,37523,0
1584,37520,0
1345,37505,0
1145,37491,0
1010,37493,0
971,37521,0
1000,37507,0
1136,37493,0
1340,37485,0
1592,37503,0
1854,37502,0
2128,37490,0
2368,37505,0
2580,37507,0
2722,37480,0
2804,37520,0
2788,37497,0
2700,37490,0
2532,37478,0
2296,37493,0
2036,37508,0
1752,37495,0
1473,37485,0
1244,37487,0
1072,37488,0
972,37514,0
948,37502,0
1010,37481,0
1145,37478,0
1320,37480,0
1552,37502,0
1780,37508,0
2008,37473,0
2192,37481,0
2321,37475,0
2418,37516,0
2434,37498,0
2412,37486,0
2344,37477,0
2212,37482,0
2059,37514,0
1856,37497,0
1672,37506,0
1516,37512,0
1408,37501,0
1352,37502,0
1358,37492,0
1428,37511,0
1546,37515,0
1708,37488,0
1889,37484,0
2072,37491,0
2266,37505,0
2408,37516,0
2504,37474,0
2548,37497,0
2522,37485,0
2432,37500,0
2272,37516,0
2060,37465,0
1818,37490,0
1568,37493,0
1344,37515,0
1157,37507,0
1017,37473,0
958,37494,0
962,37483,0
1069,37509,0
1244,37518,0
1480,37478,0
1764,37495,0
2064,37493,0
2356,37524,0
2568,37521,0
2744,37510,0
2848,37470,0
2868,37474,0
2796,37505,0
2636,37524,0
2424,37476,0
2168,37502,0
1880,37496,0
1618,37517,0
1392,37520,0
1221,37495,0
1132,37500,0
1128,37491,0
1184,37516,0
1312,37517,0
1488,37481,0
1704,37499,0
1904,37498,0
2132,37520,0
2290,37532,0
2440,37488,0
2500,37500,0
2476,37497,0
2388,37519,0
2216,37525,0
2024,37482,0
1804,37507,0
1613,37497,0
1440,37507,0
1318,37533,0
1271,37496,0
1279,37497,0
1372,37504,0
1508,37495,0
1689,37516,0
1912,37504,0
2140,37520,0
2348,37515,0
2532,37510,0
2668,37505,0
2742,37503,0
2752,37529,0
2712,37496,0
2544,37504,0
2368,37508,0
2104,37495,0
1848,37532,0
1584,37508,0
1360,37511,0
1157,37505,0
1032,37500,0
996,37530,0
1032,37513,0
1126,37510,0
1291,37505,0
1496,37504,0
1725,37533,0
1972,37494,0
2196,37503,0
2404,37502,0
2592,37516,0
2692,37538,0
2680,37520,0
2540,37514,0
2368,37502,0
2153,37491,0
1922,37485,0
1704,37508,0
1520,37512,0
1390,37535,0
1328,37518,0
1333,37507,0
1406,37515,0
1535,37515,0
1704,37537,0
1896,37516,0
2104,37516,0
2272,37514,0
2416,37521,0
2504,37534,0
2532,37510,0
2480,37522,0
2400,37523,0
2214,37520,0
1988,37539,0
1739,37515,0
1492,37520,0
1282,37517,0
1129,37519,0
1046,37555,0
1064,37509,0
1186,37524,0
1355,37523,0
1612,37527,0
1852,37520,0
2153,37553,0
2420,37547,0
2640,37541,0
2814,37546,0
2908,37543,0
2924,37554,0
2858,37516,0
2692,37528,0
2482,37537,0
2232,37542,0
1942,37557,0
1660,37514,0
1416,37528,0
1217,37537,0
1106,37556,0
1064,37565,0
1114,37519,0
1212,37530,0
1388,37528,0
1600,37544,0
1840,37554,0
2064,37525,0
2260,37534,0
2416,37528,0
2488,37561,0
2530,37554,0
2492,37528,0
2408,37545,0
2304,37526,0
2140,37569,0
1970,37553,0
1784,37524,0
1634,37503,0
1524,37505,0
1480,37526,0
1480,37501,0
1529,37515,0
1648,37531,0
1804,37533,0
1984,37567,0
2184,37546,0
2346,37533,0
2507,37537,0
2608,37525,0
2680,37562,0
2632,37554,0
2544,37536,0
2392,37526,0
2200,37521,0
1952,37558,0
1696,37539,0
1458,37535,0
1258,37528,0
1100,37523,0
1020,37551,0
1016,37537,0
1092,37528,0
1237,37519,0
1440,37517,0
1704,37558,0
2008,37519,0
2284,37537,0
2560,37520,0
2720,37495,0
2848,37487,0
2904,37527,0
2852,37529,0
2730,37535,0
2524,37540,0
2288,37544,0
2024,37519,0
1748,37508,0
1513,37515,0
1340,37543,0
1227,37533,0
1192,37510,0
1234,37510,0
1352,37523,0
1516,37544,0
1700,37540,0
1932,37504,0
2128,37519,0
2296,37518,0
2424,37536,0
2520,37543,0
2524,37506,0
2442,37515,0
2293,37511,0
2082,37539,0
1857,37532,0
1624,37517,0
1442,37506,0
1304,37510,0
1236,37542,0
1248,37532,0
1325,37481,0
1464,37482,0
1646,37489,0
1870,37527,0
2104,37530,0
2325,37517,0
2528,37512,0
2684,37521,0
2776,37547,0
2800,37503,0
2752,37522,0
2629,37515,0
2426,37512,0
2208,37544,0
1928,37513,0
1672,37519,0
1408,37514,0
1200,37525,0
1069,37535,0
1009,37500,0
1023,37510,0
1106,37505,0
1252,37523,0
1458,37540,0
1680,37506,0
1900,37511,0
2128,37514,0
2322,37527,0
2488,37534,0
2608,37492,0
2649,37516,0
2641,37512,0
2528,37533,0
2376,37539,0
2176,37529,0
1974,37548,0
1764,37532,0
1578,37524,0
1445,37543,0
1366,37535,0
1364,37522,0
1427,37521,0
1544,37518,0
1704,37549,0
1884,37551,0
2092,37514,0
2240,37521,0
2400,37530,0
2482,37554,0
2544,37539,0
2480,37528,0
2376,37522,0
2160,37530,0
2016,37543,0
1784,37538,0
1528,37523,0
1318,37533,0
1136,37529,0
1037,37573,0
1002,37535,0
1085,37538,0
1240,37532,0
1466,37544,0
1746,37565,0
2024,37544,0
2296,37545,0
2552,37546,0
2744,37558,0
2856,37568,0
2896,37560,0
2856,37551,0
2721,37540,0
2528,37547,0
2268,37580,0
2012,37555,0
1730,37550,0
1468,37552,0
1262,37535,0
1113,37583,0
1064,37557,0
1084,37559,0
1184,37560,0
1316,37556,0
1526,37589,0
1756,37561,0
1984,37564,0
2189,37562,0
2353,37569,0
2448,37589,0
2482,37579,0
2450,37563,0
2368,37567,0
2240,37564,0
2080,37595,0
1912,37549,0
1732,37578,0
1580,37571,0
1472,37583,0
1408,37574,0
1412,37551,0
1472,37585,0
1580,37599,0
1740,37542,0
1928,37567,0
2128,37571,0
2308,37605,0
2464,37592,0
2603,37564,0
2652,37575,0
2680,37569,0
2568,37599,0
2440,37590,0
2244,37575,0
2016,37566,0
1756,37582,0
1488,37611,0
1296,37570,0
1137,37573,0
1025,37571,0
1012,37587,0
1067,37609,0
1184,37565,0
1367,37573,0
1608,37594,0
1873,37589,0
2169,37611,0
2425,37575,0
2649,37583,0
2784,37577,0
2856,37567,0
2856,37587,0
2776,37573,0
2608,37581,0
2394,37574,0
2144,37602,0
1890,37614,0
1658,37574,0
1472,37588,0
1348,37580,0
1308,37611,0
1336,37610,0
1436,37596,0
1576,37585,0
1768,37580,0
1968,37613,0
2176,37598,0
2340,37584,0
2472,37596,0
2552,37591,0
2584,37624,0
2518,37603,0
2368,37592,0
2176,37581,0
1936,37587,0
1681,37624,0
1465,37604,0
1309,37601,0
1200,37589,0
1195,37592,0
1388,37618,0
1586,37608,0
1812,37580,0
2052,37566,0
2288,37579,0
2464,37599,0
2664,37596,0
2772,37602,0
2814,37617,0
2784,37580,0
2666,37597,0
2503,37593,0
2252,37619,0
1992,37622,0
1704,37588,0
1448,37601,0
1224,37604,0
1065,37615,0
984,37629,0
971,37585,0
1044,37603,0
1176,37606,0
1368,37625,0
1610,37632,0
1824,37600,0
2028,37609,0
2226,37615,0
2380,37638,0
2492,37631,0
2568,37608,0
2564,37610,0
2496,37610,0
2336,37618,0
2162,37638,0
1968,37636,0
1764,37604,0
1588,37585,0
1456,37611,0
1376,37618,0
1357,37651,0
1408,37607,0
1518,37611,0
1676,37614,0
1863,37620,0
2036,37647,0
2208,37618,0
2354,37615,0
2460,37619,0
2500,37602,0
2480,37646,0
2388,37599,0
2234,37609,0
2024,37620,0
1808,37629,0
1560,37641,0
1344,37599,0
1156,37621,0
1041,37624,0
992,37639,0
1028,37645,0
1166,37603,0
1372,37616,0
1636,37616,0
1932,37647,0
2200,37640,0
2452,37619,0
2680,37629,0
2824,37611,0
2896,37635,0
2876,37654,0
2772,37617,0
2588,37625,0
2352,37626,0
2090,37632,0
1800,37647,0
1540,37598,0
1314,37632,0
1170,37627,0
1092,37649,0
1084,37647,0
1168,37609,0
1297,37626,0
1484,37632,0
1700,37631,0
1918,37657,0
2144,37626,0
2293,37626,0
2392,37636,0
2432,37648,0
2364,37657,0
2252,37619,0
2080,37636,0
1888,37629,0
1690,37663,0
1506,37657,0
1361,37622,0
1248,37649,0
1204,37642,0
1224,37659,0
1320,37638,0
1473,37649,0
1674,37644,0
1904,37633,0
2166,37646,0
2408,37659,0
2640,37626,0
2828,37643,0
2969,37642,0
3024,37648,0
3064,37664,0
2980,37634,0
2884,37635,0
2696,37643,0
2544,37663,0
2360,37671,0
2216,37635,0
2128,37651,0
2114,37640,0
2156,37659,0
2276,37669,0
2457,37638,0
2664,37651,0
2912,37655,0
3168,37674,0
3408,37677,0
3656,37648,0
3824,37653,0
3921,37646,0
3880,37666,0
3824,37647,0
3652,37643,0
3408,37653,0
3100,37657,0
2744,37671,0
2384,37687,0
2046,37649,0
1768,37665,0
1560,37658,0
1433,37692,0
1407,37687,0
1453,37662,0
1586,37651,0
1764,37664,0
1984,37689,0
2176,37661,0
2392,37661,0
2512,37653,0
2624,37665,0
2640,37688,0
2600,37666,0
2480,37669,0
2257,37667,0
2002,37667,0
1705,37693,0
1422,37673,0
1194,37666,0
1026,37665,0
944,37667,0
957,37697,0
1048,37651,0
1196,37669,0
1406,37671,0
1648,37653,0
1896,37671,0
2136,37657,0
2320,37666,0
2472,37658,0
2546,37688,0
2552,37687,0
2472,37663,0
2336,37665,0
2128,37666,0
1864,37684,0
1602,37696,0
1324,37656,0
1092,37659,0
914,37662,0
816,37692,0
786,37695,0
832,37665,0
954,37668,0
1124,37676,0
1350,37698,0
1576,37673,0
1792,37665,0
1978,37669,0
2140,37671,0
2240,37702,0
2284,37663,0
2306,37677,0
2240,37668,0
2137,37684,0
1956,37668,0
1770,37672,0
1577,37676,0
1397,37676,0
1256,37680,0
1180,37692,0
1162,37712,0
1192,37662,0
1290,37674,0
1428,37675,0
1597,37703,0
1784,37701,0
1960,37671,0
2104,37684,0
2202,37674,0
2252,37705,0
2252,37709,0
2160,37673,0
2016,37684,0
1824,37682,0
1592,37713,0
1362,37706,0
1133,37687,0
937,37687,0
800,37685,0
728,37709,0
742,37690,0
830,37683,0
1008,37680,0
1242,37686,0
1525,37711,0
1830,37667,0
2082,37686,0
2320,37686,0
2484,37675,0
2592,37688,0
2592,37677,0
2512,37693,0
2368,37683,0
2144,37705,0
1874,37713,0
1600,37669,0
1328,37682,0
1097,37687,0
925,37700,0
812,37723,0
788,37695,0
862,37690,0
913,37692,0
1148,37723,0
1344,37709,0
1556,37698,0
1768,37703,0
1952,37704,0
2082,37723,0
2148,37681,0
2132,37705,0
2044,37699,0
1907,37711,0
1730,37722,0
1538,37687,0
1369,37702,0
1208,37699,0
1022,37735,0
1012,37686,0
1082,37696,0
1197,37713,0
1354,37716,0
1546,37715,0
1753,37701,0
1948,37710,0
2124,37706,0
2264,37735,0
2340,37703,0
2368,37708,0
2308,37702,0
2177,37714,0
2008,37732,0
1785,37695,0
1537,37706,0
1284,37704,0
1056,37719,0
870,37738,0
742,37701,0
700,37706,0
727,37714,0
825,37729,0
988,37740,0
1188,37706,0
1423,37711,0
1672,37711,0
1918,37742,0
2160,37742,0
2340,37711,0
2464,37710,0
2481,37747,0
2440,37745,0
2324,37729,0
2152,37727,0
1932,37744,0
1686,37716,0
1456,37745,0
1268,37720,0
1120,37728,0
1056,37715,0
1044,37721,0
1107,37749,0
1232,37708,0
1405,37723,0
1604,37716,0
1796,37732,0
1978,37747,0
2132,37716,0
2244,37727,0
2268,37715,0
2264,37751,0
2162,37748,0
2000,37717,0
1768,37728,0
1544,37730,0
1313,37751,0
1104,37762,0
966,37720,0
902,37727,0
920,37723,0
1032,37749,0
1225,37750,0
1442,37747,0
1700,37736,0
1976,37718,0
2232,37723,0
2440,37740,0
2600,37771,0
2684,37736,0
2848,37734,0
2644,37727,0
2488,37741,0
2288,37773,0
2059,37729,0
1764,37733,0
1504,37735,0
1262,37743,0
1078,37762,0
962,37724,0
924,37744,0
966,37732,0
1080,37734,0
1250,37757,0
1466,37720,0
1696,37746,0
1928,37735,0
2120,37742,0
2256,37772,0
2361,37741,0
2413,37742,0
2409,37739,0
2352,37760,0
2248,37757,0
2102,37732,0
1904,37734,0
1728,37745,0
1568,37737,0
1436,37744,0
1362,37759,0
1350,37740,0
1394,37724,0
1492,37732,0
1640,37761,0
1812,37717,0
1984,37736,0
2168,37735,0
2324,37738,0
2420,37751,0
2496,37702,0
2480,37720,0
2408,37730,0
2252,37738,0
2058,37743,0
1824,37709,0
1576,37722,0
1332,37728,0
1121,37738,0
965,37742,0
869,37708,0
848,37703,0
930,37710,0
1064,37731,0
1266,37719,0
1536,37697,0
1826,37704,0
2112,37695,0
2336,37700,0
2512,37693,0
2628,37703,0
2660,37691,0
2604,37685,0
2460,37698,0
2252,37665,0
1980,37669,0
1704,37658,0
1430,37691,0
1174,37694,0
963,37635,0
842,37660,0
800,37651,0
840,37668,0
939,37679,0
1088,37634,0
1264,37648,0
1480,37647,0
1680,37669,0
1848,37667,0
2000,37635,0
2072,37634,0
2076,37633,0
1996,37647,0
1856,37649,0
1680,37624,0
1441,37614,0
1237,37624,0
1057,37649,0
920,37638,0
849,37612,0
840,37620,0
894,37616,0
1014,37620,0
1174,37602,0
1368,37613,0
1578,37605,0
1648,37590,0
1972,37607,0
2116,37610,0
2208,37570,0
2224,37580,0
2180,37586,0
2068,37600,0
1882,37598,0
1656,37567,0
1416,37569,0
1145,37567,0
905,37590,0
705,37582,0
567,37562,0
482,37570,0
488,37559,0
588,37578,0
729,37577,0
923,37551,0
1144,37560,0
1384,37544,0
1616,37578,0
1833,37564,0
2020,37545,0
2160,37541,0
2224,37545,0
2184,37525,0
2116,37521,0
1940,37535,0
1740,37519,0
1508,37548,0
1284,37532,0
1082,37536,0
929,37555,0
840,37513,0
828,37532,0
882,37525,0
996,37547,0
1149,37552,0
1332,37510,0
1542,37527,0
1722,37504,0
1896,37550,0
1996,37544,0
2040,37512,0
2020,37514,0
1952,37508,0
1792,37535,0
1576,37545,0
1341,37512,0
1110,37516,0
886,37516,0
720,37524,0
625,37542,0
623,37497,0
697,37515,0
864,37518,0
1104,37542,0
1361,37528,0
1688,37523,0
1936,37525,0
2168,37526,0
2344,37518,0
2464,37532,0
2496,37539,0
2448,37500,0
2316,37510,0
2116,37512,0
1866,37526,0
1592,37543,0
1321,37503,0
1072,37507,0
865,37509,0
730,37520,0
678,37543,0
700,37501,0
796,37519,0
954,37511,0
1158,37534,0
1388,37541,0
1620,37496,0
1832,37524,0
1996,37524,0
2100,37541,0
2154,37549,0
2145,37508,0
2084,37516,0
1984,37515,0
1836,37548,0
1664,37542,0
1476,37534,0
1326,37525,0
1200,37531,0
1114,37539,0
1100,37542,0
1149,37514,0
1253,37525,0
1380,37520,0
1569,37539,0
1768,37553,0
1936,37522,0
2112,37529,0
2240,37529,0
2296,37546,0
2301,37561,0
2266,37523,0
2120,37530,0
1936,37534,0
1723,37553,0
1472,37538,0
1236,37540,0
1026,37541,0
858,37533,0
756,37561,0
732,37543,0
779,37533,0
909,37529,0
1101,37540,0
1360,37554,0
1640,37520,0
1930,37530,0
2404,37552,0
2564,37532,0
2626,37547,0
2608,37556,0
2504,37556,0
2320,37558,0
2090,37565,0
1821,37535,0
1556,37541,0
1312,37543,0
1112,37565,0
986,37572,0
938,37530,0
961,37540,0
1070,37549,0
1208,37581,0
1406,37550,0
1620,37545,0
1833,37541,0
2022,37558,0
2200,37572,0
2292,37551,0
2312,37550,0
2260,37544,0
2132,37546,0
1941,37589,0
1724,37570,0
1504,37557,0
1312,37558,0
1156,37563,0
1070,37574,0
1053,37563,0
1116,37554,0
1224,37552,0
1396,37560,0
1600,37578,0
1828,37584,0
2052,37582,0
2260,37573,0
2430,37552,0
2536,37554,0
2580,37558,0
2568,37584,0
2464,37566,0
2233,37554,0
2084,37559,0
1836,37551,0
1577,37590,0
1314,37567,0
1108,37570,0
960,37549,0
870,37569,0
881,37575,0
941,37547,0
1080,37563,0
1270,37564,0
1494,37562,0
1720,37586,0
1952,37544,0
2160,37571,0
2336,37569,0
2488,37586,0
2564,37598,0
2568,37547,0
2472,37554,0
2332,37580,0
2144,37592,0
1932,37543,0
1714,37540,0
1514,37570,0
1357,37570,0
1264,37575,0
1236,37606,0
1275,37574,0
1380,37582,0
1542,37576,0
1729,37582,0
1918,37603,0
2112,37568,0
2272,37577,0
2392,37574,0
2440,37605,0
2430,37610,0
2352,37569,0
2200,37584,0
2024,37576,0
1786,37597,0
1540,37603,0
1308,37569,0
1118,37582,0
997,37580,0
948,37592,0
1000,37603,0
1140,37563,0
1360,37580,0
1620,37572,0
1912,37589,0
2186,37598,0
2440,37587,0
2644,37585,0
2776,37585,0
2842,37578,0
2818,37597,0
2714,37591,0
2532,37559,0
2296,37574,0
2030,37574,0
1744,37585,0
1472,37596,0
1248,37545,0
1084,37570,0
997,37572,0
996,37593,0
1073,37591,0
1234,37559,0
1400,37569,0
1636,37565,0
1876,37598,0
2084,37594,0
2264,37576,0
2388,37569,0
2428,37564,0
2424,37591,0
2354,37565,0
2233,37583,0
2096,37570,0
1920,37564,0
1732,37592,0
1562,37568,0
1421,37577,0
1340,37572,0
1325,37585,0
1360,37601,0
1448,37562,0
1592,37574,0
1760,37583,0
1956,37548,0
2144,37565,0
2308,37569,0
2440,37590,0
2522,37593,0
2536,37546,0
2484,37559,0
2356,37562,0
2184,37575,0
1953,37583,0
1704,37555,0
1465,37554,0
1224,37553,0
1056,37586,0
940,37575,0
898,37544,0
934,37558,0
1044,37552,0
1217,37581,0
1444,37584,0
1723,37547,0
2004,37554,0
2288,37555,0
2529,37582,0
2682,37533,0
2776,37538,0
2784,37551,0
2704,37536,0
2552,37553,0
2322,37543,0
2085,37559,0
1808,37559,0
1560,37550,0
1349,37576,0
1210,37543,0
1138,37548,0
1140,37554,0
1232,37561,0
1369,37574,0
1546,37542,0
1772,37554,0
1978,37548,0
2184,37549,0
2340,37581,0
2434,37542,0
2504,37556,0
2464,37554,0
2358,37557,0
2182,37586,0
1952,37557,0
1717,37555,0
1502,37551,0
1331,37557,0
1216,37594,0
1180,37546,0
1224,37549,0
1344,37530,0
1510,37553,0
1724,37568,0
1953,37578,0
2216,37568,0
2436,37548,0
2624,37558,0
2760,37592,0
2828,37586,0
2814,37564,0
2736,37563,0
2594,37555,0
2368,37587,0
2136,37579,0
1840,37567,0
1584,37561,0
1352,37562,0
1168,37594,0
1069,37586,0
1048,37568,0
1109,37563,0
1228,37568,0
1424,37596,0
1642,37562,0
1889,37569,0
2098,37573,0
2324,37580,0
2496,37594,0
2625,37551,0
2720,37576,0
2728,37567,0
2668,37585,0
2524,37568,0
2336,37585,0
2148,37583,0
1930,37590,0
1738,37590,0
1590,37572,0
1488,37574,0
1454,37595,0
1492,37611,0
1578,37580,0
1712,37570,0
1914,37581,0
2112,37618,0
2312,37579,0
2472,37578,0
2600,37574,0
2652,37586,0
2666,37608,0
2580,37576,0
2440,37589,0
2224,37581,0
2048,37589,0
1792,37608,0
1552,37580,0
1349,37586,0
1197,37589,0
1132,37598,0
1130,37611,0
1268,37584,0
1464,37596,0
1728,37591,0
2030,37621,0
2304,37609,0
2584,37581,0
2816,37592,0
2986,37567,0
3080,37599,0
3082,37594,0
2996,37621,0
2834,37605,0
2604,37600,0
2340,37591,0
2046,37599,0
1781,37625,0
1537,37593,0
1376,37598,0
1280,37601,0
1260,37606,0
1324,37626,0
1458,37582,0
1656,37603,0
1880,37603,0
2120,37617,0
2376,37632,0
2564,37579,0
2701,37610,0
2788,37601,0
2772,37636,0
2704,37630,0
2580,37597,0
2412,37610,0
2240,37605,0
2048,37636,0
1730,37643,0
1642,37617,0
1616,37604,0
1660,37614,0
1756,37608,0
1909,37624,0
2106,37618,0
2300,37618,0
2513,37611,0
2704,37635,0
2856,37605,0
2981,37618,0
2996,37616,0
3000,37623,0
2849,37641,0
2696,37600,0
2460,37617,0
2324,37615,0
1961,37641,0
1736,37646,0
1548,37599,0
1426,37621,0
1368,37616,0
1385,37642,0
1477,37649,0
1632,37615,0
1842,37618,0
2096,37626,0
2356,37650,0
2656,37620,0
2892,37627,0
3073,37624,0
3160,37643,0
3196,37640,0
3136,37606,0
3002,37623,0
2800,37604,0
2548,37630,0
2276,37649,0
2016,37643,0
1800,37624,0
1632,37632,0
1545,37623,0
1552,37656,0
1606,37613,0
1744,37633,0
1920,37630,0
2128,37649,0
2336,37654,0
2546,37620,0
2700,37627,0
2808,37635,0
2856,37657,0
2866,37661,0
2760,37628,0
2586,37635,0
2362,37648,0
2096,37652,0
1859,37628,0
1636,37640,0
1502,37626,0
1434,37636,0
1458,37666,0
1563,37632,0
1732,37622,0
1962,37652,0
2208,37643,0
2456,37651,0
2692,37667,0
2916,37619,0
3070,37641,0
3168,37634,0
3184,37657,0
3108,37666,0
2964,37631,0
2772,37647,0
2504,37638,0
2244,37677,0
1952,37658,0
1708,37644,0
1516,37643,0
1386,37635,0
1336,37674,0
1374,37653,0
1496,37638,0
1672,37639,0
1898,37641,0
2130,37670,0
2368,37651,0
2557,37646,0
2736,37645,0
2868,37647,0
2952,37677,0
2968,37626,0
2952,37647,0
2848,37658,0
2658,37666,0
2480,37658,0
2272,37672,0
2080,37645,0
1916,37643,0
1818,37647,0
1770,37656,0
1796,37647,0
1896,37686,0
2025,37649,0
2208,37653,0
2401,37654,0
2584,37661,0
2784,37684,0
2896,37632,0
2992,37651,0
2984,37655,0
2944,37682,0
2814,37687,0
2600,37655,0
2376,37656,0
2144,37654,0
1892,37683,0
1674,37690,0
1497,37662,0
1406,37670,0
1406,37653,0
1472,37690,0
1626,37686,0
1868,37655,0
2149,37658,0
2432,37676,0
2684,37658,0
2904,37666,0
3088,37661,0
3180,37677,0
3216,37667,0
3152,37692,0
3008,37682,0
2804,37660,0
2558,37672,0
2298,37674,0
2044,37701,0
1840,37665,0
1684,37678,0
1624,37676,0
1594,37684,0
1748,37689,0
1917,37668,0
2168,37668,0
2432,37676,0
2728,37711,0
3016,37689,0
3328,37676,0
3554,37680,0
3712,37678,0
3809,37713,0
3796,37661,0
3756,37669,0
3666,37679,0
3560,37686,0
3464,37707,0
3360,37672,0
3273,37682,0
3176,37682,0
3168,37689,0
3192,37666,0
3256,37695,0
3376,37690,0
3496,37683,0
3620,37695,0
3740,37708,0
3832,37673,0
3880,37684,0
3880,37690,0
3810,37704,0
3672,37706,0
3504,37687,0
3200,37685,0
2912,37691,0
2562,37719,0
2264,37699,0
1952,37685,0
1716,37679,0
1548,37683,0
1474,37709,0
1474,37697,0
1561,37685,0
1714,37699,0
1905,37687,0
2144,37708,0
2396,37667,0
2644,37687,0
2884,37691,0
3072,37721,0
3186,37708,0
3168,37695,0
3120,37692,0
2984,37699,0
2768,37702,0
2508,37694,0
2220,37718,0
1960,37698,0
1728,37694,0
1560,37691,0
1457,37689,0
1458,37713,0
1528,37670,0
1662,37693,0
1860,37687,0
2052,37701,0
2296,37728,0
2496,37674,0
2696,37699,0
2808,37703,0
2868,37699,0
2864,37729,0
2808,37683,0
2656,37689,0
2440,37699,0
2194,37727,0
1936,37719,0
1709,37700,0
1534,37703,0
1452,37699,0
1440,37729,0
1545,37718,0
1702,37702,0
1913,37712,0
2173,37712,0
2448,37715,0
2716,37693,0
2948,37715,0
3128,37707,0
3232,37705,0
3268,37737,0
3224,37700,0
3088,37711,0
2880,37703,0
2648,37720,0
2346,37734,0
2082,37690,0
1790,37694,0
1586,37712,0
1428,37727,0
1372,37740,0
1384,37703,0
1489,37700,0
1648,37703,0
1877,37737,0
2120,37724,0
2368,37715,0
2594,37710,0
2748,37708,0
2884,37737,0
2948,37719,0
2960,37720,0
2928,37706,0
2832,37715,0
2682,37745,0
2456,37714,0
2264,37728,0
2064,37731,0
1900,37717,0
1800,37723,0
1748,37742,0
1776,37701,0
1856,37709,0
2000,37706,0
2176,37751,0
2360,37718,0
2584,37717,0
2744,37701,0
2912,37721,0
2964,37747,0
2992,37704,0
2924,37722,0
2816,37720,0
2608,37737,0
2388,37740,0
2128,37709,0
1876,37720,0
1645,37712,0
1456,37738,0
1354,37745,0
1312,37712,0
1377,37724,0
1508,37722,0
1728,37753,0
2016,37748,0
2324,37728,0
2884,37764,0
3112,37720,0
3264,37737,0
3320,37722,0
3304,37716,0
3174,37756,0
2984,37714,0
2728,37729,0
2440,37733,0
2152,37731,0
1884,37752,0
1669,37734,0
1526,37740,0
1484,37739,0
1504,37734,0
1608,37770,0
1764,37752,0
1986,37742,0
2208,37749,0
2440,37749,0
2688,37768,0
2852,37734,0
2960,37751,0
2992,37739,0
2944,37753,0
2804,37764,0
2626,37733,0
2413,37738,0
2197,37742,0
2010,37761,0
1856,37779,0
1756,37734,0
1712,37764,0
1746,37752,0
1856,37748,0
2021,37742,0
2232,37747,0
2448,37748,0
2682,37743,0
2904,37745,0
3070,37761,0
3192,37773,0
3260,37739,0
3254,37747,0
3152,37744,0
3016,37778,0
2760,37785,0
2512,37747,0
2226,37765,0
1988,37758,0
1740,37780,0
1578,37784,0
1496,37756,0
1488,37750,0
1565,37765,0
1720,37793,0
1920,37771,0
2144,37765,0
2401,37763,0
2660,37764,0
2922,37798,0
3152,37758,0
3320,37772,0
3416,37775,0
3368,37760,0
3288,37772,0
3140,37759,0
2920,37764,0
2682,37758,0
2418,37772,0
2176,37776,0
1998,37800,0
1888,37760,0
1846,37772,0
1876,37776,0
2000,37792,0
2160,37801,0
2384,37772,0
2584,37782,0
2808,37773,0
2976,37805,0
3136,37785,0
3200,37783,0
3204,37781,0
3136,37786,0
3024,37801,0
2810,37766,0
2560,37785,0
2297,37778,0
2036,37799,0
1832,37805,0
1700,37765,0
1659,37781,0
1736,37784,0
1888,37808,0
2112,37805,0
2348,37771,0
2652,37783,0
2938,37776,0
3194,37775,0
3400,37777,0
3540,37784,0
3608,37772,0
3600,37780,0
3472,37800,0
3280,37757,0
3024,37773,0
2751,37780,0
2428,37782,0
2154,37794,0
1900,37749,0
1728,37777,0
1616,37763,0
1626,37785,0
1696,37787,0
1840,37745,0
2040,37760,0
2304,37762,0
2540,37795,0
2776,37773,0
2968,37756,0
3088,37751,0
3160,37754,0
3174,37779,0
3132,37742,0
3040,37743,0
2880,37744,0
2676,37744,0
2440,37737,0
2240,37735,0
2064,37730,0
1928,37720,0
1868,37720,0
1874,37738,0
1938,37707,0
2064,37715,0
2224,37706,0
2416,37723,0
2608,37721,0
2801,37697,0
2928,37700,0
3052,37686,0
3056,37710,0
3012,37694,0
2872,37687,0
2700,37674,0
2434,37680,0
2170,37692,0
1884,37660,0
1640,37670,0
1424,37664,0
1272,37671,0
1210,37676,0
1228,37638,0
1336,37652,0
1512,37638,0
1766,37640,0
2074,37659,0
2380,37609,0
2656,37632,0
2888,37635,0
3070,37638,0
3164,37644,0
3164,37633,0
3068,37594,0
2896,37639,0
2644,37588,0
2354,37612,0
2047,37600,0
1748,37619,0
1532,37610,0
1351,37585,0
1257,37591,0
1266,37583,0
1338,37607,0
1480,37600,0
1676,37587,0
1920,37572,0
2144,37579,0
2368,37603,0
2540,37567,0
2696,37568,0
2744,37563,0
2712,37565,0
2608,37586,0
2402,37541,0
2186,37564,0
1944,37551,0
1718,37555,0
1552,37572,0
1426,37528,0
1393,37545,0
1406,37512,0
1520,37556,0
1672,37549,0
1885,37539,0
2116,37568,0
2356,37544,0
2584,37562,0
2780,37542,0
2916,37530,0
3002,37522,0
3004,37534,0
2932,37549,0
2752,37516,0
2561,37528,0
2272,37532,0
1989,37542,0
1708,37550,0
1464,37521,0
1270,37528,0
1166,37532,0
1144,37546,0
1190,37550,0
1326,37521,0
1514,37527,0
1753,37524,0
1996,37557,0
2252,37531,0
2490,37532,0
2699,37522,0
2880,37529,0
2984,37544,0
3008,37537,0
2900,37522,0
2760,37505,0
2568,37536,0
2330,37545,0
2088,37555,0
1842,37518,0
1658,37525,0
1535,37531,0
1490,37547,0
1514,37550,0
1618,37507,0
1780,37530,0
1960,37519,0
2200,37553,0
2394,37524,0
2600,37517,0
2724,37514,0
2837,37511,0
2833,37547,0
2768,37517,0
2636,37518,0
2464,37515,0
2222,37526,0
1940,37546,0
1684,37514,0
1460,37525,0
1294,37526,0
1224,37533,0
1252,37543,0
1368,37508,0
1585,37526,0
1856,37517,0
2136,37497,0
2448,37529,0
2612,37505,0
2952,37493,0
3124,37524,0
3212,37517,0
3216,37523,0
3120,37553,0
2944,37530,0
2706,37528,0
2416,37515,0
2112,37526,0
1797,37547,0
1540,37516,0
1352,37526,0
1252,37513,0
1216,37532,0
1292,37551,0
1408,37516,0
1606,37519,0
1848,37515,0
2100,37549,0
2368,37549,0
2576,37524,0
2720,37530,0
2780,37517,0
2816,37545,0
2756,37515,0
2657,37522,0
2520,37530,0
2328,37526,0
1924,37536,0
1752,37524,0
1644,37521,0
1584,37500,0
1600,37549,0
1674,37525,0
1804,37528,0
1978,37560,0
2184,37517,0
2392,37521,0
2584,37528,0
2765,37524,0
2864,37546,0
2936,37512,0
2880,37533,0
2788,37528,0
2600,37530,0
2392,37552,0
2108,37509,0
1844,37537,0
1600,37526,0
1378,37535,0
1229,37542,0
1164,37501,0
1168,37523,0
1264,37528,0
1441,37536,0
1664,37556,0
1952,37505,0
2260,37528,0
2564,37537,0
2840,37531,0
3012,37536,0
3140,37534,0
3176,37527,0
3122,37550,0
2976,37552,0
2756,37518,0
2488,37545,0
2196,37540,0
1920,37513,0
1678,37521,0
1504,37517,0
1402,37559,0
1384,37545,0
1449,37521,0
1596,37525,0
1780,37534,0
1994,37550,0
2232,37527,0
2372,37520,0
2632,37517,0
2760,37533,0
2868,37549,0
2864,37503,0
2764,37531,0
2604,37509,0
2369,37528,0
2122,37541,0
1880,37508,0
1682,37524,0
1546,37523,0
1472,37547,0
1493,37534,0
1576,37503,0
1738,37536,0
1948,37492,0
2198,37503,0
2448,37532,0
2692,37502,0
2904,37518,0
3068,37517,0
3160,37546,0
3178,37526,0
3120,37506,0
2992,37508,0
2760,37509,0
2516,37541,0
2204,37522,0
1924,37500,0
1648,37507,0
1440,37514,0
1292,37524,0
1244,37520,0
1268,37514,0
1392,37507,0
1552,37493,0
1788,37536,0
2036,37512,0
2266,37496,0
2508,37507,0
2712,37497,0
2860,37529,0
3008,37485,0
3028,37493,0
2992,37510,0
2840,37487,0
2648,37501,0
2432,37462,0
2192,37466,0
1968,37499,0
1770,37496,0
1645,37495,0
1576,37525,0
1568,37480,0
1654,37489,0
1808,37491,0
1983,37504,0
2176,37527,0
2410,37473,0
2584,37501,0
2752,37485,0
2832,37507,0
2880,37507,0
2784,37479,0
2668,37489,0
2469,37491,0
2260,37510,0
1996,37517,0
1728,37483,0
1488,37488,0
1296,37480,0
1191,37519,0
1190,37506,0
1274,37479,0
1457,37490,0
1712,37482,0
2012,37516,0
2306,37505,0
2608,37492,0
2864,37509,0
3064,37503,0
3176,37505,0
3204,37520,0
3132,37513,0
2985,37485,0
2748,37479,0
2472,37495,0
2176,37525,0
1876,37499,0
1589,37483,0
1388,37474,0
1252,37487,0
1208,37509,0
1244,37462,0
1352,37479,0
1535,37474,0
1756,37488,0
2001,37514,0
2256,37476,0
2490,37475,0
2650,37483,0
2754,37502,0
2756,37494,0
2709,37481,0
2588,37468,0
2421,37476,0
2248,37507,0
2024,37469,0
1824,37482,0
1649,37502,0
1522,37514,0
1460,37487,0
1462,37475,0
1528,37505,0
1644,37488,0
1852,37471,0
2058,37490,0
2272,37497,0
2484,37475,0
2672,37471,0
2804,37468,0
2864,37497,0
2880,37500,0
2756,37473,0
2604,37480,0
2372,37468,0
2116,37504,0
1828,37475,0
1556,37478,0
1314,37474,0
1152,37463,0
1045,37497,0
1042,37455,0
1112,37474,0
1259,37468,0
1464,37483,0
1732,37494,0
2031,37449,0
2344,37467,0
2637,37471,0
2868,37500,0
3008,37465,0
3071,37474,0
3044,37469,0
2930,37466,0
2736,37482,0
2472,37496,0
2186,37486,0
1940,37477,0
1636,37468,0
1436,37467,0
1314,37495,0
1267,37479,0
1298,37472,0
1424,37477,0
1600,37472,0
1816,37505,0
2046,37466,0
2284,37476,0
2484,37479,0
2634,37484,0
2736,37508,0
2772,37466,0
2696,37489,0
2549,37474,0
2336,37502,0
2072,37514,0
1808,37480,0
1569,37492,0
1392,37493,0
1288,37509,0
1270,37530,0
1345,37493,0
1432,37496,0
1696,37526,0
1952,37515,0
2212,37522,0
2488,37535,0
2720,37506,0
2900,37513,0
3032,37515,0
3088,37525,0
3056,37548,0
2938,37508,0
2744,37527,0
2490,37521,0
2208,37542,0
1896,37558,0
1628,37523,0
1384,37548,0
1206,37537,0
1137,37538,0
1132,37562,0
1232,37528,0
1388,37561,0
1609,37548,0
1860,37567,0
2124,37582,0
2352,37547,0
2568,37569,0
2738,37566,0
2860,37584,0
2932,37590,0
2920,37552,0
2632,37671,0
2432,37568,0
2208,37605,0
1980,37582,0
1796,37593,0
1644,37610,0
1568,37573,0
1564,37598,0
1634,37591,0
1780,37616,0
1944,37621,0
2175,37593,0
2370,37591,0
2600,37600,0
2740,37636,0
2880,37630,0
2900,37615,0
2896,37607,0
2772,37633,0
2596,37643,0
2400,37604,0
2144,37627,0
1869,37621,0
1628,37633,0
1424,37654,0
1306,37610,0
1260,37627,0
1322,37643,0
1470,37650,0
1714,37669,0
2016,37627,0
2336,37646,0
2636,37702,0
2924,37663,0
3160,37669,0
3320,37677,0
3384,37669,0
3360,37656,0
3244,37662,0
3040,37693,0
2776,37651,0
2468,37664,0
2164,37677,0
1881,37670,0
1634,37695,0
1482,37658,0
1416,37677,0
1420,37672,0
1512,37695,0
1698,37713,0
1892,37671,0
2160,37678,0
2408,37677,0
2688,37709,0
2880,37704,0
3014,37690,0
3072,37687,0
3032,37681,0
2944,37704,0
2788,37681,0
2604,37688,0
2416,37679,0
2204,37700,0
2032,37716,0
1900,37702,0
1832,37726,0
1824,37705,0
1900,37719,0
2008,37697,0
2197,37701,0
2408,37693,0
2628,37699,0
2832,37728,0
3016,37680,0
3152,37708,0
3240,37701,0
3224,37734,0
3184,37734,0
3000,37697,0
2800,37703,0
2520,37711,0
2297,37738,0
1980,37740,0
1728,37709,0
1546,37722,0
1444,37723,0
1418,37748,0
1453,37740,0
1589,37715,0
1778,37712,0
2026,37717,0
2291,37742,0
2580,37715,0
2880,37728,0
3120,37720,0
3296,37733,0
3360,37728,0
3364,37725,0
3280,37693,0
3104,37714,0
2884,37712,0
2604,37753,0
2320,37712,0
2056,37730,0
1845,37720,0
1684,37751,0
1628,37760,0
1652,37718,0
1740,37734,0
1917,37728,0
2106,37760,0
2352,37746,0
2572,37736,0
2804,37735,0
2942,37727,0
3048,37763,0
3071,37725,0
3056,37749,0
2936,37738,0
2728,37751,0
2474,37768,0
2194,37731,0
1936,37739,0
1721,37741,0
1588,37769,0
1542,37774,0
1600,37741,0
1733,37748,0
1928,37747,0
2181,37769,0
2456,37779,0
