ECG,IR,PCG
2528,37888,0
2408,37905,0
2260,37918,0
2122,37890,0
1984,37899,0
1884,37911,0
1796,37899,0
1744,37911,0
1736,37873,0
1762,37893,0
1840,37917,0
1964,37894,0
2073,37913,0
2232,37877,0
2328,37908,0
2464,37899,0
2498,37888,0
2580,37910,0
2554,37885,0
2521,37911,0
2436,37871,0
2360,37887,0
2204,37909,0
2048,37897,0
1893,37916,0
1760,37887,0
1665,37900,0
1632,37908,0
1595,37892,0
1629,37921,0
1748,37904,0
1909,37912,0
2052,37904,0
2244,37889,0
2436,37918,0
2620,37926,0
2784,37922,0
2914,37905,0
3009,37925,0
3032,37881,0
3080,37892,0
3024,37925,0
2936,37895,0
2855,37922,0
2728,37884,0
2680,37904,0
2552,37915,0
2540,37896,0
2508,37923,0
2572,37902,0
2604,37925,0
2696,37883,0
2848,37894,0
2994,37918,0
3104,37901,0
3170,37912,0
3242,37899,0
3220,37908,0
3180,37910,0
3112,37892,0
2954,37929,0
2820,37905,0
2698,37923,0
2380,37916,0
2284,37934,0
2240,37907,0
2216,37903,0
2232,37884,0
2288,37933,0
2386,37913,0
2530,37904,0
2648,37911,0
2786,37900,0
2904,37925,0
3011,37910,0
3056,37925,0
3120,37892,0
3060,37910,0
3058,37926,0
2904,37909,0
2752,37926,0
2568,37891,0
2416,37903,0
2352,37925,0
2189,37905,0
2100,37919,0
2060,37907,0
2052,37918,0
2104,37903,0
2168,37909,0
2288,37928,0
2424,37907,0
2564,37923,0
2704,37888,0
2788,37907,0
2788,37916,0
2814,37910,0
2800,37921,0
2736,37915,0
2648,37907,0
2504,37909,0
2352,37928,0
2224,37896,0
2128,37908,0
2016,37922,0
1936,37914,0
1922,37929,0
1932,37918,0
2024,37915,0
2104,37895,0
2264,37901,0
2384,37926,0
2584,37910,0
2644,37926,0
2744,37899,0
2800,37910,0
2880,37939,0
2868,37915,0
2816,37927,0
2696,37900,0
2569,37913,0
2426,37905,0
2248,37902,0
2120,37919,0
2030,37916,0
2004,37934,0
1965,37893,0
1948,37909,0
2008,37905,0
2144,37905,0
2266,37900,0
2408,37903,0
2538,37922,0
2664,37909,0
2768,37930,0
2824,37907,0
2852,37917,0
2840,37892,0
2799,37901,0
2676,37916,0
2578,37907,0
2392,37926,0
2281,37902,0
2156,37905,0
2056,37906,0
1976,37905,0
1940,37927,0
1960,37915,0
2056,37922,0
2153,37887,0
2297,37892,0
2442,37933,0
2584,37902,0
2680,37928,0
2773,37911,0
2832,37915,0
2872,37905,0
2912,37901,0
2833,37929,0
2676,37898,0
2544,37927,0
2404,37911,0
2266,37894,0
2144,37925,0
2056,37927,0
2004,37918,0
1980,37921,0
2000,37890,0
2056,37902,0
2156,37930,0
2312,37902,0
2436,37929,0
2616,37902,0
2700,37918,0
2824,37915,0
2844,37901,0
2900,37934,0
2848,37910,0
2778,37930,0
2674,37892,0
2584,37910,0
2442,37923,0
2304,37907,0
2188,37947,0
2096,37901,0
2028,37922,0
2008,37937,0
2021,37907,0
2069,37936,0
2256,37920,0
2404,37927,0
2480,37917,0
2624,37925,0
2740,37923,0
2824,37905,0
2912,37942,0
2932,37909,0
2896,37931,0
2816,37920,0
2714,37936,0
2580,37902,0
2444,37912,0
2290,37941,0
2160,37921,0
2108,37940,0
2028,37914,0
2032,37934,0
2046,37912,0
2136,37909,0
2236,37921,0
2412,37923,0
2520,37936,0
2708,37904,0
2824,37920,0
2921,37933,0
2976,37924,0
2992,37943,0
2928,37913,0
2852,37918,0
2732,37937,0
2625,37915,0
2520,37934,0
2340,37906,0
2185,37917,0
2108,37927,0
2058,37935,0
2040,37910,0
2068,37935,0
2144,37935,0
2268,37901,0
2400,37929,0
2544,37901,0
2680,37910,0
2788,37939,0
2879,37920,0
2948,37944,0
2976,37917,0
2888,37915,0
2856,37928,0
2708,37909,0
2600,37930,0
2440,37908,0
2308,37922,0
2232,37883,0
2156,37915,0
2120,37929,0
2118,37908,0
2153,37926,0
2240,37899,0
2344,37910,0
2496,37918,0
2641,37904,0
2800,37921,0
2936,37910,0
3028,37925,0
3000,37897,0
3009,37910,0
2976,37893,0
2898,37901,0
2768,37897,0
2640,37896,0
2472,37917,0
2332,37870,0
2218,37890,0
2136,37915,0
2096,37874,0
2088,37907,0
2116,37883,0
2225,37896,0
2352,37871,0
2532,37875,0
2636,37899,0
2776,37880,0
2864,37894,0
2952,37871,0
2996,37877,0
3072,37883,0
3028,37871,0
2952,37894,0
2828,37878,0
2688,37885,0
2508,37854,0
2394,37865,0
2260,37890,0
2198,37865,0
2200,37876,0
2164,37852,0
2176,37850,0
2276,37880,0
2388,37877,0
2528,37861,0
2676,37868,0
2820,37879,0
2916,37846,0
2992,37856,0
3032,37862,0
3048,37857,0
3008,37862,0
2976,37856,0
2792,37870,0
2688,37839,0
2504,37843,0
2384,37864,0
2256,37841,0
2216,37860,0
2132,37831,0
2128,37843,0
2176,37868,0
2284,37844,0
2408,37862,0
2576,37839,0
2708,37860,0
2820,37833,0
2885,37849,0
2960,37859,0
3020,37840,0
3004,37856,0
2992,37831,0
2928,37837,0
2712,37844,0
2569,37833,0
2420,37862,0
2298,37837,0
2184,37859,0
2116,37826,0
2116,37831,0
2084,37860,0
2136,37830,0
2256,37845,0
2348,37828,0
2503,37835,0
2628,37823,0
2792,37819,0
2844,37849,0
2952,37830,0
2960,37851,0
3008,37810,0
2880,37822,0
2800,37854,0
2656,37830,0
2561,37849,0
2400,37815,0
2264,37832,0
2160,37825,0
2076,37819,0
2016,37842,0
2024,37824,0
2070,37841,0
2164,37797,0
2320,37813,0
2545,37808,0
2672,37824,0
2808,37833,0
2868,37804,0
2888,37822,0
2858,37811,0
2801,37824,0
2704,37821,0
2576,37809,0
2432,37825,0
2324,37817,0
2192,37823,0
2064,37791,0
2034,37807,0
1984,37827,0
1984,37812,0
2016,37824,0
2128,37794,0
2272,37800,0
2372,37805,0
2592,37797,0
2676,37822,0
2768,37793,0
2828,37815,0
2856,37783,0
2840,37791,0
2740,37802,0
2632,37791,0
2514,37807,0
2400,37775,0
2248,37796,0
2132,37799,0
1976,37808,0
1928,37800,0
1924,37805,0
1892,37782,0
1962,37797,0
2060,37788,0
2186,37806,0
2328,37779,0
2460,37795,0
2584,37808,0
2712,37783,0
2802,37802,0
2768,37787,0
2816,37800,0
2698,37763,0
2624,37775,0
2468,37803,0
2360,37788,0
2176,37795,0
2047,37764,0
1984,37779,0
1920,37787,0
1888,37786,0
1891,37800,0
1953,37780,0
2056,37799,0
2156,37767,0
2295,37779,0
2432,37797,0
2552,37778,0
2676,37801,0
2768,37758,0
2708,37774,0
2704,37772,0
2640,37790,0
2538,37804,0
2408,37800,0
2274,37767,0
2136,37812,0
2022,37781,0
1940,37805,0
1884,37777,0
1860,37791,0
1879,37780,0
1944,37780,0
2072,37798,0
2216,37783,0
2352,37793,0
2460,37775,0
2604,37775,0
2660,37807,0
2720,37778,0
2724,37806,0
2804,37775,0
2706,37783,0
2584,37788,0
2472,37782,0
2294,37801,0
2136,37781,0
2034,37813,0
1930,37764,0
1869,37776,0
1860,37798,0
1877,37778,0
1928,37769,0
2040,37780,0
2168,37765,0
2308,37797,0
2440,37793,0
2552,37803,0
2636,37781,0
2696,37809,0
2704,37776,0
2700,37783,0
2652,37804,0
2532,37790,0
2384,37802,0
2276,37795,0
2153,37807,0
2041,37774,0
1940,37789,0
1888,37803,0
1864,37791,0
1906,37817,0
1972,37773,0
2148,37791,0
2304,37814,0
2436,37788,0
2568,37823,0
2642,37787,0
2700,37793,0
2752,37829,0
2756,37791,0
2732,37812,0
2696,37801,0
2587,37799,0
2428,37810,0
2253,37791,0
2120,37813,0
2005,37798,0
1928,37815,0
1868,37801,0
1848,37830,0
1874,37794,0
1956,37804,0
2076,37823,0
2214,37808,0
2371,37822,0
2480,37814,0
2632,37833,0
2680,37796,0
2760,37814,0
2736,37842,0
2760,37816,0
2644,37845,0
2530,37809,0
2404,37826,0
2288,37833,0
2181,37811,0
2036,37842,0
1972,37832,0
1900,37858,0
1889,37811,0
1909,37837,0
1976,37857,0
2120,37826,0
2272,37855,0
2432,37831,0
2520,37839,0
2660,37855,0
2724,37841,0
2764,37830,0
2768,37846,0
2736,37835,0
2660,37850,0
2546,37844,0
2408,37858,0
2261,37850,0
2132,37862,0
2064,37821,0
1960,37840,0
1930,37876,0
1904,37846,0
1936,37873,0
2006,37828,0
2136,37841,0
2240,37872,0
2404,37844,0
2520,37858,0
2660,37839,0
2740,37846,0
2784,37864,0
2826,37851,0
2748,37875,0
2633,37847,0
2529,37875,0
2400,37834,0
2248,37847,0
2152,37870,0
2048,37853,0
1936,37865,0
1900,37840,0
1900,37847,0
1944,37856,0
2032,37860,0
2178,37854,0
2322,37855,0
2432,37853,0
2568,37870,0
2682,37862,0
2740,37873,0
2790,37838,0
2796,37843,0
2784,37879,0
2648,37858,0
2552,37874,0
2376,37861,0
2232,37856,0
2112,37871,0
2024,37847,0
1936,37872,0
1928,37861,0
1928,37875,0
1978,37844,0
2064,37853,0
2192,37878,0
2330,37861,0
2448,37881,0
2577,37845,0
2680,37855,0
2792,37887,0
2825,37855,0
2776,37873,0
2736,37880,0
2648,37870,0
2521,37883,0
2384,37862,0
2258,37860,0
2130,37891,0
2032,37867,0
1964,37881,0
1924,37881,0
1932,37880,0
1984,37879,0
2072,37876,0
2208,37888,0
2316,37886,0
2472,37894,0
2568,37862,0
2696,37879,0
2772,37887,0
2780,37885,0
2788,37900,0
2784,37876,0
2688,37888,0
2549,37897,0
2408,37888,0
2280,37907,0
2132,37882,0
2032,37902,0
1964,37870,0
1941,37889,0
1956,37912,0
2008,37890,0
2064,37887,0
2188,37909,0
2320,37901,0
2448,37880,0
2572,37868,0
2672,37892,0
2728,37914,0
2768,37900,0
2764,37917,0
2712,37880,0
2612,37890,0
2493,37901,0
2348,37897,0
2272,37923,0
2112,37901,0
2016,37914,0
1940,37891,0
1936,37899,0
1924,37923,0
1984,37906,0
2076,37912,0
2232,37907,0
2387,37912,0
2528,37907,0
2650,37902,0
2778,37922,0
2784,37911,0
2816,37927,0
2797,37896,0
2746,37902,0
2672,37928,0
2356,37940,0
2224,37908,0
2092,37928,0
2001,37925,0
1936,37918,0
1918,37909,0
1917,37924,0
1969,37903,0
2080,37921,0
2212,37917,0
2352,37902,0
2511,37919,0
2624,37923,0
2762,37935,0
2788,37897,0
2836,37907,0
2784,37929,0
2756,37915,0
2640,37936,0
2512,37897,0
2416,37913,0
2257,37937,0
2130,37913,0
2034,37937,0
1968,37922,0
1930,37931,0
1932,37922,0
1989,37918,0
2088,37946,0
2248,37922,0
2380,37945,0
2528,37915,0
2596,37940,0
2690,37935,0
2752,37932,0
2784,37932,0
2768,37939,0
2708,37917,0
2604,37934,0
2464,37961,0
2320,37938,0
2196,37959,0
2069,37939,0
1988,37944,0
1914,37948,0
1940,37942,0
1900,37956,0
1976,37943,0
2068,37958,0
2216,37928,0
2336,37939,0
2464,37967,0
2592,37945,0
2722,37976,0
2784,37950,0
2804,37950,0
2826,37953,0
2736,37963,0
2604,37979,0
2483,37961,0
2344,37978,0
2210,37940,0
2128,37964,0
2056,37985,0
1952,37957,0
1928,37983,0
1956,37962,0
2046,37985,0
2128,37986,0
2260,37964,0
2392,37961,0
2528,37971,0
2640,37957,0
2716,37989,0
2784,37976,0
2811,37991,0
2768,37959,0
2736,37964,0
2580,38003,0
2464,37976,0
2308,38001,0
2192,37968,0
2080,37978,0
1969,37995,0
1912,37978,0
1920,38001,0
1952,37981,0
2028,38005,0
2162,37964,0
2272,37982,0
2394,38005,0
2530,37980,0
2646,37999,0
2720,37986,0
2816,37980,0
2820,38000,0
2740,37982,0
2704,38006,0
2568,38008,0
2436,37980,0
2308,37983,0
2173,37974,0
2052,38012,0
1972,37995,0
1924,38014,0
1900,37983,0
1928,37994,0
2007,38010,0
2112,37991,0
2257,38011,0
2400,37991,0
2512,38017,0
2596,37981,0
2712,37996,0
2708,38020,0
2736,37985,0
2704,38015,0
2672,38000,0
2549,37993,0
2426,38002,0
2282,37995,0
2152,38025,0
2025,38006,0
1960,38028,0
1899,37987,0
1900,37999,0
1978,38018,0
2032,38009,0
2112,38007,0
2240,38007,0
2364,38018,0
2488,38015,0
2592,38006,0
2658,38010,0
2712,38013,0
2720,38033,0
2668,37984,0
2596,38007,0
2480,38039,0
2364,38016,0
2248,38030,0
2120,38000,0
2000,38008,0
1952,38030,0
1896,38015,0
1914,38038,0
1940,38021,0
2020,38022,0
2144,38007,0
2320,38008,0
2448,38030,0
2576,38019,0
2668,38044,0
2738,37999,0
2736,38015,0
2776,38045,0
2687,38027,0
2604,38034,0
2498,38021,0
2361,38026,0
2168,38022,0
2064,38016,0
1936,38026,0
1888,38041,0
1833,38034,0
1832,38018,0
1876,38024,0
1969,38025,0
2088,38028,0
2220,38043,0
2372,38025,0
2540,38043,0
2576,38001,0
2704,38013,0
2696,38047,0
2714,38020,0
2650,38042,0
2576,38024,0
2448,38028,0
2308,38025,0
2180,38018,0
2080,38049,0
1986,38028,0
1901,38038,0
1892,38007,0
1872,38024,0
1888,38042,0
1985,38018,0
2101,38039,0
2240,38017,0
2392,38027,0
2520,38031,0
2584,38036,0
2680,38017,0
2672,38038,0
2666,38041,0
2624,38034,0
2528,38049,0
2448,38024,0
2268,38049,0
2138,38008,0
2018,38024,0
1912,38051,0
1859,38026,0
1824,38048,0
1856,38017,0
1864,38030,0
1976,38042,0
2076,38014,0
2232,38049,0
2344,38041,0
2456,38042,0
2568,38016,0
2664,38022,0
2700,38051,0
2708,38028,0
2672,38054,0
2552,38022,0
2412,38035,0
2272,38038,0
2170,38038,0
2050,38048,0
1968,38023,0
1890,38030,0
1840,38024,0
1844,38030,0
1896,38044,0
1989,38019,0
2112,38037,0
2266,38031,0
2372,38045,0
2504,38028,0
2608,38046,0
2642,38019,0
2666,38030,0
2674,38051,0
2608,38024,0
2536,38058,0
2376,38022,0
2256,38041,0
2116,38046,0
1992,38042,0
1906,38054,0
1844,38033,0
1800,38045,0
1833,38021,0
1894,38032,0
1992,38053,0
2144,38035,0
2257,38053,0
2368,38014,0
1966,38039,0
2563,38056,0
2632,38040,0
2704,38055,0
2688,38015,0
2544,38041,0
2448,38036,0
2352,38040,0
2212,38047,0
2066,38029,0
1940,38055,0
1856,38037,0
1824,38048,0
1778,38006,0
1780,38021,0
1848,38058,0
1954,38030,0
2064,38056,0
2232,38032,0
2344,38041,0
2484,38048,0
2556,38022,0
2640,38054,0
2672,38034,0
2665,38049,0
2592,38032,0
2522,38035,0
2396,38041,0
2256,38032,0
2116,38049,0
2006,38013,0
1880,38029,0
1825,38057,0
1774,38036,0
1824,38054,0
1860,38033,0
2072,38049,0
2184,38057,0
2320,38051,0
2436,38035,0
2512,38048,0
2562,38028,0
2628,38063,0
2556,38026,0
2520,38035,0
2410,38057,0
2282,38047,0
2157,38057,0
2012,38041,0
1928,38064,0
1826,38054,0
1776,38052,0
1740,38065,0
1816,38046,0
1856,38059,0
1928,38033,0
2112,38046,0
2253,38072,0
2370,38044,0
2504,38070,0
2596,38053,0
2648,38061,0
2648,38060,0
2122,38047,0
2568,38079,0
2465,38061,0
2360,38079,0
2224,38054,0
2052,38049,0
1938,38055,0
1845,38058,0
1778,38085,0
1760,38066,0
1777,38077,0
1832,38061,0
1936,38056,0
2047,38088,0
2176,38071,0
2306,38095,0
2432,38057,0
2484,38066,0
2576,38082,0
2560,38061,0
2568,38081,0
2464,38073,0
2376,38088,0
2224,38054,0
2122,38068,0
1953,38090,0
1882,38073,0
1801,38094,0
1761,38063,0
1744,38064,0
1786,38082,0
1850,38065,0
1962,38088,0
2093,38066,0
2240,38063,0
2400,38078,0
2517,38071,0
2553,38083,0
2624,38065,0
2644,38085,0
2620,38067,0
2556,38075,0
2442,38091,0
2320,38067,0
2180,38073,0
2056,38079,0
1930,38078,0
1868,38092,0
1817,38078,0
1776,38096,0
1824,38051,0
1872,38079,0
1992,38099,0
2104,38085,0
2248,38099,0
2352,38084,0
2490,38098,0
2528,38076,0
2616,38078,0
2616,38103,0
2580,38082,0
2505,38106,0
2360,38064,0
2232,38085,0
2076,38112,0
1943,38089,0
1852,38105,0
1826,38078,0
1768,38088,0
1744,38088,0
1776,38082,0
1864,38115,0
1992,38094,0
2120,38109,0
2244,38082,0
2360,38087,0
2464,38113,0
2528,38095,0
2552,38116,0
2544,38074,0
2511,38090,0
2408,38109,0
2304,38096,0
2172,38108,0
2016,38101,0
1872,38120,0
1780,38083,0
1700,38093,0
1690,38130,0
1665,38097,0
1738,38118,0
1829,38106,0
1964,38100,0
2112,38118,0
2257,38099,0
2372,38118,0
2548,38114,0
2541,38126,0
2576,38096,0
2592,38109,0
2545,38127,0
2436,38120,0
2276,38115,0
2128,38103,0
1988,38127,0
1888,38119,0
1752,38118,0
1676,38131,0
1670,38100,0
1644,38115,0
1688,38129,0
1780,38114,0
1908,38138,0
2040,38119,0
2204,38132,0
2296,38107,0
2424,38118,0
2504,38141,0
2532,38121,0
2500,38136,0
2456,38096,0
2368,38121,0
2288,38140,0
2140,38120,0
2000,38143,0
1872,38102,0
1776,38120,0
1700,38140,0
1661,38121,0
1664,38142,0
1740,38117,0
1840,38121,0
1970,38135,0
2042,38109,0
2180,38132,0
2312,38139,0
2396,38129,0
2456,38143,0
2480,38121,0
2476,38118,0
2456,38128,0
2320,38124,0
2198,38141,0
2076,38102,0
1952,38123,0
1816,38133,0
1752,38123,0
1676,38133,0
1664,38115,0
1656,38132,0
1728,38116,0
1812,38121,0
1940,38150,0
2072,38123,0
2248,38143,0
2360,38118,0
2456,38120,0
2520,38149,0
2544,38129,0
2508,38141,0
2448,38104,0
2352,38116,0
2228,38141,0
2112,38114,0
1960,38147,0
1808,38132,0
1738,38147,0
1652,38115,0
1616,38126,0
1628,38136,0
1680,38111,0
1776,38121,0
1892,38152,0
2036,38137,0
2154,38151,0
2272,38112,0
2381,38128,0
2418,38142,0
2469,38123,0
2408,38149,0
2368,38124,0
2240,38150,0
2136,38115,0
1968,38121,0
1828,38158,0
1698,38134,0
1634,38157,0
1576,38130,0
1548,38143,0
1556,38144,0
1609,38127,0
1720,38151,0
1814,38145,0
1925,38169,0
2050,38127,0
2168,38131,0
2232,38155,0
2240,38131,0
2244,38137,0
2244,38154,0
2192,38142,0
2112,38164,0
2020,38136,0
1928,38147,0
1876,38135,0
1836,38131,0
1826,38167,0
1868,38147,0
1928,38171,0
2024,38129,0
2192,38144,0
2332,38146,0
2532,38145,0
2680,38167,0
2872,38149,0
3120,38165,0
3064,38124,0
3114,38147,0
3208,38176,0
3224,38152,0
3104,38169,0
2976,38159,0
2808,38163,0
2608,38134,0
2444,38148,0
2317,38176,0
2170,38147,0
2096,38163,0
2048,38146,0
2000,38166,0
2047,38145,0
2184,38153,0
2304,38181,0
2428,38156,0
2572,38165,0
2704,38138,0
2808,38146,0
2888,38165,0
2952,38147,0
2904,38176,0
2864,38148,0
2732,38144,0
2664,38174,0
2468,38147,0
2352,38170,0
2200,38159,0
2116,38171,0
2032,38143,0
1984,38152,0
1993,38177,0
2069,38156,0
2160,38178,0
2268,38148,0
2394,38150,0
2516,38163,0
2580,38161,0
2640,38171,0
2690,38164,0
2722,38176,0
2704,38137,0
2448,38183,0
2302,38193,0
2164,38172,0
2024,38146,0
1896,38176,0
1818,38157,0
1768,38175,0
1736,38154,0
1760,38172,0
1828,38149,0
1948,38161,0
2075,38188,0
2232,38165,0
2376,38170,0
2466,38154,0
2568,38158,0
2604,38180,0
2672,38159,0
2642,38183,0
2552,38156,0
2488,38155,0
2368,38165,0
2233,38163,0
2116,38186,0
2002,38158,0
1924,38175,0
1858,38137,0
1843,38151,0
1858,38185,0
1924,38159,0
2097,38180,0
2192,38164,0
2300,38183,0
2412,38168,0
2512,38174,0
2592,38180,0
2636,38184,0
2644,38186,0
2656,38166,0
2558,38173,0
2456,38176,0
2256,38169,0
2194,38184,0
2088,38163,0
1994,38198,0
1944,38161,0
1872,38167,0
1880,38189,0
1906,38169,0
2000,38191,0
2100,38168,0
2228,38193,0
2372,38163,0
2552,38171,0
2692,38187,0
2740,38178,0
2796,38198,0
2816,38170,0
2752,38166,0
2692,38193,0
2565,38177,0
2436,38205,0
2352,38184,0
2208,38203,0
2090,38194,0
2020,38195,0
2000,38178,0
1952,38186,0
2040,38196,0
2152,38171,0
2240,38182,0
2388,38206,0
2536,38186,0
2660,38212,0
2768,38182,0
2880,38188,0
2904,38189,0
2992,38187,0
2888,38210,0
2836,38188,0
2692,38203,0
2600,38180,0
2436,38195,0
2320,38206,0
2256,38191,0
2192,38226,0
2146,38181,0
2185,38197,0
2224,38205,0
2309,38194,0
2417,38216,0
2560,38193,0
2709,38208,0
2856,38193,0
2992,38197,0
3064,38198,0
3080,38193,0
3052,38211,0
3024,38209,0
2936,38190,0
2824,38208,0
2696,38198,0
2576,38215,0
2450,38199,0
2376,38220,0
2308,38190,0
2284,38213,0
2304,38188,0
2352,38196,0
2480,38220,0
2604,38198,0
2744,38218,0
2856,38184,0
3024,38200,0
3112,38235,0
3168,38209,0
3204,38219,0
3288,38201,0
3236,38212,0
3154,38192,0
3028,38202,0
2902,38217,0
2732,38207,0
2616,38225,0
2504,38189,0
2458,38204,0
2464,38214,0
2468,38217,0
2592,38196,0
2570,38222,0
2704,38222,0
2850,38198,0
2992,38209,0
3122,38205,0
3232,38212,0
3336,38232,0
3352,38209,0
3364,38232,0
3324,38199,0
3266,38215,0
3136,38226,0
3072,38205,0
2898,38232,0
2816,38216,0
2689,38231,0
2672,38191,0
2608,38214,0
2624,38231,0
2672,38218,0
2832,38232,0
2948,38202,0
3104,38219,0
3236,38223,0
3362,38216,0
3428,38234,0
3504,38210,0
3542,38228,0
3562,38195,0
3568,38206,0
3493,38232,0
3288,38211,0
3172,38246,0
3056,38229,0
2932,38203,0
2858,38219,0
2786,38205,0
2752,38231,0
2772,38207,0
2832,38236,0
2936,38196,0
3056,38211,0
3213,38223,0
3336,38208,0
3504,38223,0
3552,38208,0
3664,38221,0
3664,38195,0
3712,38199,0
3628,38224,0
3552,38201,0
3440,38232,0
3384,38177,0
3264,38208,0
3154,38213,0
3072,38192,0
3008,38215,0
2953,38190,0
2968,38211,0
3036,38177,0
3140,38183,0
3312,38204,0
3474,38192,0
3512,38190,0
3632,38193,0
3736,38212,0
3792,38204,0
3816,38194,0
3812,38164,0
3764,38178,0
3676,38196,0
3560,38172,0
3432,38196,0
3320,38172,0
3225,38178,0
3116,38186,0
3108,38175,0
3032,38193,0
3112,38171,0
3136,38187,0
3296,38160,0
3384,38171,0
3520,38192,0
3660,38168,0
3856,38191,0
3936,38162,0
4004,38165,0
4032,38179,0
4020,38147,0
3912,38182,0
3809,38169,0
3693,38188,0
3576,38136,0
3496,38152,0
3380,38180,0
3274,38165,0
3188,38165,0
3176,38146,0
3196,38152,0
3256,38157,0
3364,38171,0
3496,38142,0
3632,38148,0
3760,38175,0
3872,38144,0
3964,38170,0
4040,38140,0
4048,38154,0
4092,38154,0
3984,38147,0
3912,38160,0
3776,38141,0
3640,38168,0
3488,38129,0
3396,38142,0
3296,38160,0
3312,38148,0
3274,38157,0
3296,38148,0
3392,38139,0
3474,38150,0
3560,38136,0
3684,38162,0
3824,38130,0
3946,38151,0
4064,38116,0
4095,38129,0
4032,38130,0
4016,38156,0
3952,38101,0
3848,38129,0
3736,38141,0
3612,38128,0
3524,38126,0
3380,38149,0
3296,38125,0
3252,38143,0
3236,38108,0
3270,38116,0
3360,38147,0
3484,38119,0
3544,38141,0
3736,38109,0
3838,38119,0
3976,38138,0
4000,38116,0
4040,38134,0
4040,38114,0
4095,38131,0
4056,38105,0
3944,38117,0
3824,38139,0
3692,38103,0
3520,38137,0
3416,38094,0
3328,38121,0
3276,38119,0
3304,38106,0
3344,38115,0
3450,38115,0
3580,38124,0
3720,38115,0
3839,38103,0
3952,38124,0
4024,38111,0
4040,38122,0
4040,38098,0
4020,38118,0
3968,38103,0
3900,38106,0
3768,38123,0
3700,38104,0
3528,38133,0
3464,38080,0
3352,38100,0
3364,38128,0
3292,38098,0
3320,38121,0
3464,38094,0
3584,38103,0
3696,38116,0
3864,38098,0
3952,38127,0
4068,38104,0
4048,38120,0
4074,38092,0
4076,38099,0
4048,38118,0
4048,38105,0
3930,38128,0
3768,38115,0
3616,38109,0
3504,38074,0
3416,38103,0
3352,38088,0
3320,38092,0
3312,38091,0
3344,38117,0
3392,38089,0
3544,38124,0
3672,38092,0
3839,38098,0
3896,38111,0
4064,38089,0
4064,38117,0
4095,38098,0
4032,38123,0
4064,38089,0
3944,38091,0
3840,38108,0
3728,38093,0
3684,38116,0
3568,38105,0
3482,38114,0
3412,38091,0
3368,38091,0
3330,38114,0
3392,38104,0
3450,38111,0
3572,38082,0
3752,38090,0
3874,38119,0
3920,38095,0
3986,38095,0
4040,38099,0
4060,38111,0
4048,38097,0
4008,38077,0
3944,38083,0
3848,38108,0
3728,38086,0
3612,38112,0
3504,38093,0
3432,38115,0
3344,38068,0
3352,38086,0
3296,38109,0
3376,38083,0
3416,38113,0
3560,38084,0
3636,38097,0
3760,38075,0
3864,38074,0
4048,38101,0
4095,38075,0
4095,38098,0
4095,38073,0
4075,38073,0
3956,38104,0
3840,38072,0
3720,38103,0
3604,38087,0
3536,38092,0
3448,38070,0
3320,38090,0
3312,38090,0
3272,38076,0
3312,38067,0
3396,38067,0
3642,38074,0
3632,38090,0
3764,38053,0
3856,38074,0
3952,38086,0
4016,38061,0
4079,38085,0
4016,38071,0
4044,38089,0
3888,38067,0
3832,38056,0
3664,38086,0
3568,38068,0
3400,38098,0
3316,38050,0
3232,38063,0
3298,38089,0
3267,38065,0
3320,38084,0
3400,38069,0
3508,38068,0
3596,38079,0
3716,38066,0
3825,38085,0
3914,38068,0
4032,38082,0
4064,38057,0
3968,38079,0
3908,38064,0
3808,38088,0
3722,38060,0
3560,38068,0
3424,38094,0
3316,38055,0
3224,38065,0
3168,38094,0
3132,38066,0
3144,38090,0
3207,38064,0
3280,38069,0
3448,38083,0
3520,38063,0
3696,38081,0
3752,38075,0
3904,38088,0
3896,38053,0
3920,38061,0
3924,38086,0
3936,38064,0
3828,38083,0
3698,38062,0
3604,38093,0
3456,38056,0
3264,38073,0
3176,38088,0
3104,38068,0
3068,38102,0
3108,38046,0
3162,38066,0
3212,38076,0
3304,38067,0
3432,38086,0
3552,38083,0
3656,38068,0
3769,38093,0
3816,38062,0
3796,38078,0
3784,38067,0
3720,38080,0
3624,38073,0
3520,38066,0
3352,38099,0
3280,38071,0
3116,38101,0
3070,38057,0
2976,38074,0
2986,38101,0
2992,38070,0
3060,38086,0
3132,38066,0
3312,38085,0
3441,38060,0
3600,38063,0
3692,38088,0
3760,38077,0
3746,38091,0
3778,38065,0
3745,38066,0
3680,38081,0
3632,38065,0
3480,38078,0
3312,38095,0
3144,38082,0
3024,38065,0
2952,38056,0
2896,38083,0
2853,38066,0
2866,38095,0
2952,38043,0
3044,38071,0
3176,38085,0
3268,38070,0
3418,38083,0
3480,38061,0
3624,38070,0
3596,38083,0
3656,38077,0
3568,38092,0
3560,38074,0
3408,38098,0
3264,38057,0
3128,38059,0
3060,38094,0
2938,38064,0
2856,38091,0
2824,38074,0
2772,38074,0
2768,38078,0
2872,38076,0
2948,38090,0
3076,38077,0
3248,38092,0
3376,38057,0
3400,38075,0
3464,38109,0
3504,38084,0
3528,38073,0
3480,38076,0
3384,38089,0
3264,38059,0
3128,38078,0
2992,38089,0
2856,38071,0
2744,38083,0
2681,38087,0
2624,38087,0
2644,38071,0
2624,38068,0
2724,38095,0
2808,38074,0
2960,38097,0
3052,38073,0
3168,38079,0
3260,38081,0
3408,38075,0
3448,38085,0
3464,38076,0
3412,38100,0
3370,38061,0
3176,38071,0
3044,38099,0
2908,38075,0
2776,38090,0
2696,38090,0
2548,38075,0
2537,38092,0
2536,38077,0
2640,38104,0
2728,38068,0
2840,38105,0
2960,38087,0
3068,38100,0
3172,38074,0
3250,38084,0
3268,38091,0
3289,38085,0
3236,38097,0
3184,38079,0
3024,38102,0
2920,38067,0
2737,38077,0
2632,38101,0
2496,38078,0
2424,38103,0
2416,38081,0
2413,38102,0
2441,38070,0
2528,38079,0
2632,38103,0
2771,38088,0
2864,38097,0
2980,38061,0
3089,38076,0
3168,38097,0
3256,38078,0
3256,38090,0
3112,38086,0
3024,38088,0
2904,38078,0
2762,38092,0
2632,38089,0
2496,38071,0
2400,38093,0
2338,38081,0
2280,38093,0
2270,38064,0
2308,38078,0
2406,38095,0
2496,38081,0
2656,38100,0
2768,38067,0
2900,38075,0
2968,38097,0
3064,38079,0
3064,38091,0
3040,38080,0
2992,38100,0
2948,38072,0
2818,38077,0
2688,38102,0
2537,38091,0
2408,38109,0
2264,38079,0
2195,38087,0
2154,38084,0
2157,38077,0
2224,38112,0
2320,38081,0
2386,38086,0
2548,38078,0
2648,38095,0
2776,38076,0
2872,38100,0
2936,38101,0
2961,38066,0
2962,38090,0
2920,38096,0
2844,38086,0
2720,38111,0
2583,38095,0
2440,38100,0
2320,38066,0
2172,38087,0
2112,38111,0
2046,38087,0
2064,38117,0
2112,38083,0
2172,38100,0
2280,38096,0
2449,38098,0
2580,38111,0
2704,38090,0
2796,38107,0
2858,38086,0
2848,38101,0
2845,38106,0
2789,38090,0
2688,38115,0
2592,38097,0
2468,38118,0
2304,38110,0
2164,38095,0
2058,38098,0
1992,38115,0
1960,38066,0
1960,38102,0
2024,38116,0
2128,38078,0
2216,38106,0
2346,38121,0
2466,38088,0
2585,38116,0
2664,38096,0
2768,38112,0
2724,38089,0
2752,38107,0
2634,38127,0
2568,38096,0
2416,38113,0
2276,38103,0
2132,38103,0
2038,38114,0
1958,38105,0
1905,38115,0
1861,38110,0
1869,38121,0
1912,38088,0
2017,38105,0
2179,38133,0
2282,38112,0
2440,38131,0
2552,38097,0
2596,38096,0
2648,38121,0
2672,38111,0
2656,38114,0
2584,38120,0
2473,38107,0
2338,38128,0
2192,38116,0
2056,38129,0
1917,38101,0
1848,38102,0
1782,38133,0
1734,38116,0
1760,38137,0
1816,38116,0
1920,38137,0
2024,38101,0
2168,38113,0
2312,38144,0
2400,38122,0
2488,38132,0
2584,38115,0
2612,38126,0
2586,38123,0
2518,38115,0
2408,38133,0
2252,38116,0
1641,38147,0
2016,38110,0
1869,38124,0
1800,38126,0
1744,38113,0
1696,38133,0
1704,38141,0
1800,38111,0
1884,38133,0
1989,38116,0
2104,38135,0
2233,38106,0
2336,38110,0
2402,38129,0
2448,38120,0
2464,38140,0
2450,38116,0
2368,38150,0
2296,38100,0
2120,38119,0
2016,38133,0
1872,38123,0
1780,38134,0
1648,38113,0
1600,38138,0
1572,38098,0
1620,38120,0
1688,38143,0
1796,38124,0
1922,38138,0
2066,38121,0
2172,38132,0
2305,38117,0
2357,38114,0
2456,38138,0
2464,38123,0
2457,38140,0
2324,38113,0
2220,38135,0
2080,38112,0
1940,38137,0
1802,38116,0
1700,38121,0
1616,38131,0
1557,38116,0
1546,38117,0
1557,38140,0
1640,38126,0
1738,38150,0
1844,38112,0
1992,38115,0
2084,38128,0
2216,38127,0
2268,38135,0
2336,38118,0
2360,38135,0
2296,38112,0
2220,38119,0
2156,38141,0
2009,38114,0
1861,38146,0
1720,38107,0
1616,38118,0
1520,38139,0
1473,38120,0
1461,38136,0
1506,38125,0
1570,38134,0
1684,38120,0
1802,38127,0
1946,38113,0
2060,38118,0
2160,38109,0
2244,38148,0
2320,38101,0
2304,38109,0
2276,38125,0
2236,38122,0
2090,38136,0
1952,38121,0
1832,38134,0
1680,38099,0
1585,38111,0
1484,38124,0
1448,38115,0
1429,38126,0
1464,38100,0
1530,38107,0
1656,38122,0
1785,38107,0
1962,38130,0
2100,38115,0
2224,38131,0
2312,38088,0
2356,38101,0
2352,38130,0
2313,38105,0
2228,38123,0
2112,38103,0
2002,38118,0
1857,38097,0
1689,38087,0
1594,38124,0
1500,38119,0
1440,38129,0
1452,38118,0
1448,38098,0
1520,38123,0
1634,38096,0
1752,38116,0
1873,38087,0
2004,38105,0
2111,38123,0
2172,38105,0
2240,38123,0
2228,38095,0
2216,38100,0
2112,38121,0
2020,38106,0
1888,38122,0
1744,38108,0
1632,38122,0
1509,38082,0
1458,38098,0
1410,38113,0
1412,38100,0
1444,38113,0
1528,38098,0
1148,38100,0
1772,38107,0
1896,38101,0
2028,38115,0
2152,38098,0
2180,38105,0
2176,38105,0
2113,38094,0
2016,38088,0
1898,38089,0
1760,38102,0
1616,38096,0
1488,38114,0
1424,38103,0
1328,38124,0
1306,38090,0
1297,38101,0
1349,38118,0
1436,38098,0
1588,38125,0
1696,38089,0
1848,38109,0
2000,38100,0
2047,38100,0
2148,38118,0
2184,38098,0
2176,38122,0
2131,38096,0
2028,38096,0
1896,38122,0
1740,38097,0
1608,38123,0
1480,38103,0
1406,38118,0
1321,38087,0
1282,38101,0
1270,38095,0
1356,38119,0
1420,38105,0
1546,38098,0
1680,38117,0
1812,38095,0
1976,38109,0
2041,38098,0
2104,38125,0
2140,38102,0
2144,38124,0
2100,38094,0
1992,38097,0
1880,38130,0
1744,38106,0
1602,38109,0
1464,38102,0
1376,38119,0
1304,38104,0
1264,38100,0
1258,38129,0
1352,38114,0
1416,38117,0
1552,38097,0
1680,38095,0
1814,38125,0
1922,38098,0
2020,38127,0
2072,38103,0
2102,38116,0
2120,38095,0
2064,38097,0
1912,38095,0
1818,38126,0
1660,38118,0
1516,38114,0
1418,38105,0
1309,38119,0
1252,38103,0
1216,38111,0
1232,38089,0
1276,38094,0
1372,38119,0
1511,38108,0
1632,38123,0
1792,38085,0
1912,38099,0
2024,38115,0
2040,38103,0
2116,38129,0
2056,38102,0
2008,38110,0
1898,38102,0
1824,38098,0
1668,38113,0
1552,38099,0
1387,38118,0
1320,38079,0
1233,38091,0
1213,38116,0
1232,38090,0
1344,38116,0
1413,38101,0
1536,38127,0
1658,38108,0
1776,38117,0
1888,38099,0
1974,38102,0
2016,38120,0
2029,38104,0
2008,38099,0
1912,38115,0
1812,38098,0
1654,38126,0
1533,38089,0
1384,38102,0
1256,38113,0
1178,38096,0
1113,38121,0
1096,38092,0
1128,38103,0
1173,38112,0
1269,38092,0
1385,38117,0
1504,38103,0
1648,38111,0
1732,38084,0
1806,38087,0
1852,38116,0
1864,38099,0
1844,38117,0
1772,38092,0
1690,38103,0
1600,38098,0
1520,38094,0
1461,38116,0
1428,38085,0
1426,38107,0
1460,38094,0
1552,38093,0
1664,38101,0
1808,38114,0
1978,38088,0
2168,38116,0
2337,38100,0
2484,38121,0
2608,38080,0
2704,38088,0
2752,38117,0
2760,38094,0
2672,38105,0
2592,38102,0
2418,38111,0
2264,38081,0
2080,38095,0
1908,38111,0
1784,38104,0
1664,38119,0
1564,38101,0
1508,38111,0
1504,38089,0
1572,38095,0
1656,38125,0
1796,38107,0
1945,38123,0
2154,38093,0
2232,38111,0
2325,38105,0
2352,38089,0
2372,38113,0
2330,38122,0
2252,38092,0
2136,38101,0
1994,38096,0
1868,38120,0
1720,38106,0
1584,38141,0
1484,38099,0
1416,38107,0
1383,38117,0
1378,38102,0
1444,38119,0
1526,38110,0
1650,38127,0
1750,38092,0
1888,38118,0
1968,38133,0
2040,38109,0
2096,38130,0
2100,38112,0
2076,38121,0
1974,38129,0
1844,38109,0
1688,38127,0
1523,38107,0
1384,38133,0
1256,38091,0
1170,38110,0
1136,38137,0
1112,38122,0
1172,38136,0
1200,38115,0
1314,38117,0
1450,38110,0
1584,38121,0
1714,38109,0
1832,38134,0
1906,38121,0
1952,38139,0
1968,38096,0
1932,38104,0
1860,38137,0
1730,38121,0
1632,38137,0
1444,38123,0
1336,38134,0
1234,38105,0
1152,38111,0
1084,38137,0
1100,38116,0
1112,38137,0
1205,38095,0
1321,38105,0
1473,38130,0
1622,38123,0
1782,38131,0
1846,38112,0
1930,38118,0
2000,38087,0
1978,38107,0
1984,38136,0
1884,38116,0
1728,38106,0
1588,38113,0
1456,38122,0
1330,38121,0
1212,38141,0
1133,38112,0
1106,38135,0
1077,38114,0
1142,38125,0
1197,38113,0
1322,38116,0
1467,38119,0
1588,38115,0
1748,38129,0
1840,38116,0
1908,38134,0
1952,38092,0
1961,38105,0
1912,38139,0
1828,38117,0
1716,38129,0
1592,38094,0
1453,38105,0
1315,38110,0
1233,38104,0
1154,38124,0
1112,38110,0
623,38133,0
1152,38098,0
1254,38100,0
1370,38126,0
1513,38109,0
1632,38117,0
1760,38113,0
1858,38123,0
1926,38111,0
1986,38122,0
1954,38106,0
1898,38133,0
1794,38106,0
1696,38132,0
1538,38092,0
1404,38108,0
1293,38136,0
1184,38099,0
1124,38130,0
1100,38103,0
1120,38131,0
1148,38099,0
1248,38109,0
1398,38132,0
1516,38115,0
1665,38134,0
1813,38103,0
1914,38111,0
1992,38130,0
2041,38111,0
2034,38130,0
1946,38111,0
1844,38134,0
1716,38105,0
1563,38111,0
1428,38136,0
1200,38133,0
1134,38108,0
1108,38115,0
1112,38109,0
1176,38114,0
1274,38109,0
1404,38123,0
1544,38113,0
1680,38121,0
1804,38093,0
1900,38108,0
1972,38121,0
2000,38113,0
2008,38128,0
1928,38107,0
1840,38121,0
1728,38128,0
1556,38106,0
1444,38134,0
1328,38113,0
1228,38132,0
1152,38094,0
1117,38115,0
1128,38127,0
1187,38106,0
1305,38136,0
1418,38092,0
1557,38108,0
1720,38120,0
1832,38111,0
1948,38133,0
2016,38112,0
2032,38103,0
2004,38114,0
1956,38134,0
1846,38118,0
1724,38114,0
1584,38109,0
1456,38126,0
1326,38102,0
1258,38107,0
1186,38133,0
1160,38109,0
1193,38133,0
1256,38115,0
1344,38123,0
1468,38094,0
1612,38106,0
1768,38131,0
1872,38108,0
1956,38130,0
2008,38109,0
2112,38140,0
2048,38091,0
1980,38102,0
1869,38139,0
1736,38114,0
1628,38126,0
1454,38104,0
1336,38104,0
1242,38120,0
1188,38100,0
1188,38119,0
1213,38114,0
1280,38103,0
1368,38095,0
1496,38115,0
1648,38109,0
1778,38116,0
1896,38099,0
2008,38121,0
2032,38089,0
2088,38102,0
2043,38120,0
1972,38099,0
1869,38102,0
1760,38087,0
1618,38096,0
1506,38087,0
1368,38078,0
1268,38101,0
1224,38087,0
1200,38107,0
1228,38068,0
1296,38080,0
1413,38094,0
1560,38073,0
1696,38099,0
1833,38087,0
1954,38093,0
2053,38064,0
2076,38064,0
2088,38103,0
2060,38082,0
2008,38092,0
1900,38059,0
1737,38051,0
1857,38027,0
1974,38054,0
2054,38020,0
2084,38036,0
2104,38013,0
2052,38029,0
1986,38014,0
1834,38008,0
1697,38034,0
1547,38012,0
1410,38031,0
1285,37993,0
1213,38004,0
1160,38029,0
1152,38007,0
1172,38023,0
1250,37993,0
1370,37988,0
1518,38020,0
1654,37997,0
1774,38006,0
1881,37995,0
1977,38005,0
2026,37989,0
2001,37987,0
1960,38003,0
1856,37987,0
1737,38014,0
1584,37966,0
1442,37976,0
1296,37998,0
1185,37974,0
1092,37976,0
1048,37976,0
1026,37976,0
1078,37976,0
1148,38012,0
1308,38012,0
1398,38012,0
1535,38012,0
1668,38012,0
1772,38012,0
1832,38012,0
1908,37993,0
1876,37993,0
1848,37993,0
1732,37993,0
1632,37993,0
1473,37993,0
1360,37993,0
1204,37979,0
1088,37979,0
1001,37979,0
961,37979,0
974,37979,0
984,37979,0
1064,37979,0
1190,37929,0
1328,37963,0
1472,37963,0
1628,37963,0
1718,37963,0
1785,37963,0
1850,37963,0
1790,37939,0
1744,37929,0
1632,37941,0
1506,37922,0
1370,37925,0
1186,37919,0
1056,37919,0
930,37930,0
840,37924,0
797,37935,0
788,37912,0
817,37914,0
902,37942,0
1024,37919,0
1164,37931,0
1304,37922,0
1428,37941,0
1540,37894,0
1593,37907,0
1626,37934,0
1656,37911,0
1632,37924,0
1492,37899,0
1361,37915,0
1205,37918,0
1060,37897,0
926,37922,0
823,37906,0
816,37910,0
929,37929,0
1073,37921,0
1200,37911,0
1316,37898,0
1428,37930,0
1476,37903,0
1504,37917,0
1488,37902,0
1448,37900,0
1324,37890,0
1200,37896,0
1042,37917,0
922,37888,0
770,37916,0
664,37888,0
598,37903,0
557,37898,0
560,37889,0
595,37923,0
689,37900,0
810,37915,0
957,37875,0
1089,37894,0
1201,37902,0
1304,37896,0
1368,37913,0
1416,37899,0
1371,37899,0
1318,37878,0
1220,37890,0
1064,37909,0
912,37891,0
770,37893,0
648,37883,0
534,37894,0
489,37891,0
436,37904,0
430,37886,0
486,37875,0
598,37895,0
732,37879,0
851,37899,0
992,37886,0
1100,37892,0
1200,37852,0
1274,37871,0
1308,37899,0
1272,37872,0
1209,37894,0
1100,37869,0
972,37890,0
816,37849,0
664,37872,0
546,37895,0
436,37872,0
364,37894,0
357,37853,0
378,37860,0
400,37877,0
501,37861,0
637,37880,0
801,37867,0
1040,37863,0
1130,37874,0
1196,37870,0
1217,37871,0
1236,37872,0
1154,37865,0
1023,37884,0
884,37843,0
736,37855,0
586,37878,0
452,37858,0
378,37875,0
285,37864,0
248,37884,0
262,37837,0
333,37855,0
418,37881,0
561,37858,0
708,37876,0
840,37870,0
964,37867,0
1081,37855,0
1130,37854,0
1148,37880,0
1122,37854,0
1074,37880,0
945,37847,0
803,37863,0
653,37859,0
500,37863,0
368,37885,0
270,37871,0
238,37867,0
204,37876,0
226,37871,0
289,37869,0
418,37873,0
530,37860,0
673,37884,0
837,37863,0
932,37893,0
1022,37867,0
1072,37874,0
1086,37867,0
1052,37868,0
988,37888,0
884,37866,0
744,37892,0
593,37852,0
456,37868,0
327,37893,0
248,37864,0
148,37880,0
141,37874,0
144,37873,0
213,37852,0
337,37867,0
483,37890,0
646,37875,0
770,37889,0
901,37850,0
990,37868,0
1049,37867,0
1081,37860,0
1040,37867,0
965,37870,0
849,37876,0
701,37863,0
552,37870,0
416,37867,0
290,37856,0
234,37859,0
149,37881,0
130,37853,0
151,37875,0
224,37863,0
328,37865,0
456,37853,0
598,37855,0
730,37878,0
850,37846,0
946,37884,0
992,37845,0
1007,37861,0
977,37857,0
905,37849,0
784,37874,0
652,37858,0
496,37875,0
379,37835,0
261,37852,0
183,37870,0
128,37843,0
106,37869,0
132,37853,0
200,37850,0
337,37858,0
460,37851,0
606,37854,0
741,37861,0
845,37866,0
942,37863,0
1000,37854,0
1008,37873,0
992,37854,0
880,37877,0
770,37833,0
630,37855,0
492,37876,0
354,37852,0
234,37870,0
169,37852,0
122,37862,0
80,37855,0
134,37849,0
194,37876,0
314,37861,0
456,37874,0
608,37850,0
739,37856,0
853,37872,0
938,37860,0
986,37869,0
1009,37870,0
963,37880,0
876,37842,0
750,37850,0
636,37882,0
474,37842,0
361,37880,0
226,37859,0
147,37860,0
110,37874,0
104,37862,0
146,37870,0
236,37859,0
361,37856,0
480,37879,0
604,37864,0
777,37880,0
905,37856,0
980,37875,0
1026,37842,0
1033,37862,0
992,37883,0
901,37877,0
777,37882,0
657,37860,0
499,37876,0
341,37862,0
224,37859,0
149,37872,0
109,37870,0
92,37894,0
142,37850,0
250,37860,0
361,37880,0
516,37856,0
656,37883,0
787,37855,0
900,37872,0
970,37876,0
1021,37850,0
1050,37877,0
992,37875,0
894,37867,0
780,37883,0
672,37861,0
514,37884,0
377,37858,0
282,37860,0
202,37881,0
166,37870,0
193,37878,0
226,37874,0
308,37883,0
429,37858,0
580,37858,0
737,37884,0
848,37873,0
949,37889,0
1036,37867,0
1076,37882,0
1078,37872,0
1032,37870,0
932,37901,0
810,37886,0
688,37902,0
537,37862,0
402,37876,0
311,37899,0
218,37877,0
216,37911,0
198,37891,0
257,37876,0
358,37893,0
478,37902,0
648,37882,0
786,37873,0
858,37898,0
986,37904,0
1056,37893,0
1092,37907,0
1088,37881,0
1040,37885,0
932,37903,0
813,37888,0
674,37891,0
544,37883,0
414,37916,0
328,37876,0
297,37890,0
216,37910,0
235,37891,0
293,37907,0
416,37888,0
548,37888,0
697,37897,0
846,37896,0
984,37920,0
1072,37895,0
1136,37921,0
1164,37897,0
1156,37884,0
1098,37914,0
1051,37921,0
861,37926,0
724,37888,0
583,37910,0
480,37916,0
388,37899,0
320,37916,0
292,37905,0
340,37923,0
384,37875,0
482,37903,0
626,37926,0
762,37903,0
932,37918,0
1056,37892,0
1125,37906,0
1184,37918,0
1220,37906,0
1202,37923,0
1140,37900,0
1024,37928,0
896,37895,0
746,37907,0
606,37920,0
480,37901,0
400,37927,0
336,37912,0
310,37920,0
320,37889,0
382,37909,0
488,37926,0
650,37915,0
800,37918,0
948,37905,0
1074,37911,0
1186,37913,0
1233,37925,0
1266,37906,0
1253,37935,0
1206,37891,0
1088,37907,0
961,37920,0
821,37915,0
678,37936,0
563,37911,0
486,37932,0
409,37897,0
389,37905,0
410,37945,0
488,37916,0
600,37933,0
725,37908,0
875,37920,0
1024,37902,0
1145,37927,0
1236,37939,0
1302,37914,0
1324,37942,0
1278,37909,0
1267,37921,0
1125,37932,0
1000,37913,0
728,37935,0
615,37935,0
540,37914,0
522,37921,0
478,37905,0
507,37938,0
579,37910,0
697,37914,0
830,37927,0
976,37920,0
1120,37939,0
1233,37924,0
1330,37943,0
1373,37918,0
1386,37926,0
1360,37931,0
1284,37922,0
1164,37936,0
1032,37931,0
890,37926,0
752,37903,0
642,37917,0
556,37944,0
500,37918,0
508,37947,0
520,37924,0
618,37939,0
747,37909,0
880,37919,0
1035,37940,0
1176,37926,0
1305,37946,0
1389,37935,0
1433,37923,0
1452,37914,0
1432,37926,0
1368,37929,0
1250,37944,0
1108,37920,0
994,37930,0
868,37939,0
736,37926,0
648,37938,0
608,37927,0
600,37947,0
640,37923,0
724,37922,0
852,37929,0
994,37925,0
1156,37955,0
1286,37930,0
1392,37954,0
1528,37933,0
1592,37934,0
1572,37945,0
1528,37931,0
1448,37968,0
1322,37938,0
1205,37956,0
1031,37921,0
869,37940,0
784,37950,0
688,37928,0
652,37956,0
643,37960,0
682,37951,0
766,37934,0
898,37943,0
1029,37938,0
1186,37952,0
1317,37923,0
1440,37936,0
1522,37932,0
1580,37929,0
1600,37960,0
1557,37926,0
1480,37964,0
1353,37934,0
1226,37945,0
1088,37937,0
956,37941,0
854,37960,0
779,37949,0
740,37965,0
728,37945,0
778,37942,0
882,37950,0
1008,37933,0
1168,37962,0
1322,37935,0
1462,37964,0
1569,37928,0
1634,37948,0
1698,37964,0
1712,37941,0
1660,37963,0
1556,37930,0
1441,37946,0
1290,37955,0
1148,37965,0
1020,37936,0
936,37948,0
840,37936,0
809,37931,0
784,37954,0
832,37944,0
922,37969,0
1056,37926,0
1196,37935,0
1348,37948,0
1482,37937,0
1596,37952,0
1664,37940,0
1700,37969,0
1738,37927,0
1672,37944,0
1624,37957,0
1472,37938,0
1316,37962,0
1181,37948,0
1041,37959,0
948,37927,0
877,37939,0
849,37957,0
860,37940,0
916,37957,0
1024,37941,0
1152,37946,0
1298,37952,0
1448,37953,0
1594,37962,0
1688,37942,0
1764,37958,0
1796,37940,0
1796,37964,0
1752,37932,0
1648,37967,0
1556,37905,0
1384,37935,0
1240,37959,0
1120,37942,0
1036,37964,0
957,37940,0
924,37963,0
930,37926,0
1016,37940,0
1112,37972,0
1243,37945,0
1401,37951,0
1556,37941,0
1689,37935,0
1806,37949,0
1880,37942,0
1928,37957,0
1900,37938,0
1856,37965,0
1758,37930,0
1636,37941,0
1504,37961,0
1409,37952,0
1253,37956,0
1168,37951,0
1116,37934,0
1078,37944,0
1116,37956,0
1180,37939,0
1296,37948,0
1436,37936,0
1569,37943,0
1722,37965,0
1824,37950,0
1912,37967,0
2024,37921,0
1984,37926,0
1952,37965,0
1896,37950,0
1793,37963,0
1648,37947,0
1512,37963,0
1368,37921,0
1254,37936,0
1170,37966,0
1120,37941,0
1085,37965,0
1104,37944,0
1176,37953,0
1288,37942,0
1427,37949,0
1581,37970,0
1723,37948,0
1868,37966,0
1965,37927,0
2000,37955,0
2020,37972,0
2016,37953,0
1950,37967,0
1840,37956,0
1701,37970,0
1554,37942,0
1414,37947,0
1288,37960,0
1202,37948,0
1156,37974,0
1135,37963,0
1150,37977,0
1232,37946,0
1364,37950,0
1506,37962,0
1640,37954,0
1800,37976,0
1910,37951,0
2008,37972,0
2064,37932,0
2132,37949,0
2096,37969,0
2028,37955,0
1909,37976,0
1788,37955,0
1610,37957,0
1473,37938,0
1348,37946,0
1261,37973,0
1200,37958,0
1184,37975,0
1248,37968,0
1289,37959,0
1402,37964,0
1528,37940,0
1680,37963,0
1820,37952,0
1948,37964,0
2044,37955,0
2105,37973,0
2128,37957,0
2112,37977,0
2052,37952,0
1940,37944,0
1816,37972,0
1676,37963,0
1520,37992,0
1398,37954,0
1314,37964,0
1257,37979,0
1248,37965,0
1274,37979,0
1357,37965,0
1480,37980,0
1622,37952,0
1772,37963,0
1945,37989,0
2016,37958,0
2128,37979,0
2177,37962,0
2202,37984,0
2184,37947,0
2113,37955,0
1954,37964,0
1824,37969,0
1714,37987,0
1546,37986,0
1440,37988,0
1370,37965,0
1336,37985,0
1323,37952,0
1354,37965,0
1452,37991,0
1554,37974,0
1706,37993,0
1860,37972,0
2024,37996,0
2116,37967,0
2226,37967,0
2248,37999,0
2280,37971,0
2232,37990,0
2184,37966,0
2040,37987,0
1940,37974,0
1793,37972,0
1653,37987,0
1529,37976,0
1453,38002,0
1389,37966,0
1378,37976,0
1413,37986,0
1497,37983,0
1637,37998,0
1904,38014,0
2024,37995,0
2144,37978,0
2220,37999,0
2256,37988,0
2272,37992,0
2240,37988,0
2152,38010,0
2036,37990,0
1908,38014,0
1748,37974,0
1634,37979,0
1508,38003,0
1428,37986,0
1409,38005,0
1360,37986,0
1396,37990,0
1488,37984,0
1577,37980,0
1716,37994,0
1906,37984,0
2027,38012,0
2176,37970,0
2224,37986,0
2265,38018,0
2266,37981,0
2192,38010,0
2128,37995,0
1952,38018,0
1814,37977,0
1653,37992,0
1531,38003,0
1396,38014,0
1324,37997,0
1316,38006,0
1336,37999,0
1448,38007,0
1600,38013,0
1804,37992,0
2046,37992,0
2300,38009,0
2508,38003,0
2756,38012,0
2896,37998,0
3000,38018,0
3112,37991,0
3068,38004,0
3048,38014,0
2904,37993,0
2804,38022,0
2624,38001,0
2520,38028,0
2352,37976,0
2292,37998,0
2221,38022,0
2185,37998,0
2194,38021,0
2261,38007,0
2328,38025,0
2458,37984,0
2544,37998,0
2632,38024,0
2736,38007,0
2790,38025,0
2744,38005,0
2744,38014,0
2696,38007,0
2608,38014,0
2488,38037,0
2360,38014,0
2256,38024,0
2122,37999,0
2024,38013,0
1960,38033,0
1936,38010,0
1948,38043,0
1980,37997,0
2100,38008,0
2194,38024,0
2340,38011,0
2448,38038,0
2584,38009,0
2640,38026,0
2688,38001,0
2720,38008,0
2752,38024,0
2666,38005,0
2550,38040,0
2401,38012,0
2240,38031,0
2076,37995,0
1936,38004,0
1827,38037,0
1740,38013,0
1728,38026,0
1717,38013,0
1744,37978,0
1872,38031,0
1960,38011,0
2104,38015,0
2240,38022,0
2360,38026,0
2484,38001,0
2516,38017,0
2552,38024,0
2544,38014,0
2500,38033,0
2402,38017,0
2240,38038,0
2168,37999,0
1976,38016,0
1872,38037,0
1770,38023,0
1756,38036,0
1696,38023,0
1716,38044,0
1780,37999,0
1904,38009,0
2072,38038,0
2192,38023,0
2342,38030,0
2464,38011,0
2532,38022,0
2682,38006,0
2617,38013,0
2608,38036,0
2576,38019,0
2464,38042,0
2288,38034,0
2142,38006,0
2004,38012,0
1892,38044,0
1808,38013,0
1752,38025,0
1716,38016,0
1740,38017,0
1794,38043,0
1948,38021,0
2056,38041,0
2218,38012,0
2344,38017,0
2504,38026,0
2568,38018,0
2648,38048,0
2656,38017,0
2618,38039,0
2568,38014,0
2465,38014,0
2328,38024,0
2224,38015,0
2082,38034,0
1952,38034,0
1864,38051,0
1796,38008,0
1776,38026,0
1788,38044,0
1841,38023,0
1966,38039,0
2128,38027,0
2272,38034,0
2368,38056,0
2484,38030,0
2616,38036,0
2648,38046,0
2673,38042,0
2665,38031,0
2600,38041,0
2488,38005,0
2356,38021,0
2252,38049,0
2080,38033,0
1984,38050,0
1878,38029,0
1848,38038,0
1828,38035,0
1876,38039,0
1932,38046,0
2046,38034,0
2168,38068,0
2312,38028,0
2472,38036,0
2632,38065,0
2724,38047,0
2778,38056,0
2800,38043,0
2816,38059,0
2672,38029,0
2555,38032,0
2418,38059,0
2278,38051,0
2160,38074,0
2040,38045,0
1924,38044,0
1872,38047,0
1872,38049,0
1900,38042,0
2008,38051,0
2130,38066,0
2240,38041,0
2396,38056,0
2536,38028,0
2656,38045,0
2756,38072,0
2811,38038,0
2820,38070,0
2840,38032,0
2720,38032,0
2644,38069,0
2488,38046,0
2360,38062,0
2216,38042,0
2108,38065,0
2010,38028,0
1992,38039,0
1974,38065,0
2008,38046,0
2085,38072,0
2208,38044,0
2308,38067,0
2464,38030,0
2585,38037,0
2717,38063,0
2816,38047,0
2864,38065,0
2824,38026,0
2796,38047,0
2728,38063,0
2608,38056,0
2472,38067,0
2337,38042,0
2250,38063,0
2116,38037,0
2024,38045,0
2008,38066,0
2004,38053,0
2052,38067,0
2128,38042,0
2280,38063,0
2388,38053,0
2548,38054,0
2668,38068,0
2800,38058,0
2840,38078,0
2904,38040,0
2912,38052,0
2928,38065,0
2843,38056,0
2721,38065,0
2592,38052,0
2448,38065,0
2293,38032,0
2192,38047,0
2108,38074,0
2104,38060,0
2084,38070,0
2136,38060,0
2176,38064,0
2303,38057,0
2448,38035,0
2588,38065,0
2728,38043,0
2841,38079,0
2912,38058,0
2976,38074,0
2996,38042,0
2936,38055,0
2856,38061,0
2760,38049,0
2600,38064,0
2522,38044,0
2336,38068,0
2260,38017,0
2168,38038,0
2148,38046,0
2132,38047,0
2184,38064,0
2265,38036,0
2448,38060,0
2592,38033,0
2725,38034,0
2868,38064,0
2980,38035,0
3024,38057,0
3082,38034,0
3084,38043,0
3036,38046,0
2960,38016,0
2648,37997,0
2520,38023,0
2380,38032,0
2272,38025,0
2208,38029,0
2164,38013,0
2176,38039,0
2228,38016,0
2316,38038,0
2440,38012,0
2584,38010,0
2728,38029,0
2840,38018,0
2992,38024,0
3024,37998,0
3088,38016,0
3088,38026,0
3088,38001,0
2928,38027,0
2820,38004,0
2728,38023,0
2596,37991,0
2464,38004,0
2356,38025,0
2296,38000,0
2265,38019,0
2288,37996,0
2310,38008,0
2396,37982,0
2528,37993,0
2704,38015,0
2836,37990,0
2898,37997,0
3004,37998,0
3060,37991,0
3096,37998,0
3088,37968,0
3016,38004,0
2928,37986,0
2792,38010,0
2644,37959,0
2501,37973,0
2400,38003,0
2299,37979,0
2212,38009,0
2216,37963,0
2184,37971,0
2296,37981,0
2340,37971,0
2496,37974,0
2624,37977,0
2752,37987,0
2888,37959,0
3032,37974,0
3084,37983,0
3104,37977,0
3093,37996,0
3024,37954,0
2892,37963,0
2768,37996,0
2620,37966,0
2480,37986,0
2372,37963,0
2264,37975,0
2160,37982,0
2162,37989,0
2144,37965,0
2204,37963,0
2312,37979,0
2448,37953,0
2572,37982,0
2712,37934,0
2814,37962,0
2908,37969,0
3000,37951,0
3012,37975,0
3000,37959,0
2960,37978,0
2804,37936,0
2696,37945,0
2536,37967,0
2392,37950,0
2248,37972,0
2160,37938,0
2098,37958,0
2120,37974,0
2156,37948,0
2196,37964,0
2304,37949,0
2444,37962,0
2554,37943,0
2696,37934,0
2820,37958,0
2912,37945,0
3008,37970,0
3024,37927,0
2960,37950,0
2892,37957,0
2824,37954,0
2656,37947,0
2514,37969,0
2384,37971,0
2264,37945,0
2176,37959,0
2124,37945,0
2104,37941,0
2116,37945,0
2190,37930,0
2284,37958,0
2440,37944,0
2548,37951,0
2704,37923,0
2788,37940,0
2896,37950,0
2928,37943,0
2952,37954,0
2936,37939,0
2937,37954,0
2820,37922,0
2689,37939,0
2544,37953,0
2424,37933,0
2268,37955,0
2177,37933,0
2120,37940,0
2104,37916,0
2144,37929,0
2216,37961,0
2300,37944,0
2408,37928,0
2552,37919,0
2680,37957,0
2792,37952,0
2880,37960,0
2932,37916,0
2956,37924,0
2944,37945,0
2876,37930,0
2772,37949,0
2651,37922,0
2508,37943,0
2400,37917,0
2252,37922,0
2208,37954,0
2120,37929,0
2120,37947,0
2121,37920,0
2180,37929,0
2284,37937,0
2450,37925,0
2592,37949,0
2720,37926,0
2837,37952,0
2936,37908,0
2944,37915,0
2954,37943,0
2931,37920,0
2856,37957,0
2788,37924,0
2658,37937,0
2472,37954,0
2352,37934,0
2240,37927,0
2160,37932,0
2120,37930,0
2104,37954,0
2136,37927,0
2212,37940,0
2328,37922,0
2456,37926,0
2592,37955,0
2729,37929,0
2832,37951,0
2968,37921,0
2930,37931,0
2976,37934,0
2904,37934,0
2864,37948,0
2714,37933,0
2580,37952,0
2440,37929,0
2354,37942,0
2256,37930,0
2177,37939,0
2136,37944,0
2145,37938,0
2148,37960,0
2237,37923,0
2348,37932,0
2478,37961,0
2644,37930,0
2776,37955,0
2816,37929,0
2892,37958,0
2928,37955,0
2946,37952,0
2888,37950,0
2804,37945,0
2684,37960,0
2558,37925,0
2424,37935,0
2296,37959,0
2200,37944,0
2145,37963,0
2096,37933,0
2116,37945,0
2128,37942,0
2256,37932,0
2392,37960,0
2512,37949,0
2640,37966,0
2768,37923,0
2874,37943,0
3000,37963,0
3034,37943,0
3029,37963,0
2980,37938,0
2885,37949,0
2722,37945,0
2576,37952,0
2428,37969,0
2308,37953,0
2216,37975,0
2138,37940,0
2068,37951,0
2080,37948,0
2120,37977,0
2202,37934,0
2332,37943,0
2474,37942,0
2624,37971,0
2728,37950,0
2864,37960,0
2940,37961,0
2988,37971,0
3005,37939,0
2952,37955,0
2904,37978,0
2736,37959,0
2620,37982,0
2440,37956,0
2344,37963,0
2216,37942,0
2136,37956,0
2106,37983,0
2121,37959,0
2168,37973,0
2260,37957,0
2392,37966,0
2560,37958,0
2666,37958,0
2808,37976,0
2904,37953,0
2956,37971,0
3024,37964,0
3016,37974,0
2914,37950,0
2832,37968,0
2688,37936,0
2546,37965,0
2412,37973,0
2280,37956,0
2184,37975,0
2104,37954,0
2068,37968,0
2076,37945,0
2128,37950,0
2225,37979,0
2370,37969,0
2512,37990,0
2624,37961,0
2776,37957,0
2856,37983,0
2952,37962,0
2969,37971,0
2960,37975,0
2896,37990,0
2882,37949,0
2744,37969,0
2596,37989,0
2454,37968,0
2361,37989,0
2200,37968,0
2168,37987,0
2095,37954,0
2106,37971,0
2177,37994,0
2372,37986,0
2504,37984,0
2664,37996,0
2748,37985,0
2880,37972,0
2936,37950,0
2944,37980,0
2920,37986,0
2888,37970,0
2764,37991,0
2640,37962,0
2522,37977,0
2360,37994,0
2272,37982,0
2148,37998,0
2120,37984,0
2072,37997,0
2096,37952,0
2132,37974,0
2216,37995,0
2400,37981,0
2540,37996,0
2668,37983,0
2784,37997,0
2881,37961,0
2936,37967,0
2928,37996,0
2920,37973,0
2860,38002,0
2764,37980,0
2664,37984,0
2516,37969,0
2360,37986,0
2244,37987,0
2144,37986,0
2120,37975,0
2058,37997,0
2074,37984,0
2164,37989,0
2232,37974,0
2384,38012,0
2522,37987,0
2660,38008,0
2773,37975,0
2844,37980,0
2946,37996,0
2920,37982,0
2960,38003,0
2860,37983,0
2784,38009,0
2610,37963,0
2480,37981,0
2328,38010,0
2260,37983,0
2170,37999,0
2112,37994,0
2074,37992,0
2098,37970,0
2153,37975,0
2242,38009,0
2389,37989,0
2502,38017,0
2680,37983,0
2805,37999,0
2808,38005,0
2877,38005,0
2884,37992,0
2872,37990,0
2808,38024,0
2692,38002,0
2568,38016,0
2436,37985,0
2312,37990,0
2196,38023,0
2128,38009,0
2084,38011,0
2064,37999,0
2114,38003,0
2164,38018,0
2300,37999,0
2424,38024,0
2592,38014,0
2704,38028,0
2804,37990,0
2896,38001,0
2992,38023,0
3008,37994,0
2992,38020,0
2918,38019,0
2801,38034,0
2648,37986,0
2536,38003,0
2371,38026,0
2266,38014,0
2200,38034,0
2153,38015,0
2112,38027,0
2130,38037,0
2200,38013,0
2312,38029,0
2442,38039,0
2578,38040,0
2708,38022,0
2824,38044,0
2940,38014,0
2964,38048,0
2988,38005,0
3018,38025,0
2896,38043,0
2857,38024,0
2656,38045,0
2552,38017,0
2420,38019,0
2300,38032,0
2208,38018,0
2160,38045,0
2144,38018,0
2208,38053,0
2284,38017,0
2404,38036,0
2544,38048,0
2732,38027,0
2804,38053,0
2921,38034,0
3010,38067,0
3074,38015,0
3124,38032,0
3097,38054,0
2968,38068,0
2848,38054,0
2992,38064,0
3128,38046,0
3240,38073,0
3314,38049,0
3368,38074,0
3376,38048,0
3344,38051,0
3264,38087,0
3154,38051,0
3016,38080,0
2898,38065,0
2777,38082,0
2682,38042,0
2624,38066,0
2598,38090,0
2596,38057,0
2652,38091,0
2754,38057,0
2888,38086,0
3046,38043,0
3202,38046,0
3338,38087,0
3460,38056,0
3538,38082,0
3596,38063,0
3544,38056,0
3513,38065,0
3440,38056,0
3322,38091,0
3272,38068,0
3136,38094,0
2928,38068,0
2812,38068,0
2744,38068,0
2720,38068,0
2720,38068,0
2800,38086,0
2874,38086,0
3024,38086,0
3192,38086,0
3336,38086,0
3432,38086,0
3584,38086,0
3616,38055,0
3736,38055,0
3696,38055,0
3696,38055,0
3608,38055,0
3528,38055,0
3330,38055,0
3208,38093,0
3096,38093,0
3064,38093,0
3012,38093,0
2976,38093,0
2986,38093,0
3048,38093,0
3116,38111,0
3241,38072,0
3410,38072,0
3537,38072,0
3720,38072,0
3826,38072,0
3816,38104,0
3868,38104,0
3872,38087,0
3832,38089,0
3784,38127,0
3640,38096,0
3540,38120,0
3388,38084,0
3276,38101,0
3192,38111,0
3138,38105,0
3165,38125,0
3124,38100,0
3224,38112,0
3280,38090,0
3444,38106,0
3544,38120,0
3728,38107,0
3804,38125,0
3920,38110,0
3984,38127,0
4095,38094,0
4095,38090,0
4066,38127,0
4000,38106,0
3874,38126,0
3732,38105,0
3584,38128,0
3308,38121,0
3376,38104,0
3488,38143,0
3612,38130,0
3768,38112,0
3908,38099,0
4044,38108,0
4048,38129,0
4056,38120,0
4084,38122,0
4048,38110,0
4068,38116,0
4024,38104,0
4072,38102,0
3924,38124,0
3848,38117,0
3716,38133,0
3688,38110,0
3680,38123,0
3648,38097,0
3636,38106,0
3696,38123,0
3777,38108,0
3904,38134,0
4032,38101,0
4095,38108,0
4095,38118,0
4082,38108,0
4084,38127,0
4082,38112,0
4095,38131,0
4052,38119,0
4024,38109,0
4004,38104,0
3954,38121,0
3904,38098,0
3872,38121,0
3828,38119,0
3816,38118,0
3832,38114,0
3868,38096,0
3952,38125,0
4072,38114,0
4048,38127,0
4095,38103,0
4072,38102,0
4095,38123,0
4060,38113,0
4095,38131,0
4052,38113,0
4064,38138,0
4095,38103,0
4095,38111,0
4095,38132,0
4095,38112,0
4095,38132,0
4095,38112,0
4064,38144,0
4095,38094,0
4080,38110,0
4090,38135,0
4095,38101,0
4095,38135,0
4052,38119,0
4072,38154,0
4064,38118,0
4058,38118,0
4072,38137,0
4064,38106,0
4076,38135,0
4056,38120,0
4088,38145,0
4068,38107,0
4056,38110,0
4071,38131,0
4052,38112,0
4095,38135,0
4056,38127,0
4095,38141,0
4048,38095,0
4095,38126,0
4064,38145,0
4080,38111,0
4072,38132,0
4095,38121,0
4095,38137,0
4095,38106,0
4095,38114,0
4095,38138,0
4095,38126,0
4095,38149,0
4095,38124,0
4095,38139,0
4095,38122,0
4095,38127,0
4095,38137,0
4090,38134,0
4064,38136,0
4064,38135,0
4068,38122,0
4064,38124,0
4095,38128,0
4060,38140,0
4084,38126,0
4064,38147,0
4064,38104,0
4095,38125,0
4076,38132,0
4095,38122,0
4072,38142,0
4095,38130,0
4092,38147,0
4095,38119,0
4084,38130,0
4072,38152,0
4072,38123,0
4095,38137,0
4095,38130,0
4095,38146,0
4095,38101,0
4095,38109,0
4095,38147,0
4095,38127,0
4095,38143,0
4095,38121,0
4095,38129,0
4095,38131,0
4072,38132,0
4072,38128,0
4072,38150,0
4064,38130,0
4072,38137,0
4064,38138,0
4068,38136,0
4068,38143,0
4068,38127,0
4066,38130,0
4064,38144,0
4095,38127,0
4064,38161,0
4095,38132,0
4084,38145,0
4095,38140,0
4072,38130,0
4095,38157,0
4068,38141,0
4068,38147,0
4072,38126,0
4095,38128,0
4095,38135,0
4095,38137,0
4095,38156,0
4095,38136,0
4095,38162,0
4095,38122,0
4095,38126,0
4095,38147,0
4095,38127,0
4095,38154,0
4064,38161,0
4072,38146,0
4064,38143,0
4064,38164,0
4095,38152,0
4076,38148,0
4080,38143,0
4068,38131,0
4095,38155,0
4088,38142,0
4072,38172,0
4085,38130,0
4064,38146,0
4095,38153,0
4080,38148,0
4095,38162,0
4072,38135,0
4095,38169,0
4072,38126,0
4072,38136,0
4080,38143,0
4095,38138,0
4095,38166,0
4095,38149,0
4095,38164,0
4095,38146,0
4095,38150,0
4095,38151,0
4095,38142,0
4095,38177,0
4095,38160,0
4095,38171,0
4080,38171,0
4072,38147,0
4064,38171,0
4068,38181,0
4064,38175,0
4072,38155,0
4088,38184,0
4068,38140,0
4072,38149,0
4068,38173,0
4072,38154,0
4095,38183,0
4064,38159,0
4095,38183,0
4064,38150,0
4095,38153,0
4072,38169,0
4095,38148,0
4064,38172,0
4064,38160,0
4068,38170,0
4095,38142,0
4095,38157,0
4095,38181,0
4095,38160,0
4095,38176,0
4095,38156,0
4095,38175,0
4095,38138,0
4095,38150,0
4095,38185,0
4095,38160,0
4095,38163,0
4064,38174,0
4056,38174,0
4084,38167,0
4068,38188,0
4060,38174,0
4064,38161,0
4058,38192,0
4064,38145,0
4064,38167,0
4064,38176,0
4091,38160,0
4056,38180,0
4095,38170,0
4072,38192,0
4095,38152,0
4072,38167,0
4095,38186,0
4056,38167,0
4064,38189,0
4064,38172,0
4095,38195,0
4095,38154,0
4095,38171,0
4095,38185,0
4095,38166,0
4095,38190,0
4095,38169,0
4095,38185,0
4084,38150,0
4095,38160,0
4095,38190,0
4064,38174,0
4056,38185,0
4052,38163,0
4082,38178,0
4084,38179,0
4092,38187,0
4072,38173,0
4088,38182,0
4088,38173,0
4064,38167,0
4072,38191,0
4095,38172,0
4064,38192,0
4095,38167,0
4088,38187,0
4095,38172,0
4080,38176,0
4095,38204,0
4088,38172,0
4080,38197,0
4094,38173,0
4095,38185,0
4095,38178,0
4095,38174,0
4095,38204,0
4095,38190,0
4095,38209,0
4095,38180,0
4095,38197,0
4095,38167,0
4095,38180,0
4095,38205,0
4064,38201,0
4088,38164,0
4072,38188,0
4056,38191,0
4072,38186,0
4060,38201,0
4064,38169,0
4056,38182,0
4048,38189,0
4048,38167,0
4064,38195,0
4095,38185,0
4072,38209,0
4095,38171,0
4068,38185,0
4095,38206,0
4064,38184,0
4095,38216,0
4064,38182,0
4064,38197,0
4064,38177,0
4095,38181,0
4095,38206,0
4095,38195,0
4095,38209,0
4095,38191,0
4095,38185,0
4078,38207,0
4077,38186,0
4064,38197,0
4095,38200,0
4024,38202,0
4020,38212,0
4036,38219,0
4040,38193,0
4052,38181,0
4048,38176,0
4048,38192,0
4056,38208,0
4032,38192,0
4032,38208,0
4000,38192,0
3953,38209,0
3832,38183,0
3796,38188,0
3624,38224,0
3580,38189,0
3504,38212,0
3456,38189,0
3440,38200,0
3416,38199,0
3560,38180,0
3636,38202,0
3792,38184,0
3876,38214,0
3984,38191,0
4064,38197,0
4094,38186,0
4076,38191,0
4066,38209,0
4040,38194,0
4032,38209,0
3944,38193,0
3720,38202,0
3580,38191,0
3464,38198,0
3380,38183,0
3276,38188,0
3364,38173,0
3200,38186,0
3216,38216,0
3288,38206,0
3378,38213,0
3504,38195,0
3639,38209,0
3744,38178,0
3904,38185,0
3912,38231,0
3988,38204,0
3944,38210,0
3956,38195,0
3840,38199,0
3736,38204,0
3562,38202,0
3498,38217,0
3372,38200,0
3281,38225,0
3180,38194,0
3136,38199,0
3068,38201,0
3128,38194,0
3162,38223,0
3300,38208,0
3456,38221,0
3576,38177,0
3624,38183,0
3704,38216,0
3768,38216,0
3801,38216,0
3808,38197,0
3748,38218,0
3652,38189,0
3528,38215,0
3392,38179,0
3244,38203,0
3104,38224,0
3023,38206,0
2900,38227,0
2936,38199,0
2848,38211,0
2916,38216,0
2964,38194,0
3108,38221,0
3200,38207,0
3324,38235,0
3440,38202,0
3616,38219,0
3680,38207,0
3712,38204,0
3712,38236,0
3664,38213,0
3528,38231,0
3409,38210,0
3256,38223,0
3104,38190,0
3008,38208,0
2933,38229,0
2792,38218,0
2706,38222,0
2696,38223,0
2732,38205,0
2840,38222,0
2914,38196,0
3056,38243,0
3188,38214,0
3304,38237,0
3392,38200,0
3448,38213,0
3508,38204,0
3480,38210,0
3472,38224,0
3328,38213,0
3248,38231,0
3060,38202,0
2944,38218,0
2776,38213,0
2656,38206,0
2592,38235,0
2584,38205,0
2560,38234,0
2600,38190,0
2692,38212,0
2800,38233,0
2888,38210,0
2517,38233,0
3124,38220,0
3200,38225,0
3296,38191,0
3328,38203,0
3248,38223,0
3196,38206,0
3108,38230,0
2976,38209,0
2840,38224,0
2706,38194,0
2586,38215,0
2488,38227,0
2432,38215,0
2392,38236,0
2396,38208,0
2450,38230,0
2522,38192,0
2672,38209,0
2756,38232,0
2924,38212,0
2984,38238,0
3104,38207,0
3136,38224,0
3152,38193,0
3140,38207,0
3144,38236,0
3034,38204,0
2888,38222,0
2736,38207,0
2592,38210,0
2432,38197,0
2341,38196,0
2260,38234,0
2226,38216,0
2260,38226,0
2288,38196,0
2344,38229,0
2464,38218,0
2592,38217,0
2720,38201,0
2840,38210,0
2922,38220,0
2960,38180,0
2984,38196,0
2968,38214,0
2908,38190,0
2814,38218,0
2703,38201,0
2552,38224,0
2448,38185,0
2288,38198,0
2208,38211,0
2128,38189,0
2104,38210,0
2080,38191,0
2136,38212,0
2216,38161,0
2368,38185,0
2488,38202,0
2612,38176,0
2746,38198,0
2816,38180,0
2836,38204,0
2858,38160,0
2840,38182,0
2776,38203,0
2704,38183,0
2569,38198,0
2372,38188,0
2232,38153,0
2120,38176,0
2018,38175,0
1952,38199,0
1912,38161,0
1918,38178,0
1970,38169,0
2064,38186,0
2178,38152,0
2308,38159,0
2444,38161,0
2528,38159,0
2656,38173,0
2660,38156,0
2696,38184,0
2656,38131,0
2608,38159,0
2464,38168,0
2346,38150,0
2202,38160,0
2106,38149,0
1974,38169,0
1881,38137,0
1840,38152,0
1792,38128,0
1777,38139,0
1857,38149,0
1926,38136,0
2083,38150,0
2194,38131,0
2345,38141,0
2386,38154,0
2460,38118,0
2496,38148,0
2504,38149,0
2482,38133,0
2412,38139,0
2296,38125,0
2152,38129,0
2024,38143,0
1873,38129,0
1752,38135,0
1669,38133,0
1592,38140,0
1580,38098,0
1584,38111,0
1650,38135,0
1740,38104,0
1864,38139,0
1984,38112,0
2112,38135,0
2200,38091,0
2320,38098,0
2352,38131,0
2362,38103,0
2328,38128,0
2284,38117,0
2105,38117,0
1974,38090,0
1804,38109,0
1686,38121,0
1568,38101,0
1468,38110,0
1394,38108,0
1378,38118,0
1381,38129,0
1430,38089,0
1522,38120,0
1640,38099,0
1772,38116,0
1868,38088,0
1972,38115,0
2040,38078,0
2104,38086,0
2117,38108,0
2056,38097,0
1992,38102,0
1850,38077,0
1722,38111,0
1572,38082,0
1437,38082,0
1314,38099,0
1225,38083,0
1192,38101,0
1138,38074,0
1162,38085,0
1214,38083,0
1313,38080,0
1442,38106,0
1561,38084,0
1658,38102,0
1760,38077,0
1820,38076,0
1876,38095,0
1800,38100,0
1712,38081,0
1600,38056,0
1444,38091,0
1292,38065,0
1158,38103,0
1029,38080,0
932,38100,0
864,38073,0
833,38076,0
825,38082,0
895,38070,0
1004,38096,0
1120,38080,0
1242,38088,0
1378,38054,0
1456,38073,0
1528,38088,0
1552,38073,0
1562,38090,0
1536,38073,0
1437,38104,0
1344,38058,0
1165,38073,0
1028,38094,0
875,38070,0
758,38085,0
669,38077,0
600,38096,0
218,38061,0
592,38061,0
652,38101,0
758,38100,0
881,38089,0
1000,38075,0
1112,38101,0
1218,38085,0
1292,38090,0
1292,38086,0
1288,38097,0
1253,38067,0
1146,38084,0
1016,38086,0
868,38078,0
716,38103,0
592,38079,0
461,38107,0
371,38069,0
333,38073,0
308,38091,0
332,38072,0
410,38100,0
498,38078,0
618,38096,0
752,38071,0
857,38087,0
955,38082,0
1020,38076,0
1074,38098,0
1034,38082,0
987,38115,0
886,38088,0
752,38085,0
627,38091,0
472,38080,0
336,38091,0
230,38105,0
133,38096,0
108,38092,0
91,38111,0
133,38078,0
189,38093,0
309,38081,0
428,38082,0
560,38105,0
682,38080,0
784,38112,0
845,38077,0
872,38102,0
866,38065,0
840,38089,0
717,38104,0
588,38080,0
459,38108,0
279,38102,0
152,38089,0
51,38074,0
0,38091,0
0,38112,0
0,38092,0
0,38111,0
57,38075,0
156,38088,0
336,38085,0
442,38082,0
552,38110,0
664,38091,0
856,38089,0
768,38091,0
776,38107,0
721,38107,0
640,38101,0
516,38071,0
378,38091,0
258,38102,0
108,38092,0
24,38109,0
0,38085,0
0,38096,0
0,38086,0
4,38088,0
72,38109,0
168,38088,0
281,38098,0
450,38087,0
557,38103,0
615,38072,0
702,38090,0
729,38105,0
717,38091,0
670,38108,0
568,38082,0
462,38103,0
331,38101,0
190,38095,0
81,38098,0
0,38093,0
0,38111,0
0,38105,0
0,38082,0
0,38092,0
83,38091,0
147,38113,0
295,38088,0
416,38084,0
534,38099,0
621,38094,0
704,38121,0
720,38099,0
744,38119,0
678,38091,0
597,38098,0
465,38112,0
358,38097,0
227,38118,0
75,38102,0
8,38120,0
0,38082,0
0,38105,0
0,38108,0
0,38096,0
74,38120,0
204,38092,0
370,38114,0
520,38090,0
640,38091,0
694,38120,0
814,38101,0
796,38111,0
785,38104,0
736,38087,0
638,38105,0
520,38093,0
392,38104,0
262,38093,0
141,38082,0
44,38085,0
0,38118,0
0,38105,0
0,38117,0
64,38095,0
160,38102,0
288,38081,0
405,38094,0
532,38115,0
644,38104,0
778,38126,0
828,38086,0
842,38102,0
825,38108,0
800,38102,0
685,38118,0
551,38094,0
409,38117,0
280,38084,0
164,38098,0
88,38112,0
30,38107,0
0,38115,0
14,38098,0
70,38123,0
173,38078,0
331,38111,0
468,38082,0
650,38099,0
747,38089,0
848,38131,0
912,38113,0
940,38092,0
922,38097,0
852,38128,0
762,38101,0
626,38125,0
485,38102,0
364,38119,0
269,38099,0
160,38101,0
107,38120,0
120,38101,0
113,38127,0
179,38084,0
267,38107,0
421,38119,0
568,38096,0
702,38131,0
823,38104,0
923,38124,0
987,38096,0
1020,38100,0
1028,38129,0
952,38101,0
856,38133,0
725,38103,0
592,38124,0
491,38134,0
354,38103,0
296,38104,0
222,38114,0
177,38126,0
222,38104,0
298,38122,0
409,38097,0
541,38100,0
680,38127,0
829,38107,0
937,38124,0
1025,38105,0
1080,38110,0
1100,38101,0
1090,38113,0
1013,38124,0
912,38112,0
802,38133,0
676,38095,0
545,38113,0
410,38132,0
326,38120,0
314,38125,0
273,38114,0
309,38138,0
412,38108,0
516,38109,0
660,38127,0
810,38111,0
946,38139,0
1059,38109,0
1152,38134,0
1205,38127,0
1218,38115,0
1196,38136,0
1120,38101,0
1008,38116,0
868,38134,0
750,38120,0
619,38130,0
540,38122,0
449,38145,0
400,38101,0
411,38111,0
454,38144,0
540,38119,0
776,38140,0
804,38131,0
950,38138,0
1084,38108,0
1196,38113,0
1288,38141,0
1338,38128,0
1344,38137,0
1312,38123,0
1229,38126,0
1114,38120,0
980,38124,0
829,38128,0
710,38129,0
597,38143,0
521,38097,0
489,38127,0
524,38132,0
645,38139,0
756,38127,0
872,38116,0
1018,38123,0
1154,38124,0
1290,38151,0
1353,38127,0
1428,38153,0
1418,38110,0
1382,38128,0
1328,38142,0
1185,38129,0
1048,38137,0
947,38134,0
820,38135,0
700,38107,0
642,38119,0
587,38127,0
586,38121,0
668,38139,0
740,38132,0
858,38144,0
1010,38125,0
1161,38134,0
1300,38126,0
1407,38121,0
1490,38157,0
1536,38126,0
1536,38161,0
1506,38124,0
1408,38127,0
1268,38143,0
1156,38133,0
1000,38116,0
894,38144,0
793,38157,0
720,38135,0
684,38162,0
664,38113,0
724,38130,0
809,38151,0
966,38133,0
1102,38158,0
1252,38148,0
1376,38153,0
1484,38121,0
1584,38130,0
1602,38158,0
1609,38139,0
1592,38169,0
1504,38138,0
1389,38164,0
1240,38119,0
1104,38147,0
996,38156,0
878,38141,0
817,38161,0
785,38145,0
808,38168,0
869,38143,0
936,38143,0
1076,38157,0
1229,38135,0
1361,38144,0
1472,38159,0
1576,38162,0
1636,38160,0
1665,38151,0
1666,38175,0
1608,38147,0
1524,38160,0
1412,38181,0
1252,38153,0
1120,38171,0
1008,38151,0
912,38175,0
858,38159,0
816,38163,0
840,38154,0
904,38150,0
1008,38183,0
1130,38155,0
1284,38190,0
1456,38158,0
1562,38174,0
1668,38139,0
1776,38154,0
1777,38174,0
1756,38165,0
1740,38174,0
1598,38165,0
1486,38196,0
1344,38146,0
1218,38167,0
1136,38162,0
1020,38190,0
968,38177,0
914,38161,0
936,38199,0
1002,38160,0
1081,38183,0
1212,38165,0
1388,38184,0
1498,38167,0
1616,38197,0
1712,38156,0
1776,38163,0
1808,38175,0
1804,38165,0
1752,38196,0
1644,38175,0
1525,38197,0
1392,38170,0
1264,38175,0
1160,38186,0
1076,38178,0
1011,38204,0
1011,38182,0
1020,38203,0
1105,38175,0
1228,38178,0
1366,38189,0
1468,38192,0
1613,38202,0
1769,38188,0
1840,38200,0
1865,38174,0
1889,38194,0
1864,38185,0
1828,38195,0
1708,38193,0
1568,38195,0
1452,38202,0
1300,38201,0
1200,38198,0
1116,38184,0
1050,38184,0
1034,38215,0
1068,38190,0
1128,38202,0
1242,38185,0
1372,38200,0
1524,38189,0
1664,38178,0
1813,38206,0
1872,38186,0
1929,38208,0
2000,38197,0
1972,38201,0
1888,38190,0
1797,38189,0
1648,38217,0
1528,38187,0
1386,38206,0
1251,38195,0
1180,38214,0
1124,38180,0
1121,38189,0
1140,38214,0
1204,38197,0
1336,38204,0
1456,38204,0
1616,38193,0
1724,38208,0
1944,38199,0
1916,38210,0
2010,38201,0
2009,38214,0
1964,38175,0
1905,38195,0
1784,38216,0
1688,38193,0
1514,38211,0
1420,38191,0
1316,38216,0
1202,38181,0
1168,38198,0
1168,38209,0
1200,38183,0
1268,38208,0
1397,38193,0
1540,38210,0
1686,38178,0
1836,38193,0
1948,38209,0
2044,38191,0
2083,38218,0
2128,38187,0
2128,38214,0
2060,38187,0
1948,38201,0
1813,38190,0
1676,38211,0
1558,38214,0
1460,38196,0
1405,38207,0
1332,38210,0
1348,38217,0
1340,38179,0
1424,38191,0
1552,38216,0
1682,38197,0
1784,38211,0
1912,38199,0
2000,38228,0
2112,38191,0
2104,38213,0
2128,38181,0
2088,38189,0
2040,38216,0
1904,38200,0
1796,38213,0
1668,38198,0
1563,38207,0
1434,38203,0
1378,38206,0
1331,38218,0
1348,38201,0
1370,38219,0
1461,38198,0
1592,38208,0
1731,38193,0
1872,38208,0
1976,38192,0
2084,38210,0
2144,38201,0
2208,38188,0
2180,38223,0
2152,38193,0
2092,38214,0
1936,38196,0
1798,38197,0
1666,38198,0
1568,38198,0
1448,38215,0
1368,38209,0
1318,38217,0
1340,38188,0
1364,38202,0
1465,38206,0
1584,38193,0
1756,38216,0
1960,38207,0
2040,38223,0
2138,38188,0
2216,38195,0
2264,38187,0
2273,38195,0
2201,38229,0
2136,38205,0
1982,38216,0
1856,38200,0
1728,38207,0
1484,38177,0
2360,38195,0
2368,38195,0
2307,38195,0
2216,38195,0
2098,38195,0
1930,38195,0
1824,38195,0
1716,38195,0
1574,38221,0
1516,38221,0
1484,38221,0
1492,38221,0
1556,38221,0
1668,38221,0
1786,38221,0
1939,38193,0
2070,38193,0
2192,38193,0
2296,38193,0
2352,38193,0
2384,38193,0
2372,38193,0
2324,38205,0
2220,38205,0
2106,38205,0
1978,38205,0
1818,38205,0
1716,38205,0
1589,38205,0
1552,38186,0
1546,38184,0
1564,38184,0
1612,38212,0
1728,38194,0
1824,38213,0
1960,38195,0
2132,38205,0
2213,38185,0
2312,38192,0
2370,38210,0
2388,38192,0
2380,38208,0
2312,38195,0
2224,38215,0
2080,38186,0
1952,38200,0
1772,38178,0
1664,38199,0
1553,38212,0
1501,38196,0
1472,38205,0
1474,38186,0
1552,38209,0
1680,38181,0
1808,38197,0
1936,38212,0
2072,38198,0
2182,38206,0
2236,38199,0
1920,38194,0
1790,38199,0
1680,38193,0
1616,38185,0
1576,38207,0
1633,38189,0
1648,38209,0
1762,38173,0
1929,38183,0
2136,38212,0
2352,38198,0
2575,38212,0
2768,38196,0
2972,38219,0
3052,38177,0
3168,38205,0
3160,38217,0
3224,38187,0
3144,38219,0
3020,38190,0
2880,38220,0
2706,38180,0
2532,38198,0
2392,38209,0
2306,38197,0
2172,38215,0
2102,38194,0
2114,38211,0
2112,38182,0
2196,38186,0
2320,38207,0
2436,38194,0
2520,38194,0
2628,38192,0
2728,38200,0
2792,38216,0
2832,38182,0
2828,38200,0
2760,38192,0
2656,38207,0
2540,38187,0
2397,38206,0
2276,38174,0
2175,38178,0
2068,38203,0
2040,38186,0
1978,38197,0
2009,38198,0
2064,38196,0
2176,38172,0
2244,38185,0
2360,38212,0
2464,38186,0
2600,38205,0
2659,38184,0
2691,38197,0
2729,38160,0
2656,38183,0
2540,38204,0
2427,38182,0
2288,38200,0
2128,38174,0
2034,38196,0
1913,38162,0
1800,38178,0
1737,38182,0
1712,38154,0
1746,38182,0
1802,38181,0
1908,38211,0
2036,38178,0
2160,38186,0
2284,38184,0
2420,38184,0
2512,38202,0
2548,38187,0
2544,38211,0
2552,38170,0
2444,38186,0
2356,38191,0
2212,38180,0
2097,38210,0
1956,38180,0
1860,38206,0
1784,38187,0
1762,38188,0
1756,38184,0
1788,38181,0
1866,38200,0
1984,38201,0
2104,38211,0
2236,38176,0
2359,38183,0
2497,38198,0
2576,38183,0
2624,38205,0
2576,38203,0
2536,38217,0
2448,38195,0
2324,38196,0
2216,38199,0
2056,38192,0
1922,38187,0
1832,38182,0
1752,38206,0
1728,38189,0
1696,38208,0
1732,38194,0
1813,38189,0
1962,38184,0
2072,38191,0
2232,38210,0
2336,38180,0
2472,38209,0
2520,38191,0
2568,38190,0
2572,38206,0
2592,38185,0
2504,38211,0
2392,38191,0
2257,38214,0
2113,38189,0
1970,38186,0
1876,38199,0
1800,38194,0
1773,38208,0
1784,38197,0
1832,38205,0
1888,38213,0
2012,38185,0
2148,38203,0
2300,38184,0
2396,38184,0
2492,38188,0
2556,38207,0
2592,38195,0
2584,38207,0
2544,38190,0
2456,38213,0
2347,38189,0
2200,38192,0
2092,38194,0
1948,38186,0
1872,38205,0
1784,38188,0
1762,38216,0
1746,38193,0
1794,38200,0
1916,38185,0
2033,38195,0
2180,38219,0
2320,38191,0
2448,38203,0
2548,38190,0
2592,38212,0
2649,38183,0
2624,38192,0
2584,38217,0
2560,38194,0
2400,38211,0
2216,38207,0
2084,38217,0
1980,38205,0
1878,38185,0
1808,38201,0
1765,38197,0
1770,38200,0
1824,38194,0
1916,38216,0
2044,38175,0
2176,38204,0
2360,38210,0
2433,38187,0
2565,38212,0
2602,38194,0
2656,38214,0
2628,38182,0
2608,38205,0
2472,38180,0
2360,38187,0
2216,38213,0
2116,38204,0
1988,38214,0
1910,38197,0
1845,38209,0
1809,38193,0
1808,38197,0
1875,38222,0
1945,38191,0
2098,38219,0
2256,38204,0
2472,38198,0
2568,38187,0
2624,38201,0
2648,38198,0
2648,38222,0
2602,38195,0
2480,38221,0
2348,38202,0
2224,38225,0
2090,38206,0
1968,38218,0
1880,38173,0
1824,38197,0
1800,38210,0
1890,38193,0
1868,38206,0
1968,38199,0
2112,38227,0
2224,38190,0
2360,38204,0
2536,38223,0
2616,38201,0
2666,38214,0
2700,38207,0
2688,38222,0
2628,38202,0
2492,38206,0
2364,38216,0
2221,38193,0
2093,38223,0
1992,38190,0
1883,38217,0
1824,38198,0
1804,38189,0
1796,38209,0
1868,38205,0
1976,38198,0
2096,38199,0
2240,38207,0
2405,38199,0
2488,38222,0
2576,38189,0
2636,38194,0
2667,38184,0
2640,38189,0
2608,38211,0
2496,38184,0
2372,38207,0
2196,38184,0
2088,38191,0
1953,38178,0
1864,38179,0
1833,38192,0
1812,38180,0
1866,38195,0
1908,38178,0
2008,38203,0
2140,38164,0
2268,38173,0
2392,38194,0
2509,38174,0
2602,38192,0
2696,38181,0
2720,38189,0
2648,38208,0
2578,38169,0
2504,38171,0
2336,38162,0
2196,38174,0
2088,38169,0
1946,38182,0
1850,38145,0
1800,38159,0
1793,38173,0
1748,38158,0
1889,38177,0
1978,38147,0
2144,38180,0
2256,38129,0
2416,38148,0
2496,38168,0
2608,38145,0
2632,38171,0
2656,38154,0
2626,38164,0
2624,38137,0
2489,38148,0
2370,38165,0
2192,38146,0
2056,38159,0
1956,38151,0
1844,38164,0
1818,38126,0
1785,38132,0
1824,38155,0
1928,38126,0
2016,38135,0
2124,38129,0
2288,38156,0
2376,38139,0
2488,38135,0
2596,38136,0
2612,38149,0
2620,38114,0
2608,38126,0
2490,38149,0
2400,38129,0
2272,38141,0
2096,38125,0
1972,38156,0
1832,38115,0
1760,38126,0
1696,38138,0
1696,38120,0
1708,38137,0
1796,38125,0
1916,38145,0
2080,38100,0
2216,38122,0
2346,38126,0
2450,38117,0
2528,38132,0
2532,38114,0
2541,38128,0
2496,38108,0
2406,38113,0
2312,38089,0
2165,38096,0
1984,38127,0
1846,38117,0
1724,38118,0
1642,38105,0
1604,38102,0
1616,38102,0
1616,38124,0
1704,38107,0
1816,38127,0
1952,38083,0
2088,38105,0
2227,38112,0
2320,38096,0
2440,38120,0
2440,38093,0
2474,38131,0
2404,38081,0
2338,38092,0
2192,38118,0
2056,38089,0
1913,38113,0
1792,38095,0
1680,38109,0
1600,38068,0
1576,38092,0
1536,38106,0
1570,38092,0
1650,38101,0
1776,38093,0
1920,38114,0
2080,38069,0
2213,38085,0
2272,38072,0
2340,38088,0
2384,38096,0
2420,38093,0
2352,38102,0
2258,38113,0
2140,38094,0
2010,38123,0
1866,38086,0
1772,38103,0
1632,38091,0
1572,38084,0
1508,38106,0
1535,38082,0
1552,38099,0
1650,38078,0
1752,38087,0
1936,38102,0
2020,38086,0
2144,38105,0
2248,38090,0
2345,38114,0
2384,38074,0
2380,38088,0
2325,38094,0
2232,38087,0
2080,38109,0
1910,38091,0
1795,38108,0
1644,38066,0
1561,38079,0
1496,38090,0
1444,38106,0
1440,38084,0
1480,38093,0
1570,38076,0
1688,38093,0
1848,38075,0
1961,38091,0
2085,38073,0
2178,38081,0
2240,38100,0
2272,38066,0
2284,38097,0
2212,38076,0
2160,38092,0
1992,38063,0
1844,38078,0
1700,38094,0
1576,38076,0
1482,38091,0
1397,38081,0
1356,38090,0
1384,38061,0
1432,38074,0
1536,38101,0
1658,38078,0
1794,38094,0
1922,38066,0
1536,38097,0
2135,38058,0
2200,38076,0
2244,38102,0
2261,38075,0
2152,38082,0
2047,38089,0
1912,38080,0
1770,38067,0
1625,38083,0
1502,38102,0
1424,38057,0
1349,38074,0
1292,38091,0
1296,38083,0
1360,38098,0
1470,38083,0
1588,38101,0
1754,38062,0
1880,38071,0
2009,38102,0
2092,38063,0
2196,38087,0
2188,38086,0
2180,38099,0
2112,38069,0
2032,38075,0
1899,38093,0
1752,38079,0
1600,38099,0
1474,38086,0
1370,38100,0
1308,38063,0
1275,38074,0
1286,38099,0
1352,38072,0
1448,38098,0
1568,38088,0
1701,38060,0
1848,38090,0
1972,38093,0
2080,38100,0
2104,38088,0
2124,38101,0
2133,38081,0
2044,38109,0
1960,38071,0
1804,38086,0
1669,38088,0
1521,38083,0
1408,38111,0
1301,38085,0
1242,38103,0
1204,38081,0
1225,38096,0
1288,38081,0
1402,38080,0
1528,38110,0
1706,38084,0
1845,38102,0
1968,38089,0
2048,38116,0
2128,38066,0
2120,38083,0
2116,38102,0
2050,38092,0
1920,38110,0
1824,38089,0
1504,38092,0
1380,38106,0
1288,38105,0
1221,38103,0
1216,38116,0
1236,38097,0
1290,38109,0
1404,38087,0
1540,38115,0
1708,38069,0
1810,38083,0
1938,38101,0
2008,38084,0
2088,38108,0
2112,38081,0
2080,38109,0
2001,38069,0
1896,38082,0
1748,38106,0
1600,38094,0
1480,38108,0
1364,38099,0
1296,38115,0
1210,38091,0
1188,38094,0
1232,38095,0
1280,38092,0
910,38113,0
1536,38091,0
1674,38115,0
1840,38086,0
1960,38093,0
2020,38092,0
2080,38108,0
2096,38081,0
2069,38108,0
2018,38099,0
1888,38090,0
1760,38094,0
1624,38110,0
1480,38096,0
1368,38109,0
1273,38090,0
1260,38121,0
1205,38070,0
1256,38095,0
1312,38097,0
1430,38093,0
1560,38114,0
1713,38094,0
1836,38118,0
1936,38088,0
2024,38104,0
2112,38084,0
2125,38093,0
2084,38122,0
2032,38095,0
1881,38109,0
1720,38099,0
1580,38119,0
1440,38082,0
1361,38087,0
1272,38115,0
1234,38095,0
1226,38102,0
1252,38104,0
1340,38106,0
1488,38097,0
1612,38096,0
1744,38107,0
1874,38084,0
1996,38095,0
2068,38125,0
2112,38090,0
2120,38115,0
2096,38102,0
2020,38102,0
1924,38076,0
1726,38095,0
1602,38110,0
1448,38087,0
1370,38122,0
1264,38101,0
1226,38105,0
1218,38086,0
1276,38096,0
1350,38125,0
1481,38093,0
1638,38116,0
1772,38108,0
1894,38128,0
2012,38093,0
2096,38102,0
2124,38108,0
2154,38102,0
2121,38137,0
2000,38131,0
1880,38107,0
1744,38117,0
1576,38111,0
1452,38120,0
1348,38104,0
1273,38124,0
1226,38103,0
1222,38120,0
1276,38086,0
1360,38102,0
1484,38113,0
1624,38106,0
1824,38113,0
1912,38106,0
2028,38132,0
2100,38089,0
2152,38105,0
2140,38120,0
2112,38120,0
2012,38137,0
1908,38108,0
1764,38125,0
1610,38086,0
1482,38100,0
1378,38115,0
1296,38108,0
1252,38143,0
1269,38119,0
1315,38127,0
1392,38110,0
1512,38122,0
1644,38130,0
1804,38128,0
1928,38117,0
2032,38131,0
2112,38112,0
2161,38124,0
2152,38126,0
2108,38115,0
2044,38136,0
1904,38103,0
1764,38112,0
1627,38135,0
1496,38120,0
1408,38139,0
1318,38124,0
1296,38144,0
1288,38105,0
1344,38116,0
1440,38154,0
1546,38130,0
1692,38143,0
1848,38131,0
1980,38157,0
2092,38116,0
2153,38135,0
2204,38132,0
2172,38120,0
2122,38148,0
2038,38130,0
1909,38141,0
1764,38131,0
1628,38136,0
1508,38150,0
1398,38131,0
1340,38135,0
1317,38155,0
1322,38112,0
1384,38156,0
1488,38135,0
1628,38156,0
1780,38142,0
1924,38145,0
2036,38117,0
2160,38130,0
2212,38157,0
2272,38138,0
2220,38159,0
2192,38136,0
2052,38158,0
1968,38134,0
1788,38136,0
1652,38154,0
1520,38141,0
1456,38162,0
1381,38140,0
1356,38161,0
1381,38122,0
1446,38135,0
1540,38160,0
1690,38150,0
1833,38162,0
1985,38149,0
2128,38180,0
2236,38130,0
2260,38151,0
2296,38149,0
2272,38162,0
2204,38159,0
2104,38165,0
1976,38143,0
1834,38145,0
1692,38148,0
1556,38161,0
1460,38152,0
1406,38169,0
1384,38142,0
1392,38156,0
1460,38137,0
1560,38143,0
1708,38161,0
1866,38150,0
2002,38168,0
2100,38142,0
2216,38170,0
2272,38137,0
2338,38147,0
2316,38185,0
2265,38149,0
2152,38173,0
2032,38147,0
1904,38177,0
1736,38135,0
1628,38144,0
1533,38172,0
1488,38140,0
1464,38174,0
1482,38150,0
1544,38180,0
1632,38169,0
1784,38178,0
1912,38165,0
2052,38162,0
2160,38172,0
2250,38165,0
2300,38186,0
2320,38146,0
2296,38143,0
2237,38183,0
2120,38156,0
2018,38180,0
1849,38161,0
1728,38172,0
1597,38139,0
1532,38154,0
1456,38190,0
1448,38156,0
1497,38181,0
1568,38162,0
1686,38181,0
1817,38153,0
1978,38152,0
2128,38176,0
2228,38160,0
2320,38180,0
2379,38172,0
2426,38179,0
2416,38149,0
2192,38172,0
2068,38168,0
1904,38175,0
1768,38171,0
1676,38152,0
1570,38173,0
1528,38189,0
1509,38160,0
1528,38174,0
1608,38152,0
1724,38169,0
1898,38189,0
2000,38169,0
2164,38196,0
2256,38173,0
2372,38189,0
2404,38161,0
2448,38172,0
2394,38186,0
2320,38181,0
2240,38188,0
2112,38175,0
1952,38197,0
1827,38171,0
1737,38173,0
1626,38189,0
1557,38172,0
1548,38196,0
1552,38176,0
1708,38197,0
1828,38165,0
1954,38184,0
2074,38182,0
2216,38173,0
2328,38181,0
2432,38172,0
2488,38181,0
2490,38180,0
2456,38194,0
2376,38178,0
2256,38195,0
2114,38169,0
1996,38169,0
1865,38186,0
1732,38184,0
1664,38190,0
1606,38181,0
1609,38201,0
1632,38151,0
1722,38172,0
1828,38196,0
1978,38171,0
2152,38207,0
2288,38185,0
2440,38205,0
2480,38167,0
2520,38182,0
2544,38181,0
2473,38180,0
2466,38202,0
2275,38181,0
2132,38205,0
2026,38167,0
1888,38178,0
1760,38182,0
1674,38177,0
1633,38187,0
1629,38191,0
1668,38198,0
1760,38183,0
1888,38200,0
2024,38189,0
2172,38206,0
2302,38180,0
2412,38208,0
2487,38177,0
2520,38191,0
2564,38184,0
2492,38168,0
2426,38208,0
2288,38186,0
2161,38213,0
2002,38186,0
1882,38196,0
1802,38173,0
1728,38181,0
1681,38206,0
1690,38195,0
1736,38214,0
1825,38181,0
1936,38202,0
2088,38169,0
2224,38185,0
2373,38218,0
2536,38172,0
2588,38208,0
2624,38179,0
2594,38192,0
2552,38180,0
2464,38196,0
2328,38189,0
2192,38222,0
2092,38175,0
1925,38187,0
1832,38208,0
1764,38196,0
1728,38209,0
1742,38201,0
1776,38215,0
1884,38183,0
2016,38189,0
2184,38218,0
2272,38189,0
2400,38209,0
2506,38189,0
2572,38215,0
2600,38194,0
2656,38195,0
2605,38217,0
2496,38175,0
2368,38219,0
2218,38200,0
2064,38222,0
1942,38175,0
1842,38196,0
1784,38223,0
1764,38197,0
1794,38220,0
1804,38206,0
1900,38214,0
2044,38205,0
2180,38204,0
2320,38204,0
2440,38200,0
2545,38215,0
2608,38205,0
2640,38227,0
2634,38206,0
2588,38199,0
2508,38227,0
2368,38208,0
2264,38224,0
2096,38213,0
1994,38222,0
1882,38188,0
1824,38202,0
1790,38228,0
1808,38211,0
1860,38229,0
1992,38211,0
2136,38226,0
2280,38196,0
2432,38202,0
2560,38237,0
2624,38214,0
2690,38229,0
2720,38209,0
2717,38230,0
2688,38191,0
2610,38214,0
2416,38227,0
2272,38225,0
2132,38213,0
2012,38229,0
1932,38214,0
1890,38214,0
1840,38245,0
1858,38211,0
1908,38210,0
2028,38218,0
2144,38209,0
2303,38238,0
2436,38216,0
2600,38242,0
2656,38205,0
2756,38224,0
2756,38234,0
2784,38211,0
2680,38247,0
2584,38218,0
2488,38240,0
2368,38207,0
2216,38225,0
2096,38225,0
1992,38223,0
1954,38248,0
1906,38231,0
1937,38260,0
1976,38222,0
2092,38236,0
2244,38213,0
2392,38225,0
2488,38227,0
2608,38227,0
2704,38233,0
2760,38241,0
2784,38234,0
2780,38226,0
2720,38256,0
2642,38212,0
2452,38228,0
2357,38253,0
2196,38224,0
2122,38251,0
1994,38243,0
1958,38269,0
1924,38222,0
1962,38227,0
2028,38265,0
2164,38240,0
2280,38261,0
2436,38241,0
2592,38238,0
2778,38233,0
2880,38239,0
2948,38258,0
2980,38246,0
2962,38260,0
2852,38221,0
2744,38247,0
2600,38235,0
2469,38237,0
2348,38258,0
2209,38250,0
2092,38234,0
2024,38256,0
2008,38230,0
2024,38240,0
2100,38243,0
2212,38260,0
2376,38244,0
2500,38262,0
2640,38226,0
2752,38243,0
2848,38263,0
2920,38246,0
2916,38265,0
2965,38246,0
2832,38255,0
2756,38230,0
2584,38250,0
2465,38277,0
2308,38260,0
2194,38261,0
2104,38248,0
2092,38260,0
2080,38246,0
2093,38240,0
2169,38269,0
2286,38254,0
2396,38271,0
2564,38250,0
2698,38250,0
2808,38259,0
2912,38249,0
2939,38273,0
2924,38242,0
2904,38267,0
2824,38261,0
2720,38257,0
2576,38240,0
2432,38246,0
2328,38267,0
2176,38261,0
2104,38282,0
2056,38247,0
2040,38250,0
2086,38267,0
2154,38248,0
2304,38268,0
2424,38251,0
2570,38290,0
2674,38238,0
2824,38261,0
2872,38260,0
2928,38260,0
2928,38277,0
2956,38263,0
2905,38276,0
2792,38256,0
2616,38257,0
2484,38257,0
2320,38252,0
2224,38271,0
2138,38261,0
2100,38277,0
2112,38263,0
2216,38286,0
2320,38269,0
2464,38282,0
2608,38284,0
2730,38256,0
2850,38261,0
2928,38271,0
2948,38251,0
2968,38268,0
2960,38279,0
2856,38252,0
2751,38282,0
2588,38255,0
2473,38283,0
2304,38241,0
2224,38265,0
2120,38275,0
2116,38262,0
2084,38285,0
2132,38259,0
2260,38269,0
2400,38275,0
2530,38260,0
2672,38283,0
2805,38275,0
2920,38295,0
2980,38244,0
3012,38268,0
3019,38283,0
2984,38271,0
2928,38300,0
2800,38267,0
2612,38288,0
2470,38274,0
2368,38278,0
2240,38265,0
2170,38286,0
2132,38274,0
2128,38296,0
2180,38273,0
2264,38298,0
2380,38274,0
2528,38292,0
2686,38257,0
2800,38260,0
2945,38288,0
2978,38276,0
3048,38307,0
3044,38264,0
3032,38266,0
2882,38279,0
2768,38268,0
2628,38297,0
2528,38279,0
2394,38293,0
2292,38259,0
2210,38285,0
2198,38270,0
2152,38268,0
2205,38290,0
2280,38277,0
2413,38298,0
2576,38268,0
2741,38278,0
2772,38288,0
2864,38261,0
2940,38287,0
2932,38278,0
2928,38278,0
2876,38274,0
2756,38300,0
2642,38277,0
2490,38301,0
2348,38273,0
2216,38273,0
2126,38302,0
2040,38282,0
2016,38305,0
1988,38277,0
2034,38286,0
2114,38285,0
2234,38278,0
2344,38303,0
2480,38273,0
2604,38288,0
2788,38282,0
2892,38296,0
2966,38270,0
3034,38281,0
3061,38316,0
3008,38281,0
2977,38297,0
2954,38284,0
2896,38301,0
2896,38268,0
2920,38280,0
2840,38278,0
2868,38287,0
2896,38291,0
2946,38292,0
3048,38300,0
3172,38291,0
3312,38308,0
3425,38263,0
3520,38291,0
3592,38288,0
3632,38277,0
3659,38302,0
3600,38294,0
3600,38313,0
3368,38272,0
3249,38293,0
3032,38295,0
2900,38294,0
2696,38301,0
2576,38293,0
2496,38305,0
2505,38284,0
2532,38306,0
2596,38264,0
2722,38281,0
2888,38315,0
2988,38279,0
3128,38304,0
3252,38283,0
3353,38311,0
3456,38276,0
3520,38280,0
3408,38287,0
3336,38299,0
3216,38277,0
3071,38298,0
2920,38280,0
2780,38311,0
2602,38294,0
2488,38311,0
2416,38281,0
2364,38309,0
2360,38273,0
2427,38290,0
2506,38291,0
2664,38287,0
2760,38306,0
2916,38287,0
2993,38310,0
3112,38283,0
3136,38301,0
3144,38277,0
3106,38274,0
3092,38315,0
2976,38288,0
2828,38308,0
2674,38291,0
2528,38308,0
2372,38268,0
2280,38283,0
2226,38304,0
2189,38298,0
2240,38310,0
2324,38285,0
2394,38289,0
2528,38302,0
2656,38298,0
2792,38288,0
2920,38308,0
3008,38314,0
3056,38291,0
3080,38307,0
3096,38284,0
2984,38284,0
2874,38307,0
2758,38284,0
2586,38299,0
2476,38289,0
2320,38306,0
2248,38284,0
2177,38296,0
2180,38279,0
2188,38287,0
2256,38306,0
2368,38300,0
2576,38307,0
2706,38295,0
2841,38296,0
2976,38288,0
3057,38298,0
3074,38311,0
2592,38301,0
3068,38304,0
2986,38282,0
2904,38309,0
2772,38278,0
2576,38297,0
2442,38296,0
2328,38295,0
2240,38282,0
2188,38293,0
2164,38285,0
2192,38313,0
2250,38296,0
2384,38310,0
2516,38287,0
2656,38300,0
2807,38284,0
2920,38284,0
3056,38315,0
3048,38284,0
3104,38316,0
3028,38294,0
3000,38320,0
2836,38280,0
2690,38299,0
2580,38315,0
2488,38279,0
2332,38313,0
2252,38289,0
2208,38317,0
2186,38281,0
2192,38303,0
2274,38289,0
2384,38288,0
2522,38314,0
2704,38290,0
2832,38322,0
2888,38308,0
3004,38307,0
3024,38298,0
3042,38315,0
3008,38335,0
2929,38292,0
2808,38320,0
2672,38301,0
2520,38313,0
2386,38293,0
2276,38292,0
2201,38314,0
2152,38296,0
2160,38316,0
2168,38305,0
2272,38322,0
2360,38285,0
2520,38302,0
2656,38305,0
2784,38298,0
2888,38322,0
3060,38297,0
3072,38315,0
3100,38304,0
3042,38302,0
2976,38291,0
2800,38293,0
2666,38314,0
2520,38292,0
2384,38319,0
2296,38300,0
2212,38315,0
2144,38305,0
2128,38300,0
2164,38329,0
2252,38312,0
2384,38318,0
2516,38292,0
2696,38308,0
2792,38284,0
2896,38291,0
2960,38318,0
3004,38306,0
3040,38315,0
2960,38314,0
2928,38321,0
2776,38286,0
2676,38298,0
2464,38323,0
2348,38297,0
2228,38318,0
2152,38302,0
2112,38318,0
2160,38302,0
2184,38309,0
2282,38280,0
2411,38295,0
2562,38316,0
2674,38300,0
2848,38319,0
2920,38303,0
2978,38319,0
3064,38279,0
2954,38290,0
2900,38312,0
2737,38296,0
2608,38310,0
2496,38296,0
2352,38320,0
2228,38295,0
2170,38305,0
2130,38304,0
2146,38330,0
2212,38285,0
2317,38287,0
2408,38320,0
2608,38302,0
2704,38314,0
2848,38295,0
2916,38300,0
3024,38284,0
3048,38292,0
3012,38310,0
3032,38295,0
2904,38321,0
2770,38296,0
2632,38304,0
2470,38273,0
2344,38293,0
2216,38321,0
2152,38299,0
2117,38311,0
2122,38289,0
2208,38303,0
2306,38274,0
2402,38290,0
2550,38305,0
2688,38288,0
2818,38283,0
2916,38314,0
2980,38290,0
3024,38272,0
3024,38276,0
2968,38299,0
2872,38291,0
2744,38300,0
2616,38280,0
2456,38297,0
2376,38251,0
2224,38265,0
2186,38285,0
2128,38258,0
2148,38281,0
2192,38264,0
2272,38293,0
2392,38250,0
2576,38267,0
2698,38278,0
2833,38260,0
2936,38279,0
2982,38268,0
2970,38281,0
2996,38248,0
2912,38258,0
2820,38254,0
2705,38246,0
2564,38282,0
2384,38263,0
2268,38253,0
2176,38265,0
2112,38255,0
2084,38251,0
2116,38260,0
2152,38246,0
2264,38261,0
2400,38249,0
2540,38251,0
2664,38240,0
2816,38224,0
2904,38257,0
2984,38249,0
2976,38259,0
2992,38229,0
2892,38248,0
2812,38229,0
2648,38233,0
2512,38251,0
2368,38227,0
2304,38253,0
2204,38235,0
2112,38245,0
2089,38212,0
2104,38219,0
2148,38251,0
2250,38230,0
2381,38251,0
2525,38235,0
2690,38247,0
2806,38202,0
2836,38253,0
2884,38219,0
2904,38225,0
2868,38231,0
2792,38218,0
2676,38223,0
2528,38222,0
2376,38212,0
2224,38239,0
2120,38213,0
2024,38237,0
1967,38216,0
1936,38247,0
1976,38200,0
2012,38209,0
2134,38228,0
2250,38215,0
2417,38239,0
2552,38220,0
2640,38235,0
2704,38192,0
2816,38213,0
2820,38218,0
2794,38209,0
2740,38226,0
2592,38208,0
2426,38233,0
2290,38196,0
2138,38214,0
2052,38216,0
1956,38208,0
1904,38220,0
1857,38209,0
1882,38220,0
1953,38215,0
2064,38227,0
2200,38207,0
2336,38224,0
2456,38192,0
2560,38213,0
2640,38222,0
2682,38210,0
2688,38225,0
2676,38202,0
2584,38230,0
2504,38200,0
2344,38197,0
2184,38228,0
2024,38209,0
1928,38220,0
1833,38208,0
1789,38225,0
1770,38193,0
1824,38208,0
1924,38227,0
2020,38212,0
2148,38226,0
2296,38210,0
2420,38228,0
2509,38182,0
2598,38202,0
2640,38213,0
2688,38210,0
2648,38219,0
2562,38202,0
2412,38204,0
2282,38207,0
2130,38208,0
2000,38227,0
1884,38211,0
1792,38202,0
1741,38213,0
1724,38199,0
1744,38217,0
1820,38189,0
1948,38198,0
2074,38221,0
2240,38198,0
2344,38217,0
2484,38206,0
2528,38222,0
2592,38174,0
2608,38196,0
2558,38217,0
2476,38197,0
2385,38219,0
2244,38197,0
2089,38211,0
1955,38191,0
1848,38209,0
1732,38190,0
1696,38195,0
1672,38220,0
1728,38187,0
1818,38214,0
1938,38196,0
2044,38207,0
2184,38204,0
2312,38190,0
2434,38209,0
2552,38203,0
2564,38194,0
2576,38206,0
2536,38173,0
2448,38202,0
2328,38214,0
2176,38184,0
2047,38215,0
1908,38201,0
1808,38222,0
1740,38177,0
1676,38187,0
1674,38218,0
1720,38195,0
1792,38206,0
1904,38189,0
2080,38207,0
2224,38173,0
2353,38192,0
2466,38220,0
2538,38190,0
2571,38199,0
2560,38198,0
2505,38203,0
2420,38168,0
2296,38192,0
2160,38219,0
2018,38189,0
1864,38189,0
2504,38185,0
2533,38191,0
2532,38196,0
2477,38180,0
2388,38210,0
2248,38186,0
2108,38210,0
1956,38185,0
1834,38204,0
1732,38199,0
1664,38186,0
1666,38211,0
1636,38194,0
1724,38201,0
1788,38188,0
1926,38194,0
2064,38200,0
2212,38184,0
2344,38207,0
2432,38194,0
2520,38217,0
2521,38182,0
2516,38184,0
2448,38202,0
2352,38196,0
2208,38208,0
2041,38190,0
1904,38211,0
1764,38168,0
1664,38188,0
1600,38189,0
1568,38182,0
1616,38204,0
1714,38204,0
1844,38204,0
1984,38204,0
2156,38204,0
2288,38204,0
2368,38185,0
2424,38185,0
2458,38185,0
2448,38185,0
2405,38185,0
2316,38185,0
2184,38185,0
2016,38191,0
1876,38190,0
1746,38190,0
1656,38190,0
1572,38190,0
1538,38190,0
1572,38190,0
1621,38177,0
1740,38182,0
1856,38182,0
2004,38182,0
2144,38182,0
2276,38182,0
2340,38182,0
2400,38182,0
2437,38183,0
2456,38183,0
2388,38183,0
2356,38172,0
2120,38190,0
1980,38181,0
1852,38176,0
1716,38203,0
1653,38193,0
1568,38207,0
1540,38193,0
1552,38199,0
1624,38176,0
1720,38185,0
1850,38206,0
1992,38190,0
2152,38205,0
2240,38185,0
2336,38200,0
2384,38171,0
2436,38182,0
2392,38219,0
2328,38202,0
2224,38209,0
2136,38191,0
1985,38199,0
1856,38184,0
1734,38188,0
1643,38211,0
1584,38196,0
2028,38191,0
2129,38208,0
2248,38211,0
2324,38191,0
2378,38205,0
2404,38176,0
2360,38199,0
2312,38169,0
2180,38180,0
2056,38211,0
1906,38184,0
1779,38210,0
1660,38197,0
1588,38205,0
1528,38190,0
1515,38189,0
1540,38206,0
1623,38189,0
1744,38203,0
1882,38189,0
2034,38194,0
2176,38189,0
2288,38187,0
2392,38204,0
2426,38189,0
2418,38203,0
2356,38189,0
2280,38181,0
2180,38188,0
2054,38181,0
1888,38197,0
1760,38188,0
1608,38181,0
1532,38192,0
1504,38176,0
1465,38220,0
1496,38190,0
1582,38196,0
1701,38191,0
1832,38203,0
2000,38190,0
2138,38213,0
2232,38167,0
2327,38189,0
2378,38201,0
2432,38176,0
2368,38208,0
2312,38194,0
2160,38215,0
2048,38179,0
1876,38199,0
1746,38201,0
1626,38192,0
1558,38214,0
1507,38186,0
1490,38215,0
1546,38188,0
1603,38195,0
1708,38204,0
1850,38190,0
1997,38215,0
2142,38189,0
2272,38218,0
2364,38195,0
2370,38182,0
2368,38203,0
2344,38217,0
2281,38209,0
2148,38197,0
1990,38219,0
1841,38192,0
1712,38211,0
1584,38191,0
1512,38200,0
1480,38201,0
1474,38211,0
1500,38219,0
1608,38213,0
1713,38215,0
1868,38204,0
1996,38219,0
2120,38185,0
2248,38198,0
2328,38227,0
2400,38193,0
2432,38209,0
2385,38198,0
2304,38222,0
2184,38185,0
2048,38202,0
1888,38225,0
1750,38207,0
1652,38224,0
1568,38210,0
1540,38223,0
1537,38185,0
1561,38205,0
1600,38219,0
1720,38224,0
1852,38200,0
1992,38210,0
2112,38226,0
2226,38200,0
2308,38205,0
2344,38236,0
2344,38205,0
2320,38228,0
2245,38213,0
2128,38234,0
2028,38199,0
1848,38206,0
1720,38236,0
1632,38217,0
1538,38222,0
1482,38206,0
1466,38231,0
1506,38186,0
1600,38202,0
1730,38238,0
1866,38206,0
2012,38233,0
2144,38219,0
2224,38223,0
2340,38202,0
2340,38209,0
2362,38232,0
2336,38212,0
2242,38233,0
2090,38234,0
1952,38205,0
1820,38239,0
1692,38220,0
1588,38221,0
1544,38210,0
1476,38236,0
1468,38206,0
1508,38222,0
1600,38211,0
1720,38215,0
1855,38235,0
1984,38216,0
2176,38220,0
2220,38216,0
2312,38225,0
2336,38208,0
2368,38217,0
2296,38236,0
2216,38219,0
2092,38230,0
1972,38217,0
1856,38229,0
1732,38216,0
1594,38221,0
1522,38229,0
1497,38216,0
1476,38242,0
1510,38220,0
1616,38229,0
1776,38212,0
1888,38223,0
2012,38244,0
2120,38198,0
2216,38230,0
2328,38234,0
2328,38212,0
2320,38221,0
2300,38223,0
2180,38242,0
2024,38231,0
1928,38244,0
1800,38227,0
1685,38237,0
1588,38211,0
1526,38224,0
1488,38244,0
1508,38225,0
1548,38244,0
1672,38222,0
1768,38250,0
1905,38198,0
2072,38217,0
2208,38254,0
2326,38226,0
2386,38246,0
2392,38226,0
2370,38263,0
2300,38217,0
2192,38223,0
2056,38259,0
1918,38240,0
1812,38253,0
1704,38227,0
1572,38249,0
1512,38237,0
1478,38224,0
1492,38268,0
1568,38233,0
1662,38249,0
1772,38239,0
1912,38251,0
2058,38235,0
2146,38242,0
2248,38237,0
2312,38233,0
2320,38251,0
2336,38245,0
2244,38267,0
2160,38227,0
2016,38244,0
1916,38246,0
1750,38228,0
1640,38258,0
1576,38243,0
1508,38262,0
1485,38248,0
1504,38259,0
1555,38228,0
1665,38247,0
1808,38254,0
1924,38248,0
2058,38268,0
2180,38254,0
2288,38269,0
2348,38275,0
2308,38247,0
2242,38247,0
2140,38265,0
2016,38241,0
1976,38268,0
1748,38235,0
1674,38241,0
1556,38272,0
1499,38239,0
1490,38266,0
1495,38239,0
1588,38268,0
1665,38234,0
1772,38245,0
1930,38267,0
2068,38241,0
2192,38264,0
2248,38251,0
2288,38271,0
2346,38237,0
2320,38249,0
2258,38249,0
2144,38245,0
1996,38276,0
1868,38247,0
1717,38268,0
1610,38247,0
1522,38250,0
1486,38242,0
1473,38257,0
1500,38278,0
1560,38275,0
1666,38259,0
1824,38270,0
1944,38252,0
2068,38248,0
2192,38258,0
2272,38275,0
2330,38260,0
2340,38273,0
2316,38240,0
2244,38248,0
2165,38275,0
2012,38255,0
1908,38272,0
1746,38255,0
1640,38265,0
1564,38250,0
1520,38252,0
1488,38284,0
1510,38254,0
1576,38280,0
1716,38268,0
1850,38281,0
1984,38247,0
2121,38250,0
2226,38280,0
2276,38259,0
2324,38282,0
2329,38270,0
2314,38286,0
2244,38248,0
2124,38266,0
1962,38287,0
1820,38283,0
1704,38279,0
1594,38270,0
1508,38276,0
1469,38275,0
1460,38291,0
1529,38246,0
1608,38273,0
1737,38284,0
1840,38271,0
1996,38283,0
2144,38266,0
2256,38297,0
2312,38266,0
2376,38282,0
2368,38277,0
2352,38275,0
2248,38300,0
2136,38278,0
1992,38282,0
1878,38276,0
1748,38274,0
1628,38268,0
1553,38266,0
1494,38294,0
1476,38277,0
1494,38292,0
1598,38272,0
1728,38305,0
1872,38256,0
2006,38271,0
2112,38285,0
2216,38278,0
2328,38296,0
2340,38261,0
2336,38284,0
2312,38282,0
2220,38283,0
2108,38266,0
1972,38275,0
1842,38299,0
1716,38278,0
1614,38291,0
1540,38282,0
1508,38314,0
1482,38268,0
1540,38268,0
1616,38289,0
1746,38280,0
1876,38301,0
2020,38283,0
2136,38300,0
2276,38275,0
2352,38280,0
2387,38294,0
2396,38287,0
2352,38302,0
2242,38292,0
2128,38314,0
1985,38269,0
1844,38295,0
1772,38285,0
1654,38289,0
1568,38301,0
1501,38283,0
1508,38290,0
1556,38300,0
1634,38312,0
1756,38295,0
1898,38322,0
2028,38293,0
2188,38306,0
2266,38297,0
2324,38297,0
2382,38306,0
2404,38296,0
2360,38315,0
2256,38293,0
2144,38301,0
2000,38293,0
1888,38298,0
1738,38317,0
1640,38301,0
1570,38321,0
1556,38304,0
1564,38321,0
1604,38288,0
1704,38293,0
1824,38310,0
1952,38303,0
2112,38318,0
2208,38301,0
2308,38321,0
2392,38302,0
2432,38308,0
2368,38309,0
2332,38310,0
2232,38317,0
2108,38287,0
1976,38319,0
1858,38304,0
1760,38321,0
1664,38319,0
1600,38335,0
1569,38283,0
1572,38304,0
1637,38311,0
1736,38303,0
1888,38329,0
2016,38311,0
2184,38325,0
2277,38309,0
2408,38314,0
2448,38305,0
2480,38310,0
2474,38339,0
2458,38311,0
2352,38330,0
2229,38306,0
2060,38317,0
1924,38302,0
1780,38311,0
1692,38335,0
1620,38300,0
1582,38331,0
1600,38315,0
1648,38342,0
1728,38319,0
1836,38309,0
1973,38337,0
2152,38307,0
2242,38318,0
2336,38304,0
2400,38329,0
2448,38299,0
2436,38318,0
2408,38341,0
2312,38326,0
2189,38339,0
2036,38325,0
1932,38345,0
1818,38304,0
1690,38324,0
1608,38340,0
1572,38320,0
1560,38345,0
1616,38328,0
1708,38343,0
1846,38300,0
1990,38323,0
2140,38333,0
2268,38319,0
2324,38338,0
2384,38316,0
2404,38342,0
2401,38324,0
2352,38333,0
2280,38317,0
2166,38316,0
2000,38350,0
1880,38340,0
1772,38323,0
1684,38332,0
1632,38333,0
1600,38311,0
1616,38329,0
1652,38358,0
1780,38321,0
1898,38353,0
2036,38341,0
2183,38356,0
2296,38329,0
2408,38337,0
2432,38337,0
2472,38331,0
2432,38346,0
2392,38333,0
2248,38352,0
2116,38329,0
1992,38345,0
1872,38330,0
1738,38337,0
1648,38359,0
1590,38342,0
1581,38359,0
1610,38341,0
1641,38370,0
1770,38319,0
1888,38335,0
2056,38345,0
2192,38330,0
2272,38356,0
2372,38355,0
2426,38339,0
2452,38339,0
2432,38339,0
2380,38353,0
2280,38332,0
2156,38341,0
2024,38365,0
1900,38345,0
1760,38359,0
1696,38348,0
1632,38371,0
1620,38329,0
1632,38341,0
1704,38352,0
1812,38343,0
1970,38362,0
2072,38346,0
2196,38364,0
2312,38348,0
2432,38358,0
2501,38335,0
2513,38348,0
2506,38363,0
2420,38337,0
2292,38368,0
2160,38351,0
2038,38374,0
1917,38342,0
1796,38343,0
1624,38383,0
1606,38362,0
1626,38359,0
1690,38367,0
1793,38346,0
1936,38366,0
2056,38352,0
2192,38354,0
2303,38376,0
2416,38358,0
2452,38375,0
2467,38356,0
2424,38350,0
2388,38361,0
2248,38349,0
2148,38381,0
1996,38352,0
1880,38380,0
1760,38344,0
1680,38362,0
1644,38344,0
1622,38353,0
1651,38379,0
1717,38358,0
1816,38380,0
1958,38369,0
2053,38384,0
2208,38330,0
2274,38363,0
2350,38366,0
2416,38351,0
2425,38381,0
2340,38383,0
2260,38366,0
2136,38361,0
1994,38357,0
1833,38381,0
1688,38364,0
1578,38382,0
1475,38362,0
1417,38386,0
1410,38350,0
1448,38390,0
1548,38344,0
1688,38361,0
1888,38383,0
2052,38377,0
2296,38385,0
2481,38366,0
2664,38392,0
2752,38354,0
2874,38363,0
2928,38365,0
2994,38358,0
2938,38377,0
2856,38369,0
2760,38388,0
2642,38370,0
2520,38377,0
2436,38354,0
2390,38367,0
2358,38390,0
2408,38373,0
2482,38384,0
2480,38358,0
2544,38391,0
2684,38373,0
2768,38367,0
2832,38373,0
2856,38363,0
2856,38367,0
2816,38387,0
2768,38369,0
2656,38389,0
2536,38360,0
2416,38390,0
2276,38351,0
2208,38368,0
2108,38389,0
2084,38377,0
2020,38398,0
2084,38378,0
2084,38398,0
2172,38373,0
2284,38379,0
2449,38382,0
2572,38373,0
2688,38396,0
2778,38374,0
2816,38399,0
2800,38375,0
2784,38388,0
2708,38365,0
2604,38374,0
2488,38403,0
2360,38376,0
2144,38375,0
2032,38399,0
1904,38382,0
1837,38378,0
1788,38385,0
1789,38377,0
1824,38392,0
1906,38380,0
2042,38396,0
2136,38378,0
2256,38402,0
2416,38380,0
2450,38387,0
2530,38369,0
2520,38373,0
2544,38411,0
2464,38389,0
2384,38405,0
2240,38388,0
2100,38404,0
1968,38371,0
1880,38384,0
1792,38400,0
1728,38386,0
1702,38410,0
1712,38394,0
1768,38393,0
1872,38376,0
2001,38388,0
2138,38406,0
2296,38389,0
2412,38400,0
2464,38408,0
2520,38393,0
2552,38402,0
2537,38386,0
2474,38392,0
2376,38371,0
2248,38370,0
2104,38402,0
1962,38384,0
1840,38411,0
1746,38383,0
1708,38402,0
1640,38371,0
1664,38380,0
1712,38406,0
1824,38376,0
1920,38409,0
2088,38390,0
2212,38411,0
2336,38374,0
2448,38393,0
2560,38391,0
2592,38388,0
2592,38400,0
2534,38392,0
2438,38407,0
2276,38375,0
2129,38384,0
1988,38395,0
1869,38388,0
1800,38400,0
1724,38404,0
1676,38407,0
1677,38381,0
1733,38392,0
1832,38385,0
1953,38398,0
2092,38413,0
2228,38377,0
2341,38397,0
2432,38377,0
2488,38381,0
2522,38399,0
2556,38386,0
2452,38418,0
2384,38382,0
2240,38384,0
2136,38408,0
1992,38378,0
1893,38402,0
1872,38391,0
1738,38406,0
1720,38394,0
1760,38402,0
1808,38381,0
1952,38390,0
2042,38408,0
2176,38401,0
2320,38413,0
2400,38399,0
2520,38423,0
2554,38396,0
2600,38415,0
2584,38380,0
2480,38416,0
2376,38396,0
2241,38403,0
2113,38407,0
1984,38424,0
1872,38419,0
1784,38389,0
1732,38395,0
1732,38412,0
1732,38404,0
1804,38410,0
1900,38402,0
2032,38422,0
2186,38387,0
2288,38418,0
2448,38379,0
2524,38392,0
2564,38422,0
2576,38406,0
2568,38419,0
2488,38397,0
2440,38426,0
2307,38387,0
2170,38405,0
2038,38395,0
1940,38399,0
1840,38421,0
1810,38394,0
1796,38418,0
1824,38400,0
1904,38421,0
1996,38381,0
2122,38398,0
2224,38408,0
2344,38419,0
2436,38403,0
2524,38409,0
2578,38424,0
2576,38387,0
2548,38404,0
2472,38416,0
2364,38403,0
2264,38421,0
2107,38404,0
2000,38428,0
1880,38401,0
1784,38404,0
1752,38403,0
1732,38402,0
1769,38419,0
1877,38394,0
2000,38415,0
2104,38404,0
2276,38418,0
2404,38393,0
2533,38402,0
2608,38425,0
2656,38406,0
2628,38430,0
2598,38413,0
2517,38429,0
2417,38386,0
2338,38403,0
2167,38433,0
2012,38417,0
1931,38394,0
1828,38409,0
1777,38419,0
1785,38397,0
1805,38417,0
1920,38407,0
2004,38438,0
2128,38395,0
2280,38402,0
2400,38426,0
2528,38400,0
2592,38424,0
2664,38400,0
2648,38430,0
2648,38409,0
2564,38429,0
2464,38389,0
2300,38402,0
2172,38414,0
2047,38397,0
1989,38418,0
1895,38408,0
1856,38421,0
1837,38385,0
1882,38395,0
1940,38406,0
2060,38389,0
2178,38414,0
2296,38399,0
2472,38415,0
2596,38359,0
2636,38387,0
2684,38409,0
2618,38384,0
2548,38399,0
2436,38405,0
2308,38388,0
2181,38404,0
2064,38392,0
1960,38409,0
1896,38375,0
1866,38390,0
1844,38365,0
1909,38382,0
1970,38404,0
2090,38375,0
2208,38393,0
2392,38380,0
2456,38394,0
2568,38364,0
2688,38380,0
2740,38402,0
2746,38387,0
2704,38391,0
2618,38369,0
2508,38393,0
2376,38362,0
2209,38369,0
2092,38368,0
1998,38355,0
1936,38381,0
1884,38363,0
1866,38359,0
1904,38359,0
1992,38363,0
2096,38375,0
2232,38374,0
2352,38379,0
2484,38360,0
2624,38374,0
2644,38351,0
2684,38367,0
2688,38331,0
2655,38346,0
2558,38363,0
2472,38343,0
2304,38374,0
2184,38353,0
2044,38372,0
1964,38346,0
1897,38357,0
1817,38350,0
1820,38337,0
1881,38366,0
2004,38343,0
2089,38363,0
2216,38342,0
2346,38367,0
2442,38333,0
2538,38342,0
2612,38350,0
2649,38334,0
2680,38357,0
2624,38342,0
2504,38335,0
2354,38364,0
2212,38327,0
2072,38355,0
1936,38334,0
1841,38348,0
1760,38339,0
1716,38332,0
1724,38356,0
1753,38345,0
1841,38350,0
1984,38336,0
2088,38349,0
2244,38313,0
2336,38342,0
2448,38358,0
2484,38334,0
2548,38356,0
2506,38335,0
2448,38352,0
2388,38327,0
2282,38327,0
2132,38358,0
1996,38333,0
1876,38354,0
1778,38337,0
1689,38351,0
1654,38323,0
1678,38329,0
1704,38353,0
1825,38337,0
1920,38352,0
2032,38333,0
2162,38328,0
2264,38360,0
2354,38343,0
2400,38334,0
2458,38341,0
2424,38328,0
2362,38355,0
2266,38326,0
2148,38358,0
2012,38327,0
1890,38338,0
1768,38329,0
1688,38334,0
1600,38343,0
1580,38336,0
1576,38353,0
1640,38331,0
1708,38335,0
1834,38309,0
1972,38325,0
2112,38353,0
2232,38332,0
2320,38348,0
2378,38331,0
2432,38347,0
2356,38318,0
2296,38324,0
2194,38325,0
2082,38327,0
1952,38341,0
1820,38328,0
1684,38332,0
1600,38331,0
1535,38324,0
1512,38331,0
1524,38311,0
1592,38346,0
1688,38317,0
1824,38335,0
1960,38322,0
2089,38333,0
2216,38315,0
2317,38329,0
2356,38308,0
2436,38318,0
2360,38343,0
2328,38324,0
2196,38337,0
2092,38330,0
1932,38334,0
1800,38298,0
1682,38324,0
1618,38331,0
1539,38313,0
1524,38351,0
1524,38327,0
1582,38344,0
1676,38308,0
1798,38343,0
1930,38291,0
1682,38314,0
2208,38338,0
2296,38323,0
2312,38314,0
2328,38324,0
2320,38330,0
2256,38324,0
2152,38312,0
2024,38315,0
1892,38306,0
1760,38323,0
1645,38346,0
1572,38315,0
1516,38344,0
1505,38316,0
1518,38338,0
1600,38309,0
1684,38307,0
1828,38333,0
1924,38319,0
2096,38326,0
2160,38313,0
2242,38352,0
2288,38311,0
2344,38307,0
2315,38315,0
2244,38305,0
2133,38338,0
2012,38310,0
1862,38335,0
1779,38311,0
1635,38333,0
1576,38293,0
1536,38317,0
1488,38323,0
1498,38321,0
1570,38319,0
1672,38316,0
1792,38331,0
1920,38332,0
2042,38343,0
2144,38316,0
2224,38326,0
2288,38294,0
2278,38311,0
2256,38334,0
2204,38319,0
2084,38335,0
1976,38314,0
1844,38340,0
1736,38310,0
1604,38314,0
1560,38310,0
1506,38312,0
1480,38334,0
1576,38320,0
1594,38336,0
1702,38314,0
1826,38339,0
1979,38296,0
2077,38323,0
2164,38340,0
2244,38314,0
2282,38347,0
2296,38324,0
2288,38346,0
2208,38313,0
2084,38318,0
1960,38321,0
1808,38333,0
1704,38308,0
1586,38334,0
1528,38319,0
1474,38338,0
1474,38314,0
1513,38348,0
1572,38326,0
1690,38323,0
1826,38298,0
1952,38320,0
2090,38338,0
2193,38309,0
2256,38335,0
2264,38328,0
2314,38344,0
2284,38301,0
2168,38311,0
2060,38330,0
1954,38308,0
1813,38340,0
1696,38318,0
1578,38337,0
1510,38309,0
1452,38326,0
1449,38305,0
1488,38319,0
1573,38336,0
1696,38318,0
1864,38341,0
1962,38316,0
2072,38321,0
2180,38304,0
2240,38320,0
2296,38317,0
2300,38326,0
2256,38321,0
2164,38341,0
2058,38318,0
1925,38332,0
1792,38312,0
1672,38316,0
1570,38307,0
1516,38319,0
1464,38339,0
1456,38319,0
1481,38336,0
1596,38313,0
1700,38339,0
1808,38298,0
1936,38311,0
2089,38338,0
2184,38308,0
2261,38328,0
2304,38312,0
2298,38337,0
2240,38314,0
2144,38316,0
2045,38318,0
1917,38312,0
1812,38327,0
1560,38313,0
1497,38334,0
1466,38301,0
1472,38315,0
1512,38308,0
1596,38316,0
1713,38323,0
1874,38316,0
1976,38305,0
2096,38337,0
2216,38309,0
2272,38326,0
2296,38315,0
2306,38321,0
2232,38301,0
2160,38300,0
2017,38338,0
1916,38305,0
1776,38332,0
1628,38315,0
1556,38330,0
1514,38290,0
1461,38306,0
1477,38324,0
1525,38299,0
1621,38321,0
1740,38301,0
1868,38327,0
2004,38291,0
2128,38307,0
2248,38304,0
2316,38305,0
2300,38313,0
2296,38299,0
2248,38310,0
2164,38313,0
2024,38314,0
1944,38326,0
1753,38285,0
1656,38301,0
1556,38326,0
1488,38306,0
1465,38320,0
1471,38305,0
1520,38326,0
1624,38281,0
1730,38300,0
1904,38310,0
2004,38296,0
2144,38330,0
2224,38299,0
2316,38317,0
2297,38297,0
2368,38321,0
2281,38282,0
2188,38291,0
2068,38317,0
1937,38307,0
1784,38319,0
1661,38305,0
1577,38322,0
1513,38285,0
1496,38298,0
1520,38290,0
1560,38299,0
1652,38295,0
1776,38329,0
1904,38292,0
2020,38294,0
2134,38327,0
2216,38294,0
2268,38311,0
2300,38306,0
2314,38298,0
2212,38323,0
2129,38301,0
1996,38321,0
1888,38311,0
1733,38330,0
1668,38283,0
1568,38307,0
1512,38319,0
1492,38306,0
1509,38320,0
1588,38304,0
1720,38321,0
1832,38291,0
1984,38293,0
2113,38305,0
2240,38298,0
2292,38326,0
1860,38305,0
2363,38326,0
2342,38303,0
2296,38297,0
2184,38299,0
2024,38329,0
1892,38308,0
1752,38305,0
1632,38307,0
1546,38314,0
1496,38295,0
1472,38324,0
1498,38302,0
1554,38330,0
1668,38307,0
1796,38336,0
1956,38300,0
2072,38317,0
2224,38289,0
2288,38302,0
2368,38330,0
2400,38318,0
2372,38329,0
2292,38307,0
2193,38337,0
2064,38288,0
1956,38309,0
1824,38339,0
1696,38306,0
1609,38327,0
1552,38315,0
1520,38325,0
1064,38294,0
1600,38315,0
1690,38332,0
1840,38312,0
1974,38331,0
2072,38328,0
2186,38327,0
2272,38310,0
2328,38319,0
2322,38319,0
2304,38311,0
2240,38328,0
2136,38299,0
2020,38297,0
1873,38334,0
1748,38304,0
1674,38324,0
1568,38308,0
1552,38331,0
1505,38291,0
1540,38299,0
1610,38323,0
1736,38297,0
1864,38325,0
1984,38317,0
2120,38333,0
2258,38296,0
2370,38311,0
2388,38318,0
2400,38322,0
2378,38333,0
2276,38306,0
2168,38330,0
2021,38306,0
1908,38323,0
1788,38296,0
1696,38306,0
1577,38332,0
1553,38319,0
1508,38304,0
1542,38333,0
1628,38304,0
1756,38308,0
1892,38302,0
1996,38326,0
2144,38313,0
2234,38339,0
2312,38294,0
2373,38308,0
2372,38309,0
2376,38304,0
2272,38326,0
2180,38309,0
2032,38328,0
1908,38316,0
1770,38313,0
1664,38319,0
1601,38317,0
1562,38331,0
1556,38309,0
1612,38333,0
1674,38312,0
1796,38329,0
1922,38294,0
2052,38308,0
2178,38325,0
2300,38310,0
2416,38322,0
2432,38317,0
2392,38317,0
2360,38316,0
2276,38330,0
2174,38312,0
2040,38330,0
1932,38329,0
1788,38312,0
1690,38338,0
1612,38286,0
1577,38310,0
1552,38313,0
1624,38311,0
1689,38323,0
1796,38310,0
1916,38330,0
2068,38317,0
2172,38328,0
2288,38287,0
2344,38312,0
2432,38326,0
2412,38308,0
2408,38336,0
2322,38310,0
2229,38327,0
2080,38298,0
1946,38295,0
1808,38302,0
1712,38308,0
1636,38320,0
1629,38306,0
1648,38327,0
1668,38317,0
1732,38305,0
1842,38338,0
1962,38327,0
2082,38339,0
2216,38296,0
2308,38297,0
2368,38326,0
2400,38310,0
2392,38321,0
2342,38309,0
2260,38331,0
2158,38300,0
2036,38311,0
1888,38304,0
1762,38302,0
1656,38323,0
1580,38300,0
1552,38317,0
1560,38319,0
1620,38331,0
1690,38287,0
1868,38304,0
2010,38324,0
2122,38304,0
2250,38321,0
2360,38308,0
2388,38328,0
2464,38294,0
2416,38309,0
2382,38299,0
2308,38304,0
2195,38333,0
2025,38318,0
1912,38311,0
1824,38316,0
1700,38301,0
1664,38293,0
1610,38302,0
1636,38301,0
1652,38307,0
1768,38322,0
1880,38303,0
2016,38327,0
2187,38301,0
2256,38323,0
2384,38295,0
2400,38298,0
2480,38314,0
2424,38308,0
2388,38323,0
2272,38309,0
2180,38323,0
2044,38282,0
1920,38301,0
1785,38325,0
1718,38309,0
1644,38318,0
1616,38293,0
1620,38328,0
1670,38296,0
1766,38316,0
1932,38292,0
2058,38307,0
2280,38309,0
2372,38315,0
2428,38301,0
2460,38308,0
2448,38308,0
2393,38297,0
2288,38317,0
2168,38301,0
2032,38325,0
1908,38304,0
1734,38320,0
1718,38291,0
1680,38303,0
1628,38327,0
1636,38301,0
1698,38322,0
1790,38307,0
1928,38334,0
2047,38277,0
2180,38296,0
2336,38320,0
2432,38298,0
2489,38321,0
2506,38306,0
2504,38320,0
2424,38283,0
2316,38292,0
2198,38297,0
2064,38300,0
1944,38332,0
1856,38298,0
1765,38316,0
1688,38309,0
1637,38280,0
1672,38307,0
1723,38298,0
1824,38326,0
1946,38290,0
2084,38305,0
2212,38291,0
2316,38321,0
2392,38300,0
2452,38330,0
2521,38295,0
2456,38299,0
2424,38290,0
2288,38295,0
2184,38315,0
2018,38285,0
1904,38312,0
1776,38300,0
1696,38328,0
1644,38286,0
1648,38292,0
1704,38288,0
1750,38294,0
1864,38325,0
1988,38292,0
2116,38313,0
2256,38295,0
2361,38321,0
2057,38281,0
2530,38287,0
2560,38307,0
2496,38287,0
2426,38286,0
2304,38307,0
2180,38276,0
2047,38287,0
1920,38318,0
1816,38289,0
1736,38293,0
1690,38314,0
1682,38297,0
1712,38322,0
1789,38297,0
1904,38317,0
2072,38301,0
2196,38316,0
2344,38290,0
2434,38296,0
2548,38314,0
2576,38306,0
2596,38326,0
2558,38301,0
2544,38324,0
2413,38295,0
2282,38301,0
2131,38286,0
1994,38288,0
1856,38322,0
1802,38297,0
1732,38316,0
1724,38304,0
1762,38319,0
1840,38292,0
1952,38308,0
2020,38300,0
2192,38304,0
2322,38311,0
2424,38313,0
2500,38285,0
2540,38293,0
2544,38325,0
2506,38307,0
2428,38314,0
2320,38306,0
2189,38326,0
2068,38305,0
1946,38314,0
1816,38300,0
1752,38306,0
1696,38328,0
1700,38298,0
1720,38321,0
1790,38307,0
1888,38328,0
2082,38291,0
2192,38301,0
2306,38319,0
2432,38294,0
2500,38317,0
2520,38305,0
2542,38336,0
2505,38301,0
2426,38320,0
2352,38285,0
2217,38297,0
2045,38323,0
1930,38310,0
1840,38310,0
1748,38310,0
1696,38336,0
1688,38310,0
1728,38323,0
1808,38304,0
1920,38308,0
2054,38301,0
2186,38311,0
2328,38336,0
2412,38302,0
2520,38319,0
2532,38312,0
2560,38324,0
2490,38281,0
2420,38298,0
2306,38323,0
2152,38300,0
2016,38329,0
1920,38308,0
1808,38321,0
1746,38318,0
1715,38331,0
1720,38285,0
1736,38295,0
1820,38330,0
1941,38297,0
2072,38315,0
2272,38306,0
2384,38324,0
2416,38300,0
2488,38308,0
2512,38294,0
2544,38314,0
2512,38297,0
2386,38302,0
2268,38308,0
2140,38300,0
2000,38323,0
1884,38300,0
1788,38330,0
1727,38297,0
1684,38322,0
1708,38295,0
1729,38307,0
1830,38328,0
1948,38301,0
2112,38327,0
2232,38311,0
2352,38334,0
2440,38297,0
2552,38306,0
2596,38312,0
2588,38298,0
2538,38329,0
2450,38305,0
2297,38324,0
2180,38302,0
2024,38330,0
1902,38288,0
1812,38304,0
1750,38326,0
1680,38303,0
1708,38330,0
1728,38298,0
1804,38317,0
1928,38338,0
2100,38312,0
2194,38332,0
2320,38302,0
2424,38327,0
2496,38311,0
2532,38330,0
2546,38298,0
2484,38306,0
2426,38318,0
2272,38309,0
2160,38334,0
2024,38310,0
1897,38334,0
1820,38310,0
1728,38324,0
1698,38292,0
1730,38309,0
1784,38328,0
1872,38321,0
2022,38331,0
2137,38316,0
2240,38329,0
2356,38296,0
2444,38311,0
2496,38325,0
2544,38310,0
2516,38329,0
2408,38336,0
2312,38328,0
2184,38300,0
2040,38323,0
1908,38313,0
1778,38295,0
1672,38320,0
1588,38332,0
1556,38317,0
1545,38336,0
1584,38312,0
1672,38327,0
1776,38312,0
1924,38328,0
2074,38291,0
2192,38309,0
2288,38332,0
2412,38304,0
2506,38321,0
2538,38315,0
2568,38331,0
2600,38313,0
2568,38309,0
2544,38308,0
2472,38310,0
2441,38330,0
2412,38312,0
2392,38328,0
2392,38310,0
2444,38341,0
2528,38302,0
2664,38309,0
2704,38304,0
2824,38334,0
2924,38306,0
3008,38324,0
3056,38325,0
3088,38308,0
3071,38324,0
3012,38297,0
2936,38310,0
2770,38333,0
2608,38318,0
2453,38328,0
2288,38315,0
2194,38336,0
2088,38317,0
2048,38326,0
2024,38302,0
2084,38308,0
2176,38335,0
2276,38319,0
2416,38338,0
2610,38310,0
2753,38336,0
2865,38306,0
2956,38314,0
3004,38312,0
2976,38311,0
2960,38339,0
2858,38324,0
2740,38329,0
2608,38322,0
2240,38326,0
2112,38311,0
2001,38319,0
1917,38331,0
1892,38323,0
1888,38326,0
1946,38345,0
2042,38315,0
2154,38324,0
2316,38313,0
2436,38320,0
2530,38342,0
2588,38317,0
2672,38342,0
2642,38322,0
2640,38347,0
2528,38310,0
2440,38341,0
2276,38308,0
2144,38321,0
2016,38349,0
1912,38322,0
1810,38341,0
1764,38323,0
1746,38347,0
1773,38316,0
1840,38333,0
1931,38331,0
2070,38323,0
2240,38345,0
2360,38326,0
2480,38349,0
2528,38326,0
2568,38318,0
2584,38345,0
2553,38320,0
2512,38338,0
2370,38322,0
2240,38354,0
2097,38327,0
1986,38351,0
1900,38313,0
1784,38327,0
1760,38332,0
1728,38329,0
1766,38349,0
1848,38345,0
1992,38349,0
2080,38322,0
2240,38340,0
2352,38319,0
2450,38321,0
2528,38350,0
2624,38334,0
2630,38339,0
2624,38320,0
2532,38346,0
2406,38325,0
2276,38336,0
2104,38342,0
1962,38326,0
1868,38348,0
1824,38332,0
1752,38360,0
1708,38327,0
1750,38336,0
1833,38335,0
1937,38336,0
2076,38347,0
2208,38320,0
2336,38345,0
2456,38304,0
2528,38331,0
2568,38340,0
2576,38329,0
2543,38352,0
2488,38335,0
2368,38350,0
2196,38326,0
2092,38333,0
1936,38332,0
1850,38316,0
1764,38355,0
1728,38329,0
1720,38346,0
1788,38329,0
1864,38339,0
1996,38305,0
2144,38323,0
2273,38349,0
2392,38325,0
2508,38344,0
2577,38324,0
2728,38350,0
2648,38319,0
2600,38330,0
2480,38334,0
2344,38332,0
2208,38357,0
2072,38324,0
1952,38336,0
1844,38345,0
1780,38327,0
1768,38349,0
1740,38326,0
1790,38340,0
1876,38326,0
2006,38332,0
2128,38320,0
2292,38329,0
2404,38367,0
2512,38329,0
2552,38354,0
2624,38334,0
2594,38358,0
2540,38320,0
2448,38330,0
2369,38344,0
2242,38323,0
2112,38352,0
1952,38335,0
1888,38350,0
1786,38319,0
1737,38342,0
1746,38337,0
1824,38328,0
1898,38357,0
2024,38330,0
2136,38337,0
2272,38337,0
2400,38371,0
2458,38351,0
2568,38341,0
2612,38355,0
2596,38337,0
2544,38348,0
2460,38318,0
2336,38337,0
2184,38343,0
2071,38328,0
1956,38355,0
1876,38339,0
1768,38353,0
1749,38329,0
1748,38349,0
1816,38314,0
1888,38340,0
2024,38359,0
2144,38334,0
2324,38353,0
2450,38335,0
2548,38347,0
2618,38328,0
2650,38336,0
2616,38321,0
2576,38327,0
2472,38355,0
2356,38328,0
2256,38347,0
2136,38334,0
1968,38338,0
1862,38333,0
1796,38344,0
1764,38332,0
1772,38343,0
1829,38362,0
1924,38321,0
2052,38330,0
2228,38351,0
2336,38324,0
2456,38348,0
2555,38327,0
2600,38344,0
2672,38324,0
2652,38334,0
2596,38321,0
2464,38318,0
2376,38345,0
2212,38327,0
2072,38340,0
1952,38328,0
1882,38348,0
1836,38298,0
1816,38325,0
1811,38350,0
1889,38316,0
2000,38336,0
2102,38321,0
2237,38338,0
2394,38316,0
2536,38320,0
2636,38304,0
2640,38336,0
2674,38314,0
2656,38303,0
2640,38325,0
2496,38298,0
2380,38336,0
2244,38283,0
2116,38299,0
2000,38310,0
1922,38309,0
1866,38329,0
1846,38303,0
1856,38328,0
1936,38292,0
2012,38300,0
2184,38297,0
2272,38295,0
2436,38313,0
2520,38292,0
2608,38316,0
2664,38302,0
2728,38327,0
2712,38269,0
2656,38297,0
2586,38300,0
2419,38291,0
2252,38306,0
2138,38282,0
2009,38317,0
1945,38268,0
1913,38274,0
1897,38284,0
1890,38276,0
1960,38308,0
2072,38272,0
2201,38272,0
2344,38267,0
2464,38299,0
2576,38279,0
2674,38278,0
2704,38268,0
2720,38266,0
2712,38293,0
2644,38276,0
2524,38277,0
2408,38268,0
2234,38283,0
2114,38252,0
1982,38267,0
1948,38287,0
1872,38266,0
1832,38287,0
1900,38257,0
1968,38285,0
2080,38254,0
2208,38258,0
2353,38251,0
2488,38261,0
2576,38281,0
2646,38253,0
2692,38273,0
2744,38262,0
2720,38280,0
2632,38245,0
2466,38269,0
2356,38256,0
2200,38253,0
2056,38281,0
1952,38263,0
1856,38268,0
1796,38268,0
1784,38278,0
1812,38240,0
1892,38261,0
2002,38261,0
2136,38260,0
2266,38282,0
2452,38249,0
2504,38278,0
2618,38259,0
2628,38280,0
2672,38237,0
2601,38245,0
2528,38272,0
2400,38259,0
2304,38267,0
2195,38241,0
2026,38271,0
1922,38246,0
1840,38265,0
1808,38228,0
1776,38246,0
1800,38265,0
1880,38243,0
2000,38269,0
2244,38241,0
2372,38241,0
2472,38249,0
2554,38255,0
2600,38243,0
2602,38258,0
2564,38240,0
2516,38255,0
2372,38236,0
2252,38240,0
2096,38230,0
1978,38234,0
1864,38266,0
1820,38232,0
1746,38250,0
1754,38239,0
1800,38254,0
1856,38220,0
1973,38229,0
2105,38237,0
2272,38227,0
2404,38246,0
2512,38230,0
2581,38254,0
2632,38234,0
2640,38233,0
2568,38237,0
2484,38227,0
2359,38247,0
2232,38227,0
2113,38241,0
1976,38226,0
1840,38241,0
1768,38220,0
1740,38230,0
1736,38230,0
1776,38231,0
1888,38218,0
1972,38217,0
2108,38252,0
2248,38219,0
2378,38244,0
2480,38223,0
2577,38242,0
2600,38201,0
2640,38219,0
2556,38222,0
2484,38226,0
2340,38242,0
2228,38218,0
2064,38231,0
1940,38216,0
1828,38242,0
1776,38196,0
1738,38220,0
1755,38237,0
1800,38211,0
1868,38240,0
1974,38211,0
2120,38239,0
2264,38201,0
2406,38220,0
2521,38195,0
2598,38205,0
2580,38216,0
2628,38222,0
2584,38211,0
2464,38221,0
2336,38205,0
2212,38215,0
2056,38231,0
1937,38217,0
1840,38228,0
1770,38203,0
1744,38201,0
1740,38204,0
1784,38203,0
1884,38230,0
1984,38206,0
2144,38226,0
2266,38209,0
2408,38233,0
2520,38183,0
2568,38203,0
2596,38218,0
2664,38201,0
2588,38219,0
2490,38202,0
2360,38227,0
2224,38197,0
2064,38203,0
1945,38203,0
1872,38198,0
1780,38218,0
1772,38208,0
1765,38220,0
1790,38210,0
1890,38212,0
2040,38191,0
2160,38227,0
2292,38206,0
2400,38188,0
2528,38218,0
2552,38198,0
2548,38223,0
2612,38183,0
2528,38191,0
2455,38221,0
2314,38199,0
2200,38209,0
2040,38198,0
1930,38224,0
1858,38197,0
1796,38198,0
1744,38191,0
1752,38195,0
1810,38215,0
1940,38201,0
2072,38222,0
2216,38199,0
2394,38216,0
2484,38176,0
2560,38200,0
2617,38197,0
2652,38187,0
2628,38220,0
2608,38206,0
2497,38214,0
2346,38212,0
2184,38201,0
2040,38196,0
1940,38197,0
1840,38218,0
1776,38200,0
1736,38217,0
1756,38189,0
1820,38207,0
1913,38170,0
2053,38189,0
2184,38190,0
2316,38188,0
2500,38207,0
2564,38183,0
2632,38206,0
2632,38191,0
2640,38210,0
2564,38161,0
2472,38185,0
2368,38194,0
2232,38174,0
2088,38208,0
1963,38187,0
1874,38205,0
1798,38184,0
1786,38207,0
1788,38175,0
1824,38189,0
1964,38212,0
2104,38179,0
2240,38208,0
2340,38186,0
2460,38182,0
2544,38215,0
2600,38194,0
2648,38195,0
2592,38207,0
2536,38173,0
2424,38173,0
2300,38203,0
2148,38190,0
2016,38213,0
1931,38187,0
1816,38207,0
1776,38184,0
1744,38189,0
1780,38184,0
1840,38182,0
1964,38215,0
2080,38189,0
2216,38200,0
2348,38181,0
2504,38201,0
2600,38165,0
2660,38175,0
2678,38192,0
2656,38180,0
2546,38211,0
2435,38185,0
2290,38201,0
2171,38169,0
2040,38194,0
1926,38166,0
1834,38174,0
1762,38183,0
1770,38176,0
1772,38195,0
1844,38206,0
1956,38171,0
2072,38202,0
2216,38184,0
2380,38202,0
2460,38179,0
2568,38188,0
2595,38168,0
2592,38176,0
2586,38203,0
2472,38183,0
2384,38205,0
2256,38184,0
2120,38205,0
1962,38170,0
1844,38182,0
1800,38195,0
1732,38169,0
1746,38203,0
1752,38182,0
1828,38205,0
1948,38184,0
2074,38183,0
2216,38167,0
2343,38175,0
2468,38208,0
2560,38181,0
2628,38203,0
2576,38190,0
2548,38189,0
2464,38167,0
2352,38199,0
2224,38156,0
2072,38184,0
1976,38192,0
1829,38178,0
1760,38202,0
1716,38183,0
1698,38199,0
1762,38162,0
1820,38178,0
1968,38168,0
2076,38173,0
2248,38197,0
2364,38182,0
2480,38197,0
2559,38185,0
2576,38202,0
2592,38157,0
2600,38166,0
2514,38169,0
2392,38171,0
2248,38193,0
2104,38184,0
1952,38201,0
1846,38164,0
1777,38174,0
1722,38172,0
1722,38176,0
1760,38189,0
1832,38182,0
1940,38192,0
2084,38173,0
2226,38179,0
2360,38175,0
2468,38191,0
2544,38173,0
2584,38193,0
2584,38154,0
2536,38172,0
2456,38187,0
2358,38170,0
2208,38192,0
2080,38178,0
1936,38199,0
1840,38173,0
1748,38187,0
1714,38156,0
1704,38173,0
1756,38189,0
1856,38173,0
1972,38193,0
2117,38181,0
2266,38201,0
2390,38157,0
2488,38173,0
2564,38194,0
2578,38180,0
2596,38199,0
2526,38179,0
2496,38190,0
2160,38181,0
2024,38182,0
1904,38160,0
1808,38191,0
1738,38178,0
1706,38165,0
1700,38167,0
1744,38201,0
1832,38178,0
1952,38194,0
2081,38176,0
2237,38200,0
2340,38175,0
2480,38203,0
2520,38171,0
2580,38173,0
2544,38192,0
2556,38172,0
2408,38204,0
2292,38175,0
2192,38194,0
2054,38174,0
1928,38198,0
1825,38157,0
1756,38171,0
1716,38185,0
1712,38177,0
1794,38202,0
1869,38187,0
1988,38200,0
2148,38174,0
2276,38177,0
2360,38181,0
2456,38192,0
2536,38194,0
2552,38204,0
2544,38180,0
2484,38175,0
2392,38192,0
2257,38161,0
2120,38183,0
1984,38179,0
1844,38171,0
1768,38192,0
1704,38183,0
1696,38202,0
1692,38178,0
1792,38195,0
1845,38163,0
1994,38172,0
2120,38195,0
2288,38175,0
2400,38191,0
2516,38183,0
2577,38201,0
2605,38165,0
2632,38182,0
2528,38205,0
2400,38168,0
2272,38206,0
2134,38174,0
2010,38196,0
1880,38174,0
1778,38186,0
1700,38188,0
1690,38185,0
1706,38199,0
1732,38190,0
1842,38177,0
1972,38168,0
2114,38208,0
2258,38181,0
2376,38207,0
2464,38172,0
2532,38207,0
2573,38178,0
2556,38192,0
2512,38160,0
2404,38183,0
2304,38194,0
2136,38180,0
1984,38192,0
1842,38181,0
1760,38205,0
1720,38164,0
1685,38182,0
1709,38177,0
1766,38169,0
1874,38196,0
2020,38179,0
2144,38207,0
2288,38186,0
2404,38196,0
2508,38165,0
2600,38172,0
2632,38195,0
2536,38204,0
2476,38180,0
2392,38198,0
2225,38187,0
2082,38178,0
1946,38177,0
1824,38195,0
1676,38182,0
1680,38208,0
1684,38172,0
1672,38185,0
1773,38194,0
1848,38182,0
2020,38204,0
2116,38180,0
2272,38209,0
2384,38185,0
2504,38194,0
2552,38170,0
2544,38177,0
2521,38198,0
2488,38186,0
2384,38211,0
2268,38179,0
2096,38201,0
1969,38174,0
1824,38193,0
1757,38164,0
1677,38180,0
1682,38199,0
1712,38174,0
1786,38199,0
1877,38169,0
1996,38187,0
2160,38184,0
2289,38193,0
2428,38203,0
2492,38180,0
2538,38197,0
2559,38175,0
2528,38205,0
2458,38187,0
2368,38209,0
2248,38176,0
2047,38195,0
1944,38182,0
1824,38182,0
1738,38204,0
1696,38176,0
1664,38208,0
1720,38192,0
1760,38195,0
1874,38169,0
2048,38187,0
2185,38201,0
2336,38191,0
2448,38208,0
2541,38184,0
2564,38208,0
2581,38171,0
2549,38192,0
2458,38207,0
2384,38182,0
2240,38212,0
2088,38181,0
1928,38202,0
1816,38225,0
1728,38223,0
1684,38191,0
1656,38187,0
1696,38214,0
1776,38201,0
1892,38216,0
2032,38195,0
2174,38223,0
2330,38179,0
2420,38200,0
2544,38181,0
2548,38192,0
2596,38213,0
2558,38199,0
2468,38211,0
2314,38195,0
2176,38205,0
2024,38200,0
1920,38197,0
1804,38212,0
1718,38196,0
1666,38212,0
1688,38206,0
1688,38219,0
1804,38183,0
1900,38204,0
2055,38171,0
2216,38193,0
2368,38214,0
2448,38189,0
2508,38209,0
2580,38190,0
2564,38207,0
2528,38189,0
2440,38194,0
2312,38214,0
2174,38204,0
2026,38220,0
1896,38204,0
1780,38236,0
1727,38203,0
1684,38221,0
1696,38207,0
1728,38192,0
1836,38230,0
1938,38206,0
2100,38222,0
2240,38206,0
2360,38228,0
2464,38192,0
2584,38206,0
2612,38222,0
2616,38197,0
2576,38227,0
2480,38209,0
2328,38223,0
2181,38206,0
2033,38215,0
1913,38201,0
1816,38201,0
1741,38227,0
1670,38209,0
1668,38225,0
1712,38200,0
1824,38218,0
1928,38201,0
2064,38230,0
2220,38210,0
2345,38221,0
2444,38189,0
2508,38199,0
2548,38229,0
2560,38204,0
2512,38213,0
2448,38211,0
2288,38232,0
2169,38192,0
2004,38206,0
1892,38205,0
1780,38202,0
1724,38231,0
1680,38215,0
1717,38231,0
1744,38219,0
1840,38233,0
2000,38196,0
2117,38208,0
2240,38222,0
2381,38199,0
2481,38222,0
2544,38212,0
2628,38236,0
2608,38206,0
2512,38214,0
2424,38214,0
2292,38224,0
2144,38231,0
2008,38204,0
1876,38213,0
1776,38219,0
1720,38236,0
1692,38219,0
1672,38232,0
1732,38207,0
1850,38227,0
1960,38207,0
2166,38214,0
2240,38216,0
