2272
2264
2240
2240
2216
2234
2240
2264
2300
2386
2466
2496
2512
2528
2529
2530
2532
2504
2476
2438
2392
2356
2312
2288
2280
2276
2272
2282
2321
2356
2385
2418
2370
2408
2412
2420
2401
2410
2386
2361
2306
2320
2336
2304
2278
2282
2273
2285
2297
2330
2354
2392
2420
2444
2451
2464
2465
2444
2432
2400
2368
2336
2316
2288
2200
2200
2196
2196
2240
2256
2280
2306
2320
2384
2436
2434
2440
2424
2396
2376
2352
2313
2296
2268
2260
2261
2267
2281
2314
2328
2361
2402
2428
2437
2456
2453
2364
2364
2306
2285
2252
2220
2192
2156
2166
2160
2208
2192
2196
2224
2236
2265
2284
2314
2353
2373
2396
2408
2464
2432
2452
2457
2476
2509
2545
2604
2672
2756
2777
2884
3032
3168
3280
3432
3536
3616
3676
3808
3904
3904
3904
3884
3844
3797
3746
3680
3600
3528
3442
3345
3250
3136
3064
2930
2817
2704
2596
2488
2354
2257
2090
2008
1936
1870
1812
1800
1768
1768
1764
1804
1840
1858
1868
1874
1880
1856
1836
1812
1772
1740
1696
1650
1616
1592
1568
1561
1568
1593
1602
1640
1669
1696
1676
1692
1696
1708
1696
1706
1674
1656
1616
1617
1610
1600
1584
1586
1593
1621
1648
1672
1703
1734
1762
1792
1808
1809
1814
1813
1810
1792
1762
1728
1716
1697
1643
1650
1660
1678
1706
1736
1768
1796
1804
1866
1913
1920
1916
1906
1881
1864
1832
1804
1792
1774
1769
1768
1816
1804
1828
1858
1890
1929
1946
1976
1992
2001
1936
1940
1924
1904
1872
1856
1836
1810
1790
1824
1856
1872
1900
1929
1964
1996
2029
2049
2060
2068
2065
2066
2037
2013
1992
1958
1944
1930
1909
1925
1926
1945
1904
1944
1976
2000
2012
2052
2052
2052
2042
2056
2072
2048
2016
1980
1952
1929
1920
1913
1932
1952
1968
2005
2048
2080
2114
2136
2156
2164
2160
2176
2144
2114
2018
2004
1970
1952
1928
1944
1944
1962
1968
2042
2096
2116
2150
2162
2176
2180
2180
2166
2150
2146
2116
2105
2085
2070
2057
2064
2070
2092
2112
2144
2176
2194
2176
2184
2192
2200
2192
2200
2192
2165
2144
2160
2181
2180
2176
2180
2197
2216
2264
2273
2306
2337
2364
2388
2400
2406
2401
2400
2373
2360
2340
2320
2304
2304
2208
2228
2226
2248
2250
2288
2300
2316
2332
2380
2425
2422
2416
2394
2368
2345
2336
2306
2292
2281
2274
2276
2291
2312
2328
2348
2368
2384
2393
2416
2416
2424
2326
2322
2298
2276
2248
2240
2212
2200
2172
2208
2242
2265
2280
2296
2312
2336
2348
2360
2377
2373
2376
2368
2346
2340
2320
2304
2276
2266
2256
2262
2260
2274
2212
2240
2264
2244
2292
2312
2320
2308
2290
2312
2340
2314
2293
2274
2258
2250
2240
2240
2260
2276
2292
2324
2352
2373
2394
2400
2417
2410
2408
2392
2368
2336
2236
2216
2192
2178
2168
2188
2192
2204
2216
2280
2348
2369
2394
2400
2405
2403
2396
2380
2352
2332
2310
2284
2264
2248
2232
2232
2246
2264
2280
2304
2328
2354
2288
2320
2316
2320
2296
2306
2280
2256
2214
2234
2246
2240
2232
2224
2240
2250
2282
2305
2328
2356
2373
2389
2384
2384
2376
2360
2340
2310
2276
2252
2234
2226
2128
2152
2156
2168
2176
2218
2240
2258
2268
2320
2372
2368
2368
2344
2329
2305
2284
2258
2234
2224
2212
2214
2224
2232
2250
2276
2304
2328
2353
2369
2378
2380
2296
2296
2276
2252
2212
2200
2176
2160
2133
2184
2210
2217
2233
2260
2272
2304
2328
2322
2337
2336
2336
2313
2304
2272
2258
2244
2224
2217
2217
2224
2240
2260
2210
2252
2272
2302
2320
2352
2352
2353
2348
2392
2416
2390
2368
2352
2320
2306
2296
2296
2294
2304
2312
2337
2362
2373
2386
2393
2408
2400
2378
2358
2325
2288
2188
2168
2124
2108
2080
2092
2082
2092
2106
2162
2224
2240
2256
2272
2276
2276
2280
2272
2249
2232
2224
2200
2194
2179
2178
2186
2198
2208
2226
2242
2273
2294
2216
2232
2242
2244
2218
2232
2208
2186
2154
2176
2200
2184
2198
2185
2184
2200
2224
2224
2248
2262
2281
2294
2294
2304
2284
2276
2246
2228
2216
2194
2178
2176
2098
2116
2118
2132
2152
2196
2212
2224
2272
2280
2316
2304
2282
2257
2226
2202
2180
2176
2160
2176
2200
2228
2272
2336
2394
2468
2528
2593
2657
2723
2776
2838
2788
2876
2924
3000
3060
3164
3240
3328
3394
3536
3680
3736
3800
3864
3896
3925
3936
3908
3873
3812
3720
3600
3480
3338
3180
3032
2885
2745
2624
2504
2408
2332
2180
2130
2084
2056
2012
2000
1957
1932
1896
1904
1901
1856
1828
1800
1760
1748
1728
1712
1720
1724
1728
1740
1754
1764
1781
1785
1778
1773
1762
1746
1733
1706
1626
1616
1600
1620
1582
1588
1608
1620
1640
1700
1744
1780
1794
1813
1820
1808
1798
1782
1760
1768
1728
1705
1701
1678
1680
1684
1700
1731
1768
1786
1810
1856
1808
1828
1837
1848
1832
1828
1820
1788
1772
1800
1800
1778
1778
1800
1820
1840
1872
1904
1928
1946
1980
1992
1989
1984
1984
1961
1952
1940
1916
1902
1892
1880
1812
1832
1848
1872
1884
1924
1944
1978
1984
2028
2072
2076
2060
2070
2032
2010
1996
1964
1956
1955
1952
1960
1976
1996
2021
2056
2086
2112
2140
2139
2136
2133
2058
2056
2020
2000
1972
1964
1940
1936
1918
1954
1996
2013
2040
2060
2080
2106
2116
2129
2140
2144
2129
2122
2096
2080
2057
2034
2048
2010
2002
2003
2017
2037
1988
2020
2052
2064
2080
2108
2104
2104
2088
2128
2134
2128
2102
2073
2060
2052
2050
2048
2064
2072
2098
2114
2138
2152
2176
2176
2181
2186
2176
2162
2139
2124
2048
2040
2036
2060
2032
2050
2080
2096
2120
2196
2261
2288
2312
2328
2330
2330
2328
2320
2292
2277
2249
2230
2217
2210
2200
2240
2226
2244
2274
2304
2330
2348
2290
2312
2316
2320
2296
2304
2288
2256
2224
2242
2289
2265
2256
2260
2278
2288
2312
2341
2360
2377
2385
2392
2392
2386
2368
2353
2328
2304
2272
2256
2240
2228
2154
2168
2174
2186
2208
2256
2264
2276
2288
2344
2380
2376
2368
2348
2330
2308
2282
2272
2248
2240
2233
2233
2256
2268
2288
2320
2342
2360
2376
2386
2386
2393
2298
2288
2272
2256
2192
2216
2200
2182
2196
2204
2267
2276
2304
2316
2349
2370
2388
2400
2400
2400
2393
2368
2344
2322
2304
2288
2266
2256
2244
2248
2268
2285
2232
2264
2277
2296
2306
2336
2324
2336
2292
2336
2348
2320
2298
2274
2252
2250
2240
2242
2256
2272
2284
2306
2324
2352
2360
2374
2384
2374
2368
2352
2332
2309
2208
2200
2180
2168
2156
2176
2184
2188
2200
2256
2320
2336
2344
2349
2344
2342
2344
2330
2313
2289
2278
2261
2260
2241
2244
2248
2264
2274
2304
2325
2338
2346
2288
2296
2300
2300
2280
2276
2256
2225
2202
2212
2226
2218
2216
2219
2229
2250
2264
2288
2309
2322
2338
2344
2347
2352
2346
2322
2309
2292
2272
2250
2248
2240
2160
2172
2180
2202
2208
2240
2276
2268
2272
2336
2358
2369
2344
2330
2318
2288
2268
2240
2220
2209
2210
2212
2228
2252
2276
2310
2328
2354
2376
2380
2378
2380
2282
2280
2260
2236
2208
2208
2178
2168
2156
2196
2256
2272
2289
2310
2328
2348
2352
2353
2360
2360
2337
2361
2306
2276
2264
2252
2240
2220
2214
2230
2240
2262
2188
2224
2228
2245
2273
2276
2272
2272
2256
2284
2324
2306
2304
2280
2283
2284
2296
2308
2337
2352
2384
2400
2416
2436
2440
2444
2424
2416
2408
2360
2336
2296
2186
2172
2140
2132
2113
2132
2124
2148
2154
2216
2261
2276
2281
2296
2288
2273
2272
2249
2228
2233
2188
2176
2161
2152
2144
2154
2170
2194
2212
2232
2256
2282
2210
2232
2229
2218
2208
2208
2178
2146
2114
2060
2149
2144
2124
2144
2153
2176
2192
2220
2272
2256
2288
2272
2304
2272
2256
2240
2208
2197
2176
2152
2160
2136
2056
2080
2074
2106
2120
2152
2176
2184
2192
2233
2280
2269
2253
2244
2216
2185
2152
2124
2106
2081
2064
2052
2064
2064
2080
2096
2125
2164
2192
2220
2244
2277
2224
2264
2276
2296
2312
2360
2392
2432
2484
2608
2768
2856
2976
3104
3232
3349
3472
3584
3668
3728
3785
3808
3826
3820
3816
3792
3760
3696
3632
3552
3460
3360
3140
3044
2924
2816
2688
2604
2476
2368
2244
2184
2123
2029
1940
1880
1832
1787
1756
1736
1728
1736
1736
1745
1760
1755
1760
1752
1737
1716
1682
1657
1632
1589
1516
1496
1476
1462
1452
1468
1464
1496
1512
1536
1602
1621
1635
1645
1645
1649
1632
1616
1600
1564
1544
1522
1505
1498
1492
1518
1531
1554
1580
1608
1632
1649
1625
1634
1648
1637
1628
1632
1524
1590
1562
1588
1586
1588
1600
1600
1626
1648
1672
1706
1731
1750
1768
1777
1784
1776
1766
1756
1749
1728
1712
1696
1684
1680
1620
1644
1664
1680
1696
1737
1768
1768
1784
1832
1856
1848
1840
1832
1813
1793
1778
1754
1744
1752
1740
1765
1784
1818
1838
1872
1896
1926
1945
1956
1965
1961
1888
1888
1876
1846
1833
1812
1808
1786
1796
1825
1882
1898
1932
1977
1978
2000
2020
2026
2034
2027
2027
2009
1990
1978
1949
1932
1912
1902
1899
1909
1925
1960
1900
1964
1952
1976
1980
2004
2010
2000
1986
2024
2026
2001
1978
1948
1938
1937
1948
1941
1968
1984
2008
2033
2050
2080
2084
2120
2096
2113
2074
2058
2048
2024
1940
1924
1912
1904
1904
1924
1936
1957
1964
2044
2104
2114
2138
2146
2150
2144
2146
2121
2116
2098
2090
2068
2060
2054
2072
2070
2107
2144
2144
2178
2194
2218
2184
2192
2212
2192
2178
2176
2162
2168
2120
2136
2160
2168
2160
2176
2192
2210
2240
2257
2282
2296
2304
2306
2304
2288
2272
2256
2225
2208
2186
2156
2168
2124
2052
2072
2088
2101
2122
2152
2168
2192
2193
2248
2266
2272
2261
2250
2229
2210
2184
2168
2152
2144
2152
2152
2156
2178
2209
2224
2236
2256
2282
2288
2304
2276
2184
2184
2153
2122
2128
2096
2080
2076
2068
2112
2160
2176
2200
2229
2252
2256
2280
2282
2296
2291
2274
2260
2233
2226
2200
2180
2170
2168
2166
2166
2193
2213
2156
2200
2216
2232
2245
2272
2272
2272
2248
2272
2288
2272
2256
2229
2224
2213
2208
2213
2240
2252
2296
2304
2328
2338
2352
2353
2353
2360
2342
2332
2320
2292
2200
2192
2184
2172
2160
2188
2200
2220
2232
2308
2348
2378
2396
2400
2400
2392
2368
2368
2352
2325
2304
2304
2282
2284
2280
2304
2312
2340
2354
2384
2404
2421
2352
2356
2360
2356
2336
2340
2308
2292
2264
2288
2308
2304
2320
2320
2338
2354
2374
2408
2424
2434
2452
2460
2464
2444
2432
2412
2392
2392
2349
2340
2314
2316
2248
2264
2276
2304
2316
2360
2376
2388
2402
2464
2496
2496
2484
2470
2450
2458
2404
2381
2379
2376
2376
2384
2400
2422
2435
2456
2490
2514
2520
2524
2536
2520
2420
2416
2400
2372
2344
2352
2332
2316
2306
2360
2416
2436
2464
2480
2496
2516
2544
2544
2560
2544
2533
2516
2504
2484
2456
2437
2426
2416
2405
2448
2432
2452
2384
2408
2424
2436
2444
2464
2452
2448
2420
2448
2472
2449
2432
2409
2400
2393
2388
2390
2404
2416
2445
2452
2465
2480
2485
2496
2496
2472
2472
2452
2433
2420
2312
2304
2290
2280
2272
2288
2296
2312
2356
2392
2480
2452
2466
2484
2512
2488
2458
2448
2420
2409
2386
2376
2373
2362
2368
2370
2386
2400
2416
2424
2452
2456
2386
2394
2384
2369
2336
2340
2312
2292
2274
2300
2340
2344
2362
2384
2416
2440
2476
2501
2530
2540
2578
2560
2576
2536
2516
2496
2452
2420
2384
2358
2336
2316
2236
2248
2272
2257
2280
2312
2312
2322
2328
2376
2392
2385
2370
2345
2321
2304
2272
2256
2240
2244
2240
2260
2272
2288
2312
2336
2352
2376
2392
2400
2400
2392
2296
2260
2262
2241
2216
2216
2196
2184
2166
2224
2275
2305
2320
2330
2360
2376
2384
2394
2386
2384
2368
2352
2329
2312
2282
2268
2272
2258
2257
2272
2296
2308
2256
2280
2296
2308
2320
2336
2330
2312
2297
2322
2336
2313
2285
2260
2233
2248
2240
2272
2250
2264
2276
2292
2304
2306
2328
2338
2346
2354
2368
2390
2405
2412
2346
2378
2392
2438
2480
2544
2608
2690
2772
2924
3092
3208
3328
3447
3554
3656
3736
3796
3852
3904
3909
3929
3941
3940
3941
3920
3892
3840
3762
3668
3568
3440
3192
3068
2920
2780
2628
2496
2364
2244
2128
2072
2016
1953
1914
1883
1868
1865
1873
1900
1898
1892
1888
1894
1867
1852
1826
1792
1752
1744
1683
1664
1645
1636
1578
1596
1608
1628
1649
1680
1704
1713
1728
1760
1792
1792
1764
1756
1733
1712
1688
1682
1677
1675
1674
1693
1716
1748
1777
1804
1832
1850
1868
1869
1866
1860
1800
1784
1761
1750
1721
1720
1704
1708
1712
1749
1801
1824
1848
1884
1910
1938
1952
1974
1969
1970
1962
1949
1920
1912
1893
1889
1884
1882
1882
1900
1924
1956
1908
1920
1956
1972
1981
2020
2000
1988
1970
1980
1996
1996
1962
1937
1932
1936
1946
1955
1976
2000
2037
2052
2092
2104
2112
2118
2114
2128
2100
2072
2048
2018
1940
1928
1912
1918
1904
1936
1962
1984
2008
2080
2120
2144
2163
2180
2186
2182
2168
2144
2146
2093
2076
2064
2040
2024
2035
2048
2056
2084
2108
2128
2153
2176
2120
2132
2136
2128
2108
2104
2068
2050
2018
2036
2056
2049
2050
2060
2088
2101
2128
2162
2188
2196
2232
2230
2232
2213
2201
2194
2164
2138
2114
2090
2088
2072
2016
2032
2046
2074
2088
2124
2136
2144
2154
2210
2245
2241
2228
2211
2197
2188
2176
2176
2160
2160
2176
2188
2213
2236
2264
2296
2328
2352
2360
2376
2388
2380
2292
2288
2254
2248
2224
2232
2216
2216
2202
2264
2336
2342
2368
2390
2406
2421
2432
2436
2432
2417
2400
2377
2344
2314
2284
2262
2248
2240
2240
2244
2258
2276
2224
2256
2273
2292
2298
2320
2316
2304
2286
2314
2316
2304
2268
2256
2240
2225
2232
2240
2252
2276
2304
2313
2346
2358
2369
2373
2368
2368
2346
2336
2304
2294
2170
2160
2132
2128
2136
2146
2144
2164
2184
2240
2304
2322
2336
2345
2344
2336
2320
2306
2278
2258
2240
2218
2212
2204
2208
2220
2250
2273
2304
2330
2352
2373
2304
2312
2320
2304
2288
2280
2256
2232
2200
2224
2250
2246
2281
2265
2274
2290
2320
2348
2368
2392
2392
2396
2392
2376
2368
2345
2320
2304
2278
2261
2260
2248
2176
2200
2225
2244
2264
2296
2304
2320
2320
2376
2400
2381
2362
2348
2310
2285
2258
2250
2234
2227
2240
2248
2268
2290
2317
2458
2328
2324
2400
2404
2402
2390
2301
2288
2260
2248
2216
2208
2200
2200
2192
2244
2289
2325
2338
2376
2392
2412
2424
2421
2405
2392
2384
2352
2328
2304
2276
2260
2256
2248
2256
2268
2288
2312
2260
2284
2296
2321
2320
2340
2320
2312
2284
2304
2328
2296
2272
2256
2240
2226
2240
2248
2266
2290
2306
2331
2352
2384
2390
2388
2388
2381
2368
2344
2336
2306
2216
2194
2180
2176
2172
2192
2210
2216
2240
2312
2360
2379
2386
2392
2400
2387
2368
2357
2336
2306
2296
2276
2258
2260
2264
2280
2304
2308
2344
2360
2379
2393
2324
2336
2328
2316
2296
2284
2256
2224
2188
2216
2236
2234
2240
2248
2272
2280
2306
2320
2340
2352
2368
2368
2372
2346
2344
2329
2304
2272
2252
2240
2226
2232
2160
2192
2200
2224
2248
2288
2296
2312
2302
2356
2394
2381
2364
2336
2312
2284
2262
2240
2229
2224
2240
2248
2252
2280
2316
2336
2360
2372
2380
2379
2392
2376
2280
2262
2240
2212
2181
2184
2160
2166
2148
2224
2260
2288
2304
2322
2346
2356
2376
2372
2370
2358
2352
2325
2304
2285
2264
2241
2241
2240
2240
2280
2276
2304
2236
2257
2284
2300
2308
2324
2312
2302
2280
2312
2320
2293
2276
2262
2250
2258
2268
2289
2310
2341
2378
2402
2441
2469
2474
2496
2505
2504
2484
2464
2432
2413
2308
2288
2266
2248
2240
2256
2260
2256
2274
2336
2380
2400
2408
2392
2408
2400
2372
2352
2328
2304
2288
2266
2256
2244
2257
2272
2282
2304
2321
2344
2368
2384
2316
2320
2322
2312
2281
2280
2268
2230
2192
2208
2232
2240
2229
2244
2266
2281
2308
2322
2349
2368
2372
2384
2376
2362
2338
2320
2294
2264
2241
2220
2204
2229
2140
2140
2153
2172
2200
2236
2244
2256
2261
2330
2341
2336
2328
2308
2281
2256
2240
2216
2201
2200
2213
2216
2235
2256
2290
2296
2308
2312
2313
2308
2281
2261
2174
2168
2148
2144
2136
2160
2180
2208
2244
2344
2441
2496
2572
2648
2724
2801
2884
2965
3061
3144
3240
3320
3418
3509
3568
3648
3712
3776
3820
3872
3909
3952
3824
3860
3812
3756
3664
3580
3452
3298
3138
3040
2932
2764
2610
2476
2348
2250
2168
2113
2057
2025
2012
2002
1997
1984
1964
1946
1924
1904
1880
1836
1808
1762
1678
1664
1640
1622
1612
1628
1634
1610
1660
1696
1760
1760
1764
1763
1760
1744
1724
1700
1680
1660
1635
1617
1616
1608
1624
1636
1665
1676
1704
1738
1760
1777
1728
1760
1748
1745
1728
1725
1700
1672
1650
1668
1683
1684
1688
1713
1722
1748
1780
1800
1825
1848
1861
1868
1868
1862
1844
1833
1820
1793
1776
1770
1760
1760
1728
1746
1768
1793
1812
1849
1864
1874
1876
1920
1954
1937
1930
1914
1888
1872
1843
1840
1840
1832
1844
1860
1872
1897
1929
1946
1969
1987
1989
1990
1988
1978
1904
1890
1869
1852
1829
1824
1824
1830
1828
1876
1928
1956
1992
2011
2028
2048
2048
2064
2056
2056
2032
2018
1990
1968
1948
1939
1926
1929
1936
1956
1976
1996
1952
1986
2000
2008
2012
2025
2016
2012
1988
2000
2010
2006
1968
1972
1957
1968
1976
2000
2016
2038
2058
2089
2101
2120
2120
2131
2118
2114
2092
2070
2058
2029
1944
1940
1936
1940
1940
1968
1984
2010
2032
2092
2152
2160
2164
2176
2176
2160
2148
2138
2116
2099
2086
2084
2072
2088
2094
2120
2138
2176
2205
2233
2258
2278
2212
2234
2234
2220
2202
2208
2180
2156
2132
2168
2184
2184
2185
2210
2232
2261
2288
2320
2346
2352
2368
2368
2373
2358
2341
2314
2304
2288
2272
2256
2250
2248
2180
2208
2218
2234
2256
2288
2292
2304
2306
2352
2384
2384
2340
2324
2296
2266
2248
2234
2230
2224
2230
2252
2258
2278
2304
2325
2353
2368
2368
2376
2370
2353
2260
2248
2224
2201
2180
2184
2164
2154
2154
2208
2264
2288
2312
2328
2348
2353
2370
2362
2354
2336
2304
2288
2258
2248
2225
2208
2204
2200
2212
2224
2240
2262
2212
2242
2260
2272
2264
2296
2280
2264
2232
2248
2264
2240
2224
2204
2187
2192
2208
2216
2241
2250
2288
2304
2321
2336
2329
2336
2336
2312
2304
2282
2256
2227
2132
2124
2120
2125
2122
2154
2168
2188
2204
2260
2320
2330
2332
2341
2338
2325
2308
2292
2244
2229
2214
2198
2186
2208
2180
2214
2232
2256
2280
2304
2316
2346
2264
2320
2276
2240
2246
2240
2220
2196
2168
2192
2211
2216
2212
2236
2244
2262
2292
2314
2330
2344
2352
2356
2360
2348
2326
2312
2284
2268
2250
2240
2224
2224
2160
2192
2196
2212
2224
2264
2280
2285
2296
2336
2368
2360
2336
2312
2304
2280
2249
2232
2229
2232
2244
2248
2256
2288
2306
2324
2336
2357
2356
2357
2352
2354
2260
2256
2212
2200
2176
2172
2176
2148
2152
2202
2252
2278
2281
2306
2336
2342
2348
2337
2324
2320
2292
2280
2257
2240
2230
2208
2216
2216
2240
2252
2274
2306
2252
2288
2312
2324
2328
2356
2344
2328
2308
2320
2328
2316
2292
2278
2276
2268
2284
2304
2310
2340
2362
2372
2390
2406
2408
2405
2386
2372
2360
2331
2304
2284
2184
2180
2176
2178
2185
2212
2232
2248
2258
2346
2400
2405
2416
2405
2408
2386
2374
2354
2336
2336
2290
2280
2261
2272
2284
2304
2322
2348
2376
2402
2424
2424
2354
2360
2352
2336
2304
2304
2264
2244
2220
2244
2261
2267
2272
2280
2308
2322
2352
2369
2388
2408
2409
2416
2409
2393
2376
2354
2332
2306
2292
2273
2272
2280
2204
2232
2228
2268
2280
2316
2324
2336
2336
2368
2406
2392
2362
2348
2326
2304
2284
2272
2261
2250
2272
2284
2340
2328
2360
2372
2392
2408
2410
2422
2408
2396
2284
2280
2262
2240
2210
2216
2200
2204
2196
2272
2320
2339
2358
2376
2401
2418
2424
2422
2412
2402
2384
2361
2345
2324
2310
2304
2304
2304
2313
2328
2352
2380
2320
2361
2376
2400
2400
2432
2420
2420
2448
2436
2448
2426
2412
2384
2378
2368
2362
2372
2380
2384
2389
2405
2424
2416
2416
2425
2400
2396
2376
2345
2328
2308
2204
2204
2188
2192
2180
2208
2216
2226
2236
2288
2348
2358
2368
2384
2361
2357
2340
2324
2304
2274
2256
2252
2234
2232
2242
2259
2276
2304
2310
2336
2352
2360
2284
2300
2282
2280
2252
2242
2220
2188
2160
2200
2214
2217
2224
2230
2248
2273
2292
2310
2324
2336
2338
2341
2336
2324
2312
2289
2272
2241
2224
2214
2216
2220
2156
2184
2200
2216
2240
2272
2280
2290
2278
2312
2336
2320
2284
2248
2226
2194
2176
2152
2148
2148
2180
2212
2242
2304
2340
2402
2448
2496
2529
2570
2608
2650
2580
2628
2676
2744
2808
2920
3016
3128
3236
3408
3608
3696
3792
3872
3936
3970
3992
4000
3976
3922
3841
3738
3618
3477
3456
3184
3040
2904
2770
2658
2560
2465
2300
2248
2176
2120
2056
2032
1965
1912
1872
1860
1835
1786
1756
1732
1718
1696
1704
1701
1704
1709
1720
1734
1728
1721
1728
1715
1688
1668
1656
1629
1606
1578
1520
1504
1520
1516
1506
1538
1560
1584
1604
1652
1685
1701
1709
1708
1697
1690
1673
1646
1624
1594
1584
1573
1558
1570
1586
1600
1622
1648
1674
1700
1724
1738
1696
1701
1700
1682
1668
1662
1642
1612
1602
1620
1638
1642
1659
1676
1697
1721
1752
1776
1800
1813
1821
1816
1812
1808
1780
1750
1736
1705
1698
1688
1680
1684
1644
1672
1684
1713
1736
1760
1784
1780
1786
1826
1849
1840
1830
1800
1784
1765
1746
1737
1736
1736
1757
1760
1792
1830
1820
1845
1868
1882
1888
1882
1882
1852
1784
1772
1746
1728
1708
1698
1692
1701
1698
1754
1796
1828
1856
1876
1896
1910
1912
1912
1896
1880
1852
1829
1792
1764
1760
1750
1740
1744
1749
1766
1798
1826
1784
1828
1836
1845
1845
1860
1850
1824
1802
1808
1814
1792
1778
1770
1756
1773
1778
1812
1828
1856
1888
1912
1944
1936
1944
1942
1936
1932
1912
1876
1868
1840
1773
1776
1766
1776
1754
1822
1840
1884
1896
1956
2005
2029
2048
2052
2040
2025
2016
2000
1984
1965
1958
1952
1948
1956
1980
1998
2026
2066
2089
2128
2148
2156
2098
2112
2100
2084
2064
2056
2034
2016
1989
2020
2048
2050
2060
2066
2092
2112
2137
2165
2178
2194
2194
2194
2186
2176
2156
2128
2102
2070
2068
2056
2037
2048
1984
2008
2036
2058
2080
2116
2136
2156
2148
2192
2214
2204
2192
2162
2132
2105
2088
2066
2067
2054
2064
2076
2086
2107
2136
2145
2164
2170
2169
2176
2168
2156
2070
2052
2028
2020
1988
2000
1988
1996
1996
2052
2096
2124
2144
2157
2184
2200
2192
2177
2176
2154
2134
2112
2091
2068
2052
2041
2036
2032
2048
2068
2088
2116
2069
2098
2097
2116
2112
2128
2112
2092
2073
2088
2104
2074
2053
2052
2048
2052
2069
2081
2101
2121
2146
2168
2193
2196
2208
2208
2204
2192
2176
2152
2128
2108
2024
2028
2022
2020
2021
2046
2064
2090
2090
2152
2209
2210
2213
2216
2208
2196
2177
2149
2128
2100
2088
2085
2069
2080
2082
2118
2112
2152
2164
2192
2216
2224
2160
2160
2160
2142
2120
2112
2096
2068
2046
2068
2101
2100
2112
2120
2140
2157
2180
2197
2208
2210
2210
2210
2197
2180
2145
2128
2112
2084
2068
2064
2052
2057
2001
2034
2050
2076
2088
2140
2160
2165
2168
2234
2232
2218
2196
2176
2154
2130
2121
2104
2093
2098
2105
2117
2136
2168
2188
2216
2224
2234
2233
2232
2216
2209
2116
2098
2084
2064
2032
2040
2032
2036
2034
2088
2144
2169
2192
2209
2225
2228
2232
2230
2220
2208
2177
2170
2149
2116
2105
2096
2092
2106
2112
2129
2156
2184
2128
2160
2168
2176
2169
2184
2168
2152
2128
2136
2152
2137
2128
2117
2117
2128
2136
2169
2186
2197
2224
2240
2246
2266
2266
2252
2248
2224
2208
2184
2162
2138
2044
2056
2046
2040
2052
2088
2112
2128
2133
2200
2240
2242
2256
2260
2244
2226
2212
2186
2160
2139
2120
2105
2100
2104
2113
2128
2148
2176
2192
2220
2241
2242
2174
2184
2176
2152
2129
2116
2088
2080
2056
2088
2116
2121
2130
2156
2170
2204
2228
2249
2256
2257
2264
2256
2246
2230
2204
2188
2176
2153
2140
2128
2128
2133
2084
2112
2128
2148
2148
2184
2192
2192
2180
2208
2240
2221
2202
2176
2161
2148
2128
2128
2128
2132
2154
2168
2200
2232
2256
2277
2280
2304
2308
2320
2308
2305
2212
2208
2188
2180
2150
2172
2168
2164
2162
2228
2276
2284
2304
2315
2321
2321
2324
2304
2284
2265
2234
2209
2180
2156
2138
2120
2124
2136
2144
2163
2192
2216
2170
2198
2202
2204
2196
2208
2180
2172
2124
2144
2144
2136
2124
2112
2098
2117
2144
2147
2186
2208
2232
2245
2256
2257
2273
2264
2253
2228
2208
2192
2176
2140
2060
2044
2048
2040
2056
2088
2100
2124
2136
2192
2232
2232
2229
2252
2216
2209
2192
2166
2144
2122
2114
2112
2116
2128
2144
2161
2184
2212
2233
2256
2264
2276
2200
2188
2168
2164
2130
2112
2080
2058
2018
2044
2049
2049
2073
2069
2104
2134
2164
2208
2246
2276
2292
2320
2338
2356
2360
2386
2402
2438
2480
2540
2624
2714
2728
2866
2988
3124
3240
3392
3488
3568
3616
3744
3832
3842
3840
3813
3768
3700
3620
3520
3416
3296
3180
3045
2936
2816
2704
2594
2484
2392
2296
2152
2116
2048
1904
1852
1808
1756
1712
1704
1684
1668
1652
1696
1722
1729
1732
1744
1741
1736
1728
1704
1670
1636
1603
1570
1540
1506
1494
1484
1484
1489
1504
1524
1563
1581
1568
1608
1618
1624
1626
1628
1624
1600
1572
1584
1577
1554
1536
1522
1531
1526
1544
1568
1588
1616
1639
1665
1681
1688
1684
1702
1696
1686
1680
1652
1636
1632
1568
1564
1580
1592
1594
1632
1652
1672
1696
1744
1786
1800
1805
1808
1794
1781
1772
1752
1734
1721
1709
1706
1706
1712
1728
1749
1768
1796
1821
1841
1857
1860
1805
1822
1802
1784
1778
1776
1752
1736
1716
1738
1768
1776
1804
1805
1834
1860
1888
1900
1920
1928
1936
1936
1920
1914
1892
1877
1864
1842
1834
1832
1833
1856
1804
1832
1849
1876
1892
1924
1932
1944
1944
1970
1990
1970
1952
1920
1904
1877
1864
1856
1856
1848
1868
1884
1912
1936
1965
1986
2000
2004
2004
2008
2008
1993
1912
1904
1872
1860
1842
1848
1856
1866
1873
1928
1984
2005
2022
2048
2064
2068
2060
2064
2048
2024
2005
1984
1992
1958
1952
1948
1960
1972
1992
2020
2048
2072
2029
2064
2080
2096
2088
2100
2084
2068
2050
2076
2084
2068
2072
2066
2074
2088
2104
2133
2165
2184
2217
2240
2246
2272
2266
2268
2250
2240
2224
2200
2188
2161
2080
2080
2084
2088
2108
2144
2160
2178
2196
2256
2304
2320
2316
2309
2296
2288
2273
2248
2212
2209
2192
2170
2177
2176
2192
2209
2235
2264
2284
2292
2308
2320
2240
2240
2232
2216
2192
2184
2164
2148
2124
2160
2202
2208
2224
2240
2261
2296
2320
2336
2337
2352
2344
2345
2324
2320
2292
2261
2230
2216
2188
2189
2188
2192
2072
2288
2196
2221
2236
2272
2280
2292
2290
2340
2358
2341
2320
2304
2264
2246
2220
2212
2202
2216
2227
2248
2266
2289
2320
2328
2344
2368
2353
2354
2353
2330
2240
2228
2198
2180
2170
2172
2164
2173
2172
2236
2289
2321
2326
2342
2368
2372
2372
2362
2348
2332
2312
2290
2264
2241
2240
2216
2224
2232
2246
2273
2288
2308
2260
2280
2300
2308
2284
2300
2284
2248
2232
2248
2256
2240
2224
2218
2212
2224
2240
2256
2272
2304
2320
2336
2354
2362
2369
2360
2360
2358
2329
2296
2280
2253
2156
2136
2180
2168
2172
2204
2218
2233
2248
2298
2356
2358
2360
2376
2338
2328
2308
2281
2258
2256
2232
2240
2232
2242
2248
2272
2288
2306
2324
2345
2356
2368
2288
2280
2280
2256
2232
2224
2194
2176
2148
2176
2230
2226
2240
2276
2288
2314
2332
2352
2362
2370
2372
2362
2352
2329
2312
2281
2262
2242
2218
2221
2213
2224
2172
2200
2220
2240
2256
2296
2308
2316
2300
2344
2360
2349
2336
2314
2277
2264
2244
2235
2225
2232
2244
2304
2312
2297
2326
2338
2368
2364
2368
2362
2352
2330
2224
2224
2196
2176
2180
2164
2184
2162
2176
2232
2292
2324
2328
2352
2364
2378
2373
2368
2357
2341
2312
2294
2277
2258
2245
2248
2244
2242
2264
2294
2312
2337
2290
2302
2314
2364
2320
2336
2324
2312
2284
2304
2325
2312
2292
2293
2293
2304
2312
2337
2360
2384
2402
2422
2436
2438
2444
2432
2417
2396
2376
2352
2330
2316
2218
2212
2216
2229
2232
2280
2292
2324
2336
2400
2452
2464
2456
2448
2432
2420
2400
2374
2356
2330
2330
2304
2314
2324
2352
2363
2380
2410
2425
2444
2457
2448
2370
2368
2361
2338
2320
2328
2312
2306
2298
2352
2392
2402
2432
2453
2474
2486
2512
2528
2533
2536
2528
2508
2498
2464
2441
2418
2400
2384
2368
2357
2356
2364
2306
2340
2356
2392
2410
2436
2448
2452
2440
2480
2512
2496
2469
2456
2436
2424
2408
2404
2402
2408
2432
2458
2486
2504
2528
2548
2560
2568
2572
2564
2560
2560
2444
2432
2410
2400
2376
2392
2388
2389
2409
2480
2540
2568
2593
2613
2626
2640
2636
2650
2612
2609
2584
2564
2544
2533
2508
2512
2504
2512
2516
2552
2572
2594
2520
2552
2556
2572
2568
2584
2562
2544
2514
2544
2560
2544
2528
2517
2516
2528
2528
2540
2548
2560
2576
2592
2608
2624
2628
2644
2645
2681
2676
2688
2698
2704
2640
2676
2728
2800
2864
2992
3080
3200
3308
3504
3680
3788
3888
3972
4049
4095
4095
4095
4095
4095
4095
4090
4048
3996
3928
3848
3740
3636
3528
3408
3274
3160
2912
2812
2688
2580
2460
2368
2302
2212
2146
2144
2123
2093
2114
2080
2093
2100
2104
2100
2112
2100
2089
2070
2041
2016
1984
1952
1930
1908
1890
1908
1888
1892
1848
1880
1904
1932
1944
1980
1992
1996
1986
2016
2034
2016
2000
1978
1956
1944
1928
1932
1940
1952
1978
2005
2034
2067
2096
2120
2130
2144
2150
2148
2128
2120
2040
2024
2002
1992
1976
1996
1986
2008
2018
2076
2144
2176
2200
2225
2245
2266
2268
2266
2256
2248
2235
2218
2200
2180
2169
2168
2176
2192
2201
2235
2256
2288
2232
2250
2274
2280
2272
2282
2264
2256
2220
2264
2272
2256
2252
2244
2249
2272
2288
2317
2337
2368
2385
2400
2418
2418
2422
2426
2405
2392
2376
2356
2348
2321
2240
2240
2248
2256
2258
2300
2320
2340
2360
2424
2476
2474
2476
2474
2460
2441
2418
2396
2380
2368
2352
2341
2348
2372
2372
2400
2416
2436
2449
2468
2472
2484
2396
2400
2384
2384
2332
2324
2304
2288
2264
2292
2346
2348
2372
2388
2416
2440
2464
2472
2484
2506
2490
2474
2472
2444
2436
2412
2390
2368
2357
2354
2356
2356
2296
2326
2340
2353
2372
2400
2416
2412
2408
2464
2465
2456
2440
2432
2396
2404
2400
2404
2412
2440
2467
2488
2521
2548
2581
2608
2616
2636
2640
2624
2624
2592
2480
2480
2460
2432
2408
2416
2408
2416
2432
2484
2540
2560
2579
2600
2610
2610
2616
2600
2596
2576
2544
2520
2496
2468
2458
2448
2440
2444
2452
2474
2488
2504
2434
2452
2464
2464
2452
2456
2436
2416
2384
2396
2422
2404
2388
2372
2369
2389
2404
2424
2442
2469
2482
2506
2513
2512
2516
2498
2496
2480
2444
2432
2416
2400
2308
2328
2320
2336
2344
2388
2404
2424
2436
2516
2540
2560
2560
2536
2529
2513
2480
2464
2440
2422
2404
2404
2402
2421
2436
2448
2469
2480
2520
2528
2530
2528
2448
2448
2425
2414
2384
2384
2356
2336
2316
2352
2390
2400
2409
2434
2460
2473
2488
2501
2513
2512
2505
2500
2497
2496
2445
2432
2393
2380
2361
2368
2380
2362
2302
2324
2348
2368
2376
2408
2408
2393
2380
2432
2444
2432
2402
2384
2368
2341
2338
2340
2347
2360
2380
2400
2419
2434
2457
2476
2488
2491
2484
2469
2458
2440
2328
2312
2296
2280
2260
2272
2264
2264
2280
2344
2402
2412
2438
2452
2456
2464
2464
2448
2433
2408
2394
2381
2337
2314
2316
2304
2304
2307
2344
2342
2368
2378
2316
2352
2337
2352
2344
2344
2336
2305
2280
2304
2308
2296
2281
2274
2288
2288
2304
2324
2344
2374
2390
2400
2410
2416
2416
2400
2386
2368
2346
2324
2308
2304
2208
2224
2224
2236
2244
2272
2296
2304
2320
2370
2410
2412
2416
2402
2384
2378
2356
2324
2304
2290
2284
2284
2284
2292
2312
2324
2360
2376
2394
2416
2434
2432
2344
2348
2328
2308
2284
2276
2248
2224
2208
2240
2276
2282
2295
2304
2329
2349
2368
2376
2384
2388
2384
2384
2361
2348
2320
2309
2284
2276
2268
2259
2261
2280
2216
2248
2252
2284
2288
2322
2320
2321
2328
2340
2400
2344
2324
2304
2282
2273
2264
2258
2273
2288
2308
2336
2356
2378
2400
2408
2421
2432
2420
2405
2396
2370
2272
2252
2224
2216
2196
2208
2208
2208
2210
2288
2337
2368
2389
2392
2402
2416
2408
2404
2392
2376
2388
2336
2320
2308
2320
2292
2296
2308
2324
2345
2384
2404
2348
2372
2384
2388
2380
2400
2364
2356
2324
2340
2352
2329
2328
2317
2304
2312
2320
2325
2349
2360
2369
2372
2373
2369
2368
2340
2345
2312
2304
2280
2266
2250
2170
2196
2180
2184
2196
2216
2236
2266
2250
2336
2336
2340
2332
2326
2308
2292
2266
2246
2224
2209
2195
2188
2196
2209
2232
2264
2266
2304
2316
2322
2336
2328
2258
2248
2238
2224
2196
2192
2184
2156
2137
2180
2216
2213
2236
2256
2280
2304
2320
2336
2336
2340
2337
2316
2304
2280
2257
2240
2216
2193
2192
2184
2192
2208
2152
2180
2194
2228
2240
2260
2262
2272
2244
2264
2284
2248
2220
2182
2172
2184
2160
2161
2192
2232
2276
2326
2386
2440
2506
2552
2608
2656
2700
2748
2808
2860
2828
2916
3000
3096
3184
3304
3408
3504
3580
3736
3856
3920
3968
4000
4000
4001
3944
3864
3776
3650
3508
3364
3200
3048
2888
2744
2627
2516
2424
2336
2277
2212
2090
2064
2014
1980
1948
1912
1888
1844
1796
1800
1788
1770
1734
1732
1712
1728
1724
1738
1752
1757
1797
1773
1777
1770
1776
1753
1744
1728
1700
1685
1668
1656
1598
1602
1605
1618
1637
1656
1684
1696
1714
1756
1797
1792
1792
1776
1766
1754
1744
1720
1713
1700
1700
1706
1702
1723
1749
1776
1796
1819
1836
1856
1880
1888
1826
1828
1817
1800
1772
1770
1744
1736
1728
1760
1800
1810
1836
1881
1881
1910
1940
1948
1960
1948
1954
1946
1936
1920
1900
1892
1868
1858
1857
1856
1866
1876
1837
1874
1900
1926
1932
1972
1968
1980
1968
2000
2009
2002
1993
1970
1960
1984
1952
1942
1948
1974
2005
2017
2048
2064
2088
2096
2104
2096
2096
2073
2056
2024
1944
1928
1908
1860
1876
1888
1904
1914
1926
1988
2048
2069
2102
2113
2128
2134
2124
2112
2096
2080
2060
2038
2021
2016
2002
1992
1996
2024
2025
2052
2073
2088
2040
2057
2064
2072
2056
2060
2047
2021
2008
2020
2029
2050
2021
2016
2028
2048
2068
2096
2120
2132
2160
2168
2178
2181
2176
2168
2146
2129
2100
2091
2072
2064
1992
2004
2005
2032
2058
2112
2116
2144
2156
2224
2266
2273
2273
2272
2248
2250
2228
2208
2192
2184
2180
2188
2196
2212
2232
2256
2285
2304
2322
2337
2342
2352
2270
2272
2261
2236
2212
2216
2204
2186
2178
2212
2250
2266
2292
2306
2328
2344
2358
2372
2376
2372
2368
2337
2329
2310
2288
2260
2248
2240
2225
2224
2236
2244
2192
2224
2248
2264
2276
2312
2296
2308
2300
2330
2336
2322
2304
2281
2257
2248
2232
2228
2240
2240
2264
2277
2308
2317
2344
2357
2362
2373
2356
2336
2320
2296
2196
2184
2168
2160
2140
2154
2152
2168
2172
2240
2304
2328
2337
2361
2356
2345
2354
2336
2328
2306
2278
2252
2230
2220
2208
2192
2200
2212
2232
2242
2272
2288
2224
2256
2252
2268
2245
2256
2240
2224
2224
2212
2220
2203
2200
2210
2218
2232
2256
2273
2296
2316
2341
2346
2348
2352
2354
2329
2309
2289
2260
2244
2217
2194
2122
2132
2130
2146
2144
2192
2202
2220
2234
2304
2336
2337
2336
2320
2309
2292
2276
2260
2233
2230
2227
2224
2234
2252
2258
2280
2312
2321
2344
2347
2346
2352
2262
2258
2244
2218
2186
2176
2144
2132
2144
2128
2168
2184
2195
2226
2241
2256
2280
2294
2292
2288
2289
2272
2252
2232
2209
2181
2170
2152
2144
2144
2152
2161
2096
2132
2144
2164
2176
2204
2208
2208
2188
2212
2226
2220
2200
2160
2146
2134
2144
2122
2128
2145
2165
2184
2208
2233
2250
2260
2280
2272
2256
2240
2226
2208
2118
2104
2086
2068
2064
2088
2074
2100
2116
2186
2228
2246
2265
2280
2281
2285
2280
2265
2252
2226
2212
2194
2156
2140
2136
2120
2124
2136
2144
2160
2180
2194
2130
2152
2148
2153
2144
2140
2120
2098
2074
2102
2118
2096
2080
2092
2134
2114
2134
2152
2198
2200
2204
2212
2248
2216
2209
2197
2168
2165
2132
2136
2132
2112
2029
2046
2056
2072
2084
2120
2136
2152
2162
2208
2252
2250
2268
2242
2208
2200
2168
2144
2128
2120
2104
2112
2116
2130
2148
2166
2184
2208
2217
2240
2248
2252
2176
2176
2168
2152
2132
2138
2112
2104
2094
2144
2176
2192
2208
2232
2265
2285
2312
2320
2332
2338
2332
2329
2304
2293
2276
2248
2229
2212
2208
2198
2200
2210
2160
2176
2196
2214
2220
2240
2224
2226
2209
2224
2240
2210
2186
2169
2148
2136
2118
2114
2152
2134
2164
2180
2200
2224
2234
2256
2252
2260
2256
2242
2228
2216
2116
2108
2092
2080
2068
2084
2080
2088
2096
2192
2213
2224
2245
2250
2251
2244
2244
2252
2197
2192
2164
2160
2128
2107
2112
2116
2120
2140
2152
2184
2194
2224
2162
2178
2178
2165
2160
2152
2132
2096
2068
2104
2120
2096
2097
2096
2106
2122
2152
2166
2188
2230
2218
2226
2240
2220
2220
2198
2176
2136
2121
2096
2081
2084
2013
2044
2064
2098
2136
2196
2240
2290
2328
2424
2500
2547
2604
2656
2706
2784
2856
2936
3024
3128
3234
3328
3434
3512
3604
3672
3752
3792
3840
3840
3840
3788
3588
3524
3424
3312
3152
3024
2882
2744
2600
2544
2473
2380
2296
2234
2180
2128
2080
2040
2008
1965
1924
1884
1842
1816
1777
1728
1697
1676
1650
1644
1640
1642
1593
1604
1616
1620
1594
1648
1650
1632
1624
1664
1637
1627
1612
1582
1578
1568
1557
1556
1564
1573
1584
1620
1641
1654
1668
1684
1678
1664
1657
1656
1626
1610
1544
1524
1544
1496
1504
1524
1538
1552
1580
1636
1684
1708
1734
1740
1751
1746
1745
1730
1712
1688
1669
1646
1632
1625
1610
1612
1616
1638
1665
1690
1716
1750
1720
1756
1770
1772
1764
1768
1744
1736
1709
1716
1724
1712
1709
1708
1713
1736
1753
1784
1816
1830
1863
1873
1880
1874
1880
1876
1850
1844
1816
1801
1780
1765
1706
1720
1722
1737
1760
1788
1812
1832
1840
1892
1922
1920
1920
1906
1892
1884
1864
1842
1832
1825
1820
1832
1840
1856
1880
1904
1914
1945
1960
1972
1968
1965
1900
1898
1866
1864
1834
1828
1812
1790
1786
1824
1845
1856
1876
1906
1920
1952
1961
1976
1986
1984
1990
1980
1962
1952
1923
1904
1904
1888
1876
1896
1905
1921
1885
1914
1928
1952
1960
2000
2000
2000
1976
2016
2019
1997
1973
1962
1941
1928
1936
1945
1961
1988
2020
2052
2086
2124
2146
2164
2176
2176
2176
2168
2148
2130
2050
2046
2029
2032
2012
2044
2064
2073
2120
2144
2200
2212
2256
2244
2245
2256
2248
2242
2219
2204
2176
2160
2144
2130
2120
2136
2128
2152
2168
2184
2210
2232
2168
2192
2196
2197
2184
2192
2172
2144
2120
2148
2160
2146
2137
2138
2149
2158
2200
2201
2220
2230
2260
2258
2260
2256
2256
2242
2236
2212
2184
2168
2180
2138
2076
2080
2096
2097
2124
2160
2184
2200
2200
2264
2296
2304
2292
2278
2276
2240
2224
2201
2182
2177
2180
2180
2204
2225
2246
2268
2296
2322
2344
2352
2352
2338
2256
2248
2226
2210
2192
2172
2164
2132
2128
2160
2208
2218
2256
2264
2292
2320
2340
2345
2353
2353
2344
2338
2320
2278
2259
2240
2225
2212
2198
2201
2212
2213
2168
2184
2204
2230
2228
2256
2260
2256
2234
2264
2268
2264
2234
2216
2193
2196
2184
2194
2212
2210
2224
2242
2256
2280
2304
2296
2313
2304
2284
2288
2274
2256
2156
2168
2144
2126
2120
2132
2144
2160
2188
2240
2304
2316
2324
2346
2354
2348
2338
2328
2308
2292
2272
2250
2250
2217
2224
2224
2240
2230
2266
2290
2305
2326
2268
2284
2288
2284
2272
2272
2256
2236
2213
2224
2248
2232
2226
2233
2249
2261
2289
2304
2328
2338
2357
2360
2376
2368
2360
2370
2329
2312
2304
2304
2276
2256
2196
2200
2210
2228
2240
2280
2296
2320
2326
2392
2424
2412
2412
2408
2386
2353
2341
2324
2304
2292
2284
2296
2292
2314
2321
2354
2360
2392
2390
2408
2404
2400
2320
2320
2292
2276
2256
2252
2224
2216
2202
2256
2286
2320
2330
2338
2370
2386
2402
2408
2416
2425
2396
2396
2368
2336
2316
2304
2280
2268
2262
2276
2292
2304
2237
2280
2292
2306
2316
2344
2344
2344
2328
2352
2384
2358
2341
2316
2308
2304
2288
2324
2340
2344
2370
2388
2416
2448
2449
2465
2469
2472
2468
2460
2448
2434
2336
2324
2302
2278
2272
2284
2288
2296
2300
2368
2412
2412
2440
2448
2465
2442
2432
2409
2384
2369
2349
2316
2297
2297
2288
2285
2304
2312
2330
2352
2373
2392
2324
2352
2344
2348
2330
2332
2304
2300
2264
2280
2304
2288
2293
2288
2308
2354
2348
2384
2404
2434
2432
2440
2452
2426
2438
2420
2392
2373
2353
2322
2304
2293
2212
2224
2232
2242
2256
2296
2306
2322
2316
2368
2408
2408
2434
2393
2361
2354
2337
2324
2304
2304
2284
2304
2316
2329
2362
2369
2394
2424
2433
2448
2448
2448
2356
2356
2330
2312
2282
2272
2226
2208
2184
2228
2260
2249
2288
2304
2344
2360
2402
2440
2468
2501
2530
2544
2576
2594
2618
2650
2688
2742
2808
2905
3000
3108
3136
3268
3392
3500
3600
3712
3764
3808
3820
3924
3968
3952
3908
3858
3778
3696
3608
3480
3380
3274
3168
3060
2952
2844
2754
2656
2568
2465
2386
2304
2234
2156
2032
1980
1936
1912
1873
1880
1860
1868
1864
1894
1925
1936
1940
1938
1929
1904
1894
1872
1840
1824
1794
1782
1756
1749
1740
1733
1752
1760
1784
1800
1816
1824
1780
1788
1808
1780
1772
1776
1756
1736
1708
1740
1737
1732
1728
1732
1745
1776
1792
1820
1851
1874
1884
1905
1913
1922
1913
1905
1884
1874
1856
1836
1821
1812
1746
1764
1776
1792
1816
1856
1858
1892
1900
1948
1984
1984
1977
1958
1958
1946
1916
1908
1888
1896
1896
1901
1914
1936
1968
1994
2026
2048
2064
2076
2068
2070
1996
1989
1968
1952
1924
1920
1904
1904
1898
1936
1986
2010
2048
2074
2084
2106
2132
2136
2144
2145
2134
2124
2104
2096
2074
2052
2048
2024
2037
2034
2053
2072
2026
2050
2080
2088
2104
2132
2136
2120
2108
2144
2148
2134
2112
2085
2076
2068
2065
2065
2076
2105
2128
2160
2176
2210
2220
2230
2236
2234
2224
2208
2194
2162
2068
2056
2048
2042
2025
2052
2056
2084
2100
2164
2212
2246
2261
2278
2276
2276
2264
2148
2226
2210
2184
2168
2152
2145
2140
2148
2160
2181
2212
2244
2284
2308
2250
2288
2304
2296
2280
2290
2276
2257
2242
2256
2292
2281
2288
2304
2312
2336
2368
2400
2424
2440
2472
2476
2486
2480
2484
2476
2464
2440
2424
2408
2400
2393
2296
2316
2312
2332
2336
2384
2388
2400
2416
2464
2508
2496
2496
2484
2468
2448
2408
2402
2409
2368
2368
2356
2370
2384
2394
2422
2448
2464
2480
2481
2488
2499
2384
2376
2358
2338
2312
2304
2274
2260
2260
2306
2340
2369
2390
2413
2432
2450
2468
2468
2472
2472
2484
2456
2432
2403
2378
2368
2348
2340
2336
2336
2348
2356
2292
2288
2352
2368
2368
2400
2400
2376
2364
2402
2425
2402
2389
2362
2346
2336
2338
2338
2356
2368
2400
2420
2444
2464
2464
2480
2476
2472
2457
2444
2424
2400
2300
2288
2272
2260
2248
2264
2268
2290
2304
2362
2416
2441
2448
2464
2469
2464
2464
2436
2426
2405
2380
2372
2349
2342
2330
2340
2344
2360
2388
2408
2420
2440
2372
2392
2381
2380
2384
2368
2344
2320
2290
2314
2331
2320
2348
2329
2337
2346
2368
2400
2408
2432
2448
2454
2464
2456
2448
2434
2424
2388
2377
2362
2336
2346
2248
2256
2272
2280
2296
2316
2328
2344
2356
2400
2432
2436
2424
2421
2392
2372
2353
2341
2325
2314
2316
2320
2328
2340
2362
2384
2405
2432
2440
2444
2454
2445
2352
2360
2340
2304
2280
2288
2256
2242
2236
2280
2336
2352
2368
2400
2416
2434
2440
2449
2449
2448
2441
2413
2400
2384
2354
2338
2322
2316
2320
2320
2337
2352
2290
2322
2344
2364
2360
2388
2376
2388
2368
2392
2412
2378
2368
2340
2320
2340
2312
2332
2324
2341
2352
2384
2406
2416
2434
2466
2464
2444
2432
2412
2400
2384
2284
2272
2248
2233
2232
2248
2248
2256
2266
2344
2396
2400
2449
2433
2457
2432
2432
2416
2400
2378
2368
2346
2324
2336
2341
2320
2353
2368
2388
2408
2434
2440
2376
2392
2388
2392
2376
2376
2360
2352
2336
2352
2384
2384
2380
2377
2388
2403
2434
2448
2464
2480
2486
2482
2486
2464
2464
2421
2408
2362
2342
2316
2304
2297
2200
2216
2228
2244
2260
2298
2320
2328
2320
2378
2421
2420
2402
2386
2370
2340
2330
2308
2296
2284
2281
2288
2304
2304
2328
2348
2372
2386
2400
2392
2408
2421
2316
2302
2290
2272
2248
2232
2224
2208
2210
2248
2306
2316
2336
2368
2376
2401
2408
2416
2404
2400
2388
2370
2348
2314
2304
2289
2274
2264
2262
2278
2290
2304
2252
2284
2310
2322
2316
2356
2384
2348
2337
2356
2408
2353
2328
2308
2292
2268
2260
2249
2252
2264
2276
2336
2326
2360
2412
2424
2448
2500
2505
2528
2548
2562
2496
2540
2558
2612
2676
2780
2872
2976
3080
3296
3464
3588
3720
3816
3936
3956
4002
4032
4048
4048
4016
3992
3928
3856
3776
3674
3572
3440
3346
3200
3064
2936
2708
2608
2468
2372
2250
2162
2068
1984
1904
1876
1862
1824
1801
1786
1787
1786
1782
1798
1808
1816
1808
1805
1784
1800
1762
1721
1693
1673
1644
1625
1600
1590
1537
1544
1557
1573
1588
1616
1632
1640
1644
1688
1700
1712
1702
1682
1666
1650
1626
1616
1612
1604
1600
1620
1636
1644
1672
1700
1729
1744
1752
1762
1776
1762
1700
1704
1692
1668
1648
1648
1632
1632
1632
1668
1720
1738
1746
1776
1795
1828
1848
1849
1850
1858
1860
1844
1829
1808
1796
1772
1773
1755
1768
1769
1781
1805
1764
1796
1814
1836
1836
1856
1882
1876
1824
1864
1860
1856
1824
1828
1808
1803
1808
1814
1844
1864
1893
1916
1933
1970
2008
1988
1992
1980
1972
1952
1940
1928
1848
1842
1824
1824
1820
1848
1860
1880
1900
1954
2016
2032
2052
2048
2048
2057
2042
2018
1996
1978
1960
1925
1920
1910
1914
1925
1936
1956
1976
2004
2022
2040
1992
2000
2004
2000
2008
1980
1956
1958
1920
1936
1942
1933
1942
1940
1964
1993
2016
2040
2064
2088
2106
2116
2112
2112
2096
2084
2068
2049
2029
2010
2000
1996
1928
1944
1956
2002
2010
2052
2068
2084
2104
2156
2204
2208
2201
2228
2188
2176
2152
2152
2136
2138
2144
2156
2169
2194
2229
2256
2284
2308
2330
2340
2346
2347
2256
2258
2208
2218
2192
2200
2180
2168
2172
2208
2266
2280
2309
2328
2352
2368
2384
2377
2384
2370
2356
2328
2306
2283
2272
2244
2234
2232
2232
2248
2256
2289
2232
2280
2276
2290
2304
2316
2312
2300
2292
2308
2330
2304
2294
2304
2258
2252
2260
2272
2276
2304
2326
2341
2362
2380
2392
2401
2400
2392
2376
2368
2344
2316
2224
2212
2188
2184
2176
2204
2216
2224
2236
2308
2368
2376
2388
2392
2400
2388
2380
2360
2344
2305
2304
2272
2257
2248
2258
2244
2274
2296
2304
2344
2368
2380
2308
2324
2320
2312
2292
2296
2272
2240
2216
2244
2264
2256
2266
2266
2288
2304
2432
2244
2372
2388
2400
2408
2404
2404
2389
2380
2356
2336
2296
2296
2273
2261
2188
2200
2212
2228
2240
2272
2288
2290
2300
2352
2392
2388
2385
2368
2348
2322
2306
2284
2272
2256
2260
2258
2304
2296
2308
2346
2360
2408
2406
2396
2400
2393
2296
2288
2248
2248
2220
2220
2200
2188
2180
2232
2278
2296
2314
2336
2348
2372
2396
2400
2388
2392
2386
2356
2341
2320
2310
2288
2276
2276
2268
2280
2293
2336
2260
2280
2304
2320
2316
2368
2336
2328
2308
2344
2352
2329
2310
2288
2274
2277
2264
2284
2288
2305
2324
2341
2368
2386
2416
2406
2417
2408
2400
2386
2368
2342
2244
2240
2218
2208
2200
2224
2224
2236
2244
2304
2360
2372
2400
2392
2405
2400
2400
2376
2360
2344
2316
2290
2292
2284
2290
2288
2304
2322
2340
2354
2378
2394
2312
2340
2338
2332
2314
2316
2290
2268
2232
2264
2276
2266
2260
2272
2288
2296
2324
2347
2368
2386
2380
2394
2388
2390
2364
2352
2324
2308
2280
2256
2248
2235
2166
2184
2192
2216
2229
2268
2284
2296
2294
2352
2378
2378
2360
2352
2330
2312
2304
2322
2296
2283
2296
2312
2316
2345
2372
2393
2408
2432
2433
2438
2432
2420
2324
2312
2284
2256
2228
2220
2196
2182
2172
2228
2265
2268
2293
2304
2336
2344
2344
2345
2376
2330
2329
2306
2282
2272
2248
2232
2216
2212
2241
2212
2226
2248
2196
2232
2244
2266
2268
2296
2316
2284
2292
2296
2313
2293
2272
2257
2266
2245
2226
2256
2272
2284
2312
2314
2336
2354
2368
2372
2372
2372
2358
2338
2312
2288
2188
2188
2174
2164
2164
2208
2200
2208
2232
2296
2362
2376
2380
2384
2390
2406
2404
2348
2324
2296
2272
2260
2248
2229
2228
2240
2246
2260
2268
2285
2296
2304
2234
2252
2256
2268
2264
2276
2272
2288
2300
2360
2425
2456
2500
2568
2642
2712
2816
2922
3045
3168
3284
3424
3540
3648
3744
3810
3872
3912
3945
3953
3976
3984
3848
3840
3796
3752
3656
3608
3472
3344
3194
3120
3028
2860
2741
2560
2424
2288
2176
2072
1980
1920
1875
1844
1824
1827
1835
1834
1843
1856
1848
1840
1824
1806
1714
1700
1658
1622
1577
1564
1534
1512
1508
1536
1584
1592
1621
1640
1669
1698
1718
1720
1721
1722
1707
1722
1664
1648
1624
1609
1600
1600
1585
1600
1618
1644
1624
1648
1674
1704
1708
1728
1724
1722
1698
1708
1716
1702
1680
1660
1637
1634
1636
1670
1664
1690
1714
1741
1769
1794
1802
1820
1827
1826
1834
1818
1809
1792
1721
1722
1712
1700
1696
1725
1744
1760
1780
1836
1876
1892
1920
1920
1923
1924
1922
1900
1881
1860
1850
1835
1830
1818
1836
1834
1866
1888
1904
1937
1961
1973
1928
1952
1940
1946
1932
1928
1898
1872
1853
1872
1881
1880
1882
1897
1904
1924
1956
1972
2008
2016
2048
2056
2048
2041
2048
2022
2003
1984
1964
1953
1948
1936
1872
1884
1912
1876
1932
1968
1968
1992
1984
2032
2056
2048
2034
2016
1995
1986
1964
1952
1940
1936
1937
1942
1964
1980
2010
2040
2064
2084
2098
2102
2100
2092
2016
2000
1974
1962
1930
1944
1916
1908
1905
1956
2026
2037
2086
2096
2152
2144
2168
2176
2180
2180
2176
2156
2144
2120
2106
2090
2088
2080
2101
2112
2133
2168
2120
2160
2186
2208
2220
2248
2248
2340
2226
2264
2272
2253
2240
2232
2218
2210
2212
2229
2244
2272
2285
2309
2332
2348
2384
2372
2387
2393
2352
2340
2314
2293
2180
2180
2168
2156
2152
2192
2184
2204
2216
2272
2324
2356
2396
2380
2368
2368
2330
2328
2309
2288
2265
2252
2233
2229
2226
2225
2240
2264
2292
2312
2336
2352
2280
2308
2296
2288
2260
2256
2232
2200
2184
2208
2212
2208
2216
2218
2228
2245
2260
2292
2304
2320
2336
2344
2340
2337
2320
2310
2280
2264
2234
2234
2208
2208
2124
2152
2156
2184
2192
2232
2240
2256
2250
2308
2347
2338
2328
2297
2276
2268
2242
2232
2220
2212
2224
2229
2230
2252
2264
2304
2314
2329
2342
2352
2345
2342
2252
2240
2228
2198
2176
2172
2160
2156
2146
2184
2240
2262
2282
2312
2328
2336
2352
2356
2352
2344
2336
2312
2284
2265
2240
2224
2216
2208
2212
2220
2232
2256
2210
2236
2248
2272
2288
2280
2282
2298
2246
2272
2268
2248
2220
2200
2204
2182
2194
2203
2208
2259
2260
2296
2320
2340
2353
2361
2363
2356
2344
2340
2312
2304
2186
2184
2164
2152
2144
2160
2184
2168
2212
2248
2304
2322
2321
2329
2328
2320
2316
2289
2272
2260
2236
2220
2208
2176
2202
2210
2211
2240
2273
2280
2296
2320
2252
2276
2276
2272
2260
2244
2224
2208
2168
2184
2208
2192
2188
2188
2200
2208
2224
2228
2240
2248
2256
2256
2252
2249
2241
2221
2200
2184
2176
2152
2144
2130
2065
2104
2090
2104
2128
2152
2172
2178
2172
2240
2274
2252
2248
2224
2208
2186
2168
2148
2138
2132
2128
2140
2148
2170
2176
2208
2220
2240
2256
2244
2236
2228
2136
2144
2112
2100
2097
2068
2056
2052
2040
2116
2144
2177
2194
2216
2240
2264
2261
2272
2264
2256
2240
2224
2196
2164
2152
2128
2128
2124
2124
2152
2154
2176
2132
2148
2184
2188
2194
2212
2212
2204
2192
2208
2232
2208
2208
2192
2188
2189
2202
2212
2218
2242
2258
2277
2288
2297
2293
2290
2273
2258
2234
2212
2192
2168
2060
2056
2069
2033
2028
2048
2064
2072
2100
2168
2224
2241
2248
2261
2260
2252
2232
2208
2184
2160
2132
2120
2106
2092
2101
2112
2116
2137
2148
2178
2194
2210
2132
2164
2153
2144
2136
2120
2088
2066
2034
2048
2085
2064
2056
2104
2091
2114
2138
2157
2184
2196
2210
2209
2217
2220
2195
2176
2161
2161
2132
2103
2108
2096
2061
2056
2054
2080
2105
2132
2128
2160
2160
2188
2240
2226
2220
2208
2184
2166
2156
2132
2120
2112
2106
2112
2112
2121
2132
2162
2168
2188
2212
2220
2233
2240
2169
2220
2200
2212
2244
2256
2260
2296
2370
2440
2552
2656
2764
2880
3000
3152
3256
3376
3480
3568
3648
3684
3733
3752
3764
3752
3744
3728
3672
3626
3560
3478
3268
3188
3082
2976
2853
2772
2640
2522
2409
2352
2280
2189
2101
2032
1976
1929
1892
1877
1858
1846
1856
1856
1865
1860
1856
1848
1828
1808
1784
1744
1704
1688
1608
1594
1574
1572
1560
1600
1594
1613
1624
1680
1728
1744
1756
1772
1777
1773
1760
1738
1720
1702
1690
1680
1660
1656
1686
1670
1691
1712
1731
1752
1776
1800
1750
1776
1770
1768
1704
1736
1712
1685
1662
1669
1696
1692
1707
1728
1745
1770
1804
1836
1860
1888
1902
1904
1912
1904
1896
1882
1868
1856
1826
1820
1804
1802
1744
1768
1788
1804
1828
1872
1888
1908
1912
1968
2010
2008
2000
1987
1968
1946
1920
1907
1920
1888
1884
1936
1922
1944
1969
1984
2028
2026
2048
2048
2052
2049
1972
1968
1952
1930
1912
1916
1888
1892
1893
1938
1992
2018
2052
2100
2082
2105
2128
2128
2128
2124
2112
2112
2074
2048
2025
2010
1984
1984
2011
2000
2024
2048
1992
2034
2053
2080
2081
2096
2102
2084
2084
2104
2113
2086
2058
2048
2032
2024
2028
2016
2038
2054
2082
2107
2130
2160
2176
2194
2202
2202
2198
2188
2170
2145
2066
2056
2044
2034
2040
2064
2096
2092
2108
2168
2225
2244
2264
2277
2289
2282
2264
2252
2256
2248
2216
2212
2209
2218
2219
2240
2264
2288
2320
2336
2352
2378
2309
2324
2324
2316
2308
2348
2284
2272
2242
2282
2304
2304
2310
2306
2328
2336
2360
2376
2394
2400
2410
2432
2412
2396
2372
2368
2336
2320
2310
2288
2272
2272
2196
2212
2225
2242
2244
2284
2294
2306
2296
2348
2380
2377
2368
2344
2332
2304
2296
2274
2264
2259
2272
2280
2324
2336
2328
2341
2360
2370
2380
2384
2384
2368
2276
2264
2240
2240
2192
2192
2184
2172
2176
2228
2290
2312
2336
2360
2376
2388
2394
2396
2386
2368
2340
2320
2290
2267
2242
2234
2220
2224
2226
2234
2260
2304
2232
2268
2272
2288
2280
2296
2296
2282
2256
2290
2304
2296
2280
2264
2256
2250
2256
2268
2284
2308
2328
2345
2361
2396
2409
2410
2420
2424
2432
2420
2402
2380
2276
2274
2248
2230
2236
2248
2248
2244
2256
2312
2364
2400
2388
2385
2400
2416
2390
2373
2368
2348
2326
2314
2308
2305
2316
2329
2346
2368
2386
2408
2424
2440
2368
2380
2368
2356
2332
2336
2304
2276
2252
2288
2336
2305
2308
2320
2329
2354
2368
2392
2412
2416
2424
2432
2419
2408
2392
2384
2360
2358
2328
2312
2320
2296
2230
2256
2264
2296
2301
2340
2352
2368
2360
2410
2456
2448
2437
2416
2392
2372
2356
2336
2316
2324
2320
2324
2336
2362
2374
2379
2408
2408
2418
2410
2424
2410
2312
2336
2296
2276
2253
2244
2256
2232
2240
2292
2360
2384
2408
2424
2440
2444
2448
2452
2444
2436
2413
2400
2380
2360
2352
2338
2332
2354
2357
2370
2408
2424
2376
2408
2412
2440
2428
2448
2430
2418
2380
2416
2404
2376
2360
2340
2340
2308
2312
2324
2338
2368
2392
2432
2440
2459
2480
2484
2480
2480
2468
2454
2440
2424
2328
2324
2308
2308
2308
2336
2344
2384
2372
2424
2484
2484
2496
2502
2488
2472
2474
2452
2444
2448
2424
2412
2402
2412
2418
2424
2448
2464
2480
2498
2512
2522
2442
2456
2440
2416
2400
2396
2362
2329
2328
2308
2344
2340
2340
2336
2352
2360
2373
2408
2420
2436
2448
2426
2434
2432
2420
2405
2388
2370
2336
2328
2316
2306
2240
2256
2272
2296
2312
2344
2364
2372
2378
2432
2488
2426
2416
2400
2362
2330
2312
2274
2265
2256
2260
2272
2282
2312
2330
2358
2380
2404
2408
2420
2426
2426
2332
2328
2320
2292
2264
2268
2244
2242
2232
2289
2320
2346
2388
2376
2380
2401
2410
2409
2402
2396
2387
2368
2345
2332
2308
2282
2266
2257
2252
2276
2272
2288
2236
2272
2298
2332
2346
2396
2400
2416
2420
2476
2522
2544
2564
2610
2648
2732
2804
2900
3032
3130
3272
3385
3505
3617
3704
3776
3816
3840
3856
3848
3808
3760
3564
3504
3428
3336
3248
3180
3112
3012
2930
2912
2880
2824
2714
2648
2560
2484
2410
2338
2261
2202
2133
2084
2048
2004
1972
1962
1953
1955
1960
1968
1976
1976
1906
1909
1888
1880
1840
1832
1794
1770
1730
1744
1772
1749
1750
1760
1782
1802
1834
1850
1864
1878
1901
1896
1904
1888
1872
1852
1832
1808
1776
1760
1744
1747
1696
1718
1720
1748
1766
1794
1828
1836
1840
1880
1914
1916
1925
1888
1884
1845
1820
1793
1785
1816
1787
1802
1826
1849
1869
1908
1928
1944
1961
1974
1984
1978
1910
1914
1896
1884
1848
1864
1840
1840
1840
1888
1928
1965
1980
2010
2034
2056
2088
2070
2072
2066
2048
2048
2016
1996
1984
1968
1968
1976
1976
1986
2016
2048
2000
2024
2044
2068
2072
2092
2088
2073
2066
2084
2112
2085
2064
2054
2052
2037
2053
2068
2082
2100
2120
2148
2154
2176
2181
2176
2177
2160
2160
2138
2116
2096
2026
2024
2008
2012
2016
2044
2056
2084
2102
2156
2211
2224
2233
2230
2225
2212
2198
2170
2148
2132
2112
2101
2096
2084
2090
2100
2132
2152
2178
2209
2228
2240
2176
2192
2180
2176
2152
2160
2124
2104
2066
2116
2130
2132
2152
2148
2182
2200
2234
2258
2284
2304
2322
2328
2336
2320
2336
2306
2284
2265
2256
2240
2232
2232
2160
2176
2200
2224
2242
2284
2290
2304
2316
2360
2396
2389
2373
2368
2336
2321
2321
2305
2304
2304
2297
2320
2344
2372
2380
2416
2419
2433
2448
2444
2440
2432
2328
2316
2320
2272
2242
2240
2216
2218
2200
2264
2320
2356
2352
2368
2378
2386
2402
2388
2394
2369
2346
2338
2314
2296
2272
2258
2244
2244
2260
2264
2288
2312
2264
2292
2308
2320
2320
2344
2340
2325
2306
2320
2342
2316
2304
2277
2264
2257
2264
2280
2289
2312
2340
2356
2376
2386
2400
2400
2400
2396
2370
2361
2330
2314
2220
2208
2200
2220
2188
2216
2228
2252
2266
2328
2384
2400
2406
2442
2406
2406
2394
2373
2348
2326
2304
2285
2288
2288
2293
2309
2324
2360
2377
2400
2418
2426
2360
2338
2364
2352
2332
2324
2288
2272
2236
2260
2280
2272
2280
2292
2304
2336
2352
2386
2406
2420
2433
2428
2432
2424
2416
2394
2372
2348
2320
2312
2304
2292
2218
2236
2244
2264
2272
2308
2324
2324
2322
2372
2406
2404
2384
2372
2352
2322
2314
2291
2288
2288
2284
2290
2308
2324
2346
2372
2384
2396
2409
2410
2436
2400
2312
2302
2272
2252
2220
2224
2208
2204
2200
2248
2304
2320
2336
2360
2368
2376
2384
2376
2368
2352
2336
2320
2288
2272
2257
2240
2228
2224
2236
2234
2258
2288
2234
2266
2284
2290
2292
2304
2296
2276
2258
2288
2277
2266
2244
2234
2211
2232
2225
2248
2258
2290
2320
2340
2361
2376
2384
2377
2374
2372
2344
2316
2292
2260
2164
2168
2154
2154
2152
2176
2192
2202
2224
2292
2340
2352
2368
2361
2357
2352
2332
2304
2285
2264
2240
2229
2213
2211
2208
2224
2242
2256
2273
2290
2304
2314
2240
2249
2240
2225
2201
2200
2168
2150
2124
2154
2176
2177
2192
2196
2218
2248
2256
2282
2309
2314
2320
2316
2320
2316
2296
2282
2266
2245
2240
2232
2234
2240
2176
2208
2224
2241
2256
2280
2296
2304
2300
2346
2360
2340
2320
2289
2266
2243
2213
2200
2180
2176
2176
2187
2202
2227
2240
2278
2296
2308
2312
2326
2320
2340
2208
2196
2176
2154
2132
2128
2112
2102
2114
2148
2208
2234
2216
2278
2288
2306
2314
2316
2308
2296
2276
2250
2236
2220
2192
2169
2160
2168
2168
2176
2202
2217
2168
2194
2208
2216
2216
2240
2216
2216
2198
2216
2232
2208
2188
2176
2176
2165
2178
2192
2212
2240
2264
2290
2308
2324
2328
2328
2314
2310
2290
2265
2250
2227
2136
2128
2112
2106
2112
2132
2144
2152
2148
2200
2242
2260
2260
2272
2288
2288
2304
2312
2313
2325
2352
2378
2402
2453
2496
2560
2636
2724
2818
2914
3024
3136
3144
3264
3354
3441
3496
3576
3624
3636
3648
3728
3800
3800
3784
3760
3720
3666
3588
3500
3392
3288
3164
3040
2896
2762
2642
2496
2384
2264
2156
2080
2022
1957
1860
1840
1826
1816
1822
1832
1840
1833
1820
1848
1856
1832
1808
1776
1737
1701
1673
1649
1626
1628
1626
1640
1649
1668
1698
1714
1728
1742
1760
1764
1752
1736
1668
1664
1638
1618
1594
1592
1580
1584
1572
1624
1651
1684
1712
1736
1766
1773
1792
1818
1794
1786
1776
1761
1745
1718
1700
1696
1681
1688
1698
1708
1717
1752
1717
1760
1768
1786
1792
1808
1808
1797
1784
1790
1808
1792
1696
1768
1762
1771
1778
1806
1821
1850
1880
1912
1924
1946
1954
1952
1952
1952
1928
1916
1892
1880
1796
1800
1788
1800
1808
1824
1848
1876
1900
1960
2001
2010
2020
2024
2018
2000
1992
1976
1964
1940
1921
1922
1915
1924
1932
1958
1984
2008
2032
2053
2080
2092
2026
2040
2032
2018
1986
1992
1976
1933
1898
1928
1944
1940
1944
1965
1990
2003
2030
2073
2080
2091
2114
2114
2114
2132
2101
2080
2057
2048
2016
2002
1994
1993
1932
1956
1954
1978
1996
2020
2032
2045
2045
2080
2106
2096
2068
2052
2026
2017
1997
1987
1972
1980
1990
2000
2009
2048
2072
2088
2112
2134
2140
2148
2144
2176
2076
2060
2050
2044
2018
2024
2012
2020
2028
2096
2136
2166
2200
2224
2250
2272
2304
2293
2293
2288
2272
2261
2248
2240
2225
2217
2211
2218
2221
2240
2256
2272
2224
2256
2280
2289
2296
2304
2300
2288
2264
2284
2304
2280
2261
2241
2240
2224
2236
2249
2256
2288
2306
2322
2345
2348
2360
2360
2352
2344
2344
2322
2304
2272
2194
2176
2160
2172
2160
2192
2224
2216
2240
2292
2352
2362
2376
2378
2388
2362
2344
2330
2312
2288
2276
2258
2250
2258
2260
2272
2288
2304
2330
2362
2384
2402
2322
2332
2328
2324
2304
2288
2276
2252
2228
2272
2290
2292
2290
2304
2314
2344
2357
2384
2400
2402
2408
2410
2408
2400
2384
2368
2348
2328
2308
2304
2304
2296
2232
2256
2272
2296
2314
2356
2368
2376
2388
2436
2468
2464
2448
2432
2408
2386
2368
2344
2336
2340
2348
2360
2373
2388
2412
2432
2444
2458
2464
2465
2456
2441
2342
2332
2314
2290
2272
2272
2256
2256
2256
2304
2360
2368
2400
2416
2438
2448
2450
2464
2460
2456
2424
2417
2408
2384
2362
2376
2360
2348
2358
2380
2394
2418
2348
2380
2392
2404
2404
2416
2408
2384
2368
2388
2392
2384
2356
2341
2341
2340
2344
2347
2370
2392
2410
2422
2452
2464
2456
2452
2452
2444
2432
2400
2384
2352
2268
2260
2248
2256
2252
2280
2296
2306
2328
2392
2440
2452
2458
2448
2449
2432
2408
2376
2368
2369
2316
2312
2304
2310
2312
2320
2348
2372
2388
2424
2442
2453
2372
2388
2380
2364
2336
2336
2304
2288
2268
2308
2322
2320
2324
2348
2360
2384
2392
2405
2426
2432
2453
2444
2444
2432
2412
2386
2368
2346
2328
2320
2310
2304
2240
2264
2276
2294
2308
2346
2356
2364
2360
2400
2440
2416
2416
2389
2378
2356
2346
2325
2320
2306
2308
2322
2345
2360
2388
2408
2412
2432
2440
2444
2440
2440
2332
2336
2316
2280
2264
2284
2268
2274
2280
2344
2409
2432
2465
2484
2504
2536
2508
2502
2488
2472
2442
2420
2388
2352
2320
2304
2280
2280
2276
2288
2304
2314
2256
2284
2296
2308
2314
2328
2324
2312
2314
2308
2320
2292
2272
2256
2244
2240
2248
2256
2278
2285
2312
2338
2368
2380
2380
2392
2388
2376
2368
2340
2328
2304
2208
2212
2196
2192
2192
2224
2232
2244
2262
2320
2372
2384
2389
2393
2384
2357
2352
2322
2306
2282
2272
2260
2251
2256
2260
2276
2296
2316
2338
2368
2369
2377
2304
2314
2288
2272
2253
2260
2236
2208
2184
2216
2240
2251
2240
2265
2266
2288
2341
2326
2328
2336
2336
2322
2296
2297
2290
2280
2280
2286
2293
2320
2346
2388
2362
2416
2482
2544
2616
2720
2784
2864
2946
3104
3248
3352
3448
3536
3617
3688
3760
3808
3850
3892
3929
3984
4005
4016
4004
3980
3912
3824
3712
3584
3442
3288
3016
2872
2712
2564
2416
2312
2208
2112
2034
2032
2025
2008
1996
1992
1992
1990
1976
1968
1952
1925
1892
1861
1812
1777
1756
1720
1702
1698
1693
1696
1712
1729
1682
1714
1732
1744
1745
1762
1760
1746
1732
1746
1748
1728
1709
1690
1691
1684
1692
1706
1729
1757
1773
1808
1820
1832
1845
1848
1829
1828
1824
1802
1782
1760
1690
1680
1680
1686
1684
1714
1728
1746
1776
1828
1878
1888
1904
1923
1910
1914
1908
1888
1878
1866
1857
1837
1840
1844
1860
1880
1900
1925
1948
1980
2000
2008
1953
1972
1972
1957
1928
1930
1896
1880
1860
1888
1908
1905
1910
1936
1960
1984
2006
2024
2038
2056
2048
2056
2052
2038
2028
2008
1984
1961
1939
1930
1934
1931
1884
1908
1916
1956
1976
1996
2012
2028
2016
2064
2082
2072
2057
2025
2001
1989
1972
1945
1944
1944
1952
1958
1974
2003
2016
2037
2054
2068
2064
2066
2064
2048
1961
1952
1928
1918
1888
1892
1880
1873
1888
1940
1973
1995
2025
2038
2060
2072
2084
2085
2104
2072
2050
2034
2016
1992
1981
1970
1968
1973
1984
1993
2028
2037
2001
2040
2046
2026
2064
2074
2076
2056
2040
2048
2054
2050
2034
2028
2032
2037
2058
2074
2113
2153
2185
2209
2234
2258
2276
2280
2277
2272
2260
2245
2220
2208
2116
2112
2100
2108
2106
2132
2152
2162
2180
2252
2304
2312
2316
2320
2329
2306
2296
2328
2272
2252
2234
2224
2224
2224
2228
2258
2275
2292
2313
2328
2344
2352
2274
2288
2276
2261
2240
2234
2216
2188
2172
2194
2224
2224
2233
2250
2266
2296
2320
2336
2354
2364
2368
2368
2360
2346
2332
2314
2306
2289
2272
2272
2268
2272
2200
2224
2250
2261
2280
2316
2324
2336
2330
2408
2408
2386
2380
2354
2328
2316
2304
2290
2276
2280
2288
2297
2326
2342
2362
2389
2408
2425
2442
2435
2444
2424
2330
2352
2304
2282
2265
2284
2272
2268
2276
2336
2376
2400
2417
2432
2442
2449
2460
2445
2440
2424
2404
2378
2352
2336
2321
2304
2304
2312
2314
2328
2352
2376
2312
2336
2356
2372
2372
2388
2376
2368
2336
2368
2372
2353
2324
2320
2304
2304
2320
2322
2344
2356
2393
2408
2424
2440
2440
2440
2453
2421
2400
2374
2360
2338
2252
2244
2236
2234
2232
2276
2280
2300
2316
2376
2433
2444
2453
2453
2448
2434
2436
2408
2384
2368
2344
2323
2312
2304
2292
2316
2320
2332
2360
2376
2386
2402
2322
2336
2336
2332
2320
2304
2292
2276
2254
2276
2304
2292
2304
2309
2312
2330
2352
2368
2373
2392
2388
2400
2392
2368
2348
2344
2314
2304
2265
2272
2268
2273
2202
2228
2250
2264
2282
2328
2336
2341
2400
2392
2432
2416
2402
2385
2368
2352
2336
2328
2320
2316
2320
2332
2352
2376
2401
2404
2420
2436
2436
2432
2416
2405
2300
2284
2260
2256
2216
2208
2196
2204
2196
2252
2305
2325
2354
2372
2392
2404
2396
2401
2400
2384
2368
2344
2321
2304
2296
2284
2276
2272
2273
2292
2308
2326
2274
2306
2314
2316
2316
2338
2328
2308
2284
2356
2322
2304
2275
2260
2264
2268
2274
2292
2312
2336
2352
2380
2393
2403
2420
2409
2405
2378
2360
2336
2308
2296
2208
2204
2202
2216
2228
2257
2288
2310
2336
2402
2452
2474
2474
2468
2454
2432
2408
2388
2376
2322
2304
2290
2280
2290
2297
2312
2328
2344
2360
2384
2400
2408
2336
2340
2328
2306
2272
2272
2232
2208
2192
2208
2226
2220
2234
2245
2273
2289
2320
2336
2352
2368
2357
2360
2353
2341
2320
2297
2272
2248
2224
2209
2204
2200
2138
2168
2184
2208
2224
2260
2280
2294
2288
2344
2354
2346
2321
2289
2256
2232
2212
2186
2189
2160
2176
2186
2204
2224
2258
2280
2304
2320
2352
2328
2336
2320
2234
2224
2200
2186
2157
2154
2136
2144
2140
2196
2234
2264
2278
2284
2304
2288
2297
2296
2264
2232
2210
2192
2170
2176
2180
2176
2208
2224
2268
2328
2380
2432
2404
2468
2524
2592
2648
2740
2816
2898
2980
3124
3258
3348
3436
3504
3572
3634
3688
3728
3765
3784
3810
3788
3746
3688
3592
3494
3368
3220
3080
2944
2792
2644
2424
2320
2208
2128
2056
2010
1980
1936
1924
1930
1956
1940
1922
1904
1880
1842
1812
1768
1736
1696
1650
1612
1600
1593
1586
1580
1584
1604
1620
1633
1648
1659
1620
1617
1616
1606
1582
1576
1548
1521
1502
1520
1530
1536
1546
1565
1585
1611
1640
1670
1690
1705
1716
1728
1720
1716
1700
1680
1672
1658
1645
1627
1632
1632
1589
1626
1640
1656
1682
1716
1724
1738
1749
1792
1808
1798
1792
1772
1744
1728
1712
1692
1691
1686
1688
1696
1720
1744
1760
1780
1816
1832
1836
1849
1856
1844
1772
1772
1746
1720
1666
1688
1684
1680
1684
1728
1771
1793
1820
1856
1868
1890
1904
1905
1900
1898
1876
1890
1840
1829
1800
1785
1776
1792
1794
1808
1832
1852
1826
1842
1866
1876
1880
1904
1896
1880
1868
1888
1892
1876
1864
1856
1849
1862
1875
1904
1916
1948
1972
1988
1994
2008
2010
2016
2012
1986
1992
1968
1952
1930
1864
1860
1856
1852
1858
1882
1894
1921
1932
1992
2033
2037
2040
2048
2038
2030
2010
1994
1988
1962
1944
1928
1932
1934
1936
1961
1984
2009
2041
2064
2080
2102
2036
2050
2044
2040
2024
2020
1994
1980
1952
1980
2004
2009
2026
2050
2076
2121
2124
2156
2176
2196
2209
2208
2214
2208
2192
2178
2161
2146
2144
2132
2136
2140
2080
2112
2132
2153
2170
2204
2216
2240
2234
2272
2304
2292
2280
2256
2232
2208
2188
2176
2176
2176
2185
2195
2208
2232
2241
2264
2268
2282
2284
2274
2272
2256
2164
2164
2130
2112
2093
2096
2080
2084
2086
2144
2200
2201
2240
2256
2274
2282
2288
2280
2280
2252
2242
2220
2185
2169
2144
2134
2132
2128
2152
2168
2226
2245
2192
2216
2238
2264
2264
2280
2280
2272
2244
2258
2277
2252
2229
2214
2204
2192
2232
2224
2230
2248
2274
2332
2320
2337
2352
2352
2348
2337
2320
2304
2272
2264
2166
2168
2157
2156
2160
2196
2212
2236
2242
2314
2368
2384
2394
2389
2393
2376
2368
2376
2328
2304
2292
2280
2275
2265
2280
2304
2313
2341
2356
2380
2400
2413
2344
2352
2352
2348
2320
2324
2296
2280
2248
2292
2313
2306
2320
2330
2348
2368
2384
2394
2405
2413
2432
2421
2418
2406
2389
2370
2362
2348
2328
2314
2320
2325
2250
2276
2292
2304
2320
2352
2356
2364
2354
2400
2424
2412
2392
2376
2352
2322
2316
2304
2292
2304
2314
2322
2337
2354
2372
2393
2400
2420
2422
2417
2416
2412
2304
2308
2280
2256
2240
2244
2232
2220
2224
2280
2339
2357
2376
2400
2421
2432
2438
2438
2426
2412
2404
2362
2356
2325
2316
2304
2284
2288
2292
2312
2336
2360
2292
2328
2328
2368
2336
2356
2336
2328
2292
2336
2330
2312
2288
2274
2274
2278
2288
2310
2330
2348
2380
2392
2412
2417
2425
2418
2400
2385
2360
2340
2316
2288
2208
2192
2186
2198
2194
2224
2248
2256
2280
2328
2385
2404
2400
2400
2376
2364
2344
2309
2276
2248
2232
2216
2218
2216
2233
2248
2282
2304
2328
2352
2376
2388
2308
2320
2308
2292
2257
2248
2224
2201
2168
2202
2224
2229
2240
2272
2297
2332
2372
2400
2432
2433
2444
2484
2432
2432
2402
2368
2360
2322
2304
2285
2272
2262
2188
2204
2222
2232
2233
2266
2264
2272
2256
2288
2304
2304
2280
2249
2240
2214
2201
2180
2184
2194
2192
2203
2232
2256
2260
2283
2297
2290
2304
2293
2277
2256
2168
2162
2128
2108
2088
2092
2084
2090
2097
2152
2216
2245
2264
2280
2293
2308
2308
2308
2294
2288
2272
2240
2226
2201
2184
2176
2176
2168
2181
2194
2216
2242
2196
2224
2248
2260
2288
2280
2272
2264
2248
2276
2280
2258
2249
2228
2216
2212
2232
2226
2234
2261
2273
2297
2304
2316
2316
2304
2290
2276
2256
2224
2208
2197
2112
2128
2140
2164
2188
2248
2284
2338
2396
2489
2570
2628
2680
2736
2788
2848
2904
2960
3032
3116
3200
3284
3368
3456
3524
3600
3656
3712
3738
3776
3776
3764
3584
3552
3482
3392
3280
3200
3068
2948
2832
2764
2700
2614
2528
2465
2400
2346
2320
2280
2244
2208
2181
2144
2104
2065
2024
1986
1952
1920
1890
1864
1842
1836
1762
1772
1788
1790
1802
1824
1840
1848
1842
1884
1897
1900
1884
1892
1867
1834
1832
1816
1824
1817
1838
1851
1867
1888
1908
1925
1944
1946
1953
1948
1952
1944
1876
1868
1730
1836
1834
1848
1856
1848
1864
1920
1978
2005
2028
2048
2069
2080
2096
2102
2098
2080
2068
2050
2040
2016
2010
2000
1998
2001
2027
2036
2066
2092
2048
2088
2092
2106
2104
2112
2104
2088
2060
2072
2084
2065
2048
2048
2035
2032
2068
2073
2112
2132
2146
2162
2185
2194
2193
2192
2188
2170
2152
2130
2120
2105
2012
2016
2012
2024
2040
2068
2088
2096
2121
2186
2225
2224
2243
2230
2224
2216
2188
2169
2146
2114
2097
2096
2080
2092
2096
2116
2136
2160
2184
2208
2228
2240
2193
2180
2172
2160
2128
2128
2112
2080
2052
2080
2112
2117
2134
2152
2154
2196
2210
2225
2241
2250
2252
2250
2245
2224
2208
2186
2169
2152
2136
2128
2116
2128
2072
2100
2116
2134
2160
2220
2212
2220
2226
2276
2304
2285
2261
2234
2216
2198
2184
2176
2162
2176
2186
2212
2234
2272
2296
2317
2342
2362
2368
2368
2368
2352
2264
2248
2228
2220
2196
2212
2208
2202
2216
2272
2332
2356
2381
2409
2416
2432
2440
2436
2424
2408
2386
2356
2337
2316
2304
2280
2272
2268
2280
2292
2312
2322
2272
2292
2308
2308
2314
2324
2308
2296
2268
2280
2292
2260
2252
2231
2232
2226
2232
2248
2272
2284
2304
2332
2340
2352
2360
2357
2344
2324
2314
2304
2277
2256
2161
2168
2154
2157
2162
2180
2200
2208
2228
2296
2344
2384
2353
2354
2337
2338
2320
2290
2284
2264
2248
2244
2236
2240
2253
2265
2290
2313
2368
2356
2372
2378
2308
2328
2304
2296
2256
2264
2228
2212
2188
2208
2240
2249
2246
2272
2282
2304
2328
2342
2360
2368
2370
2368
2360
2348
2328
2306
2304
2284
2276
2281
2280
2288
2220
2248
2304
2304
2312
2348
2346
2348
2344
2386
2402
2384
2368
2347
2320
2304
2290
2275
2274
2288
2306
2328
2360
2384
2408
2432
2436
2464
2444
2432
2426
2408
2298
2288
2248
2264
2204
2200
2192
2184
2186
2260
2310
2336
2360
2376
2393
2402
2412
2409
2408
2392
2376
2368
2337
2322
2304
2296
2284
2278
2281
2296
2320
2330
2264
2300
2306
2304
2304
2328
2304
2296
2264
2282
2292
2262
2258
2226
2228
2228
2240
2250
2264
2290
2305
2324
2337
2341
2354
2342
2336
2316
2325
2273
2256
2232
2180
2156
2172
2164
2168
2208
2216
2240
2256
2308
2360
2368
2368
2356
2352
2321
2308
2268
2256
2225
2214
2213
2208
2212
2217
2230
2256
2288
2312
2338
2352
2368
2292
2296
2296
2284
2252
2260
2226
2208
2188
2224
2264
2258
2273
2292
2296
2310
2330
2360
2346
2358
2356
2352
2328
2316
2294
2273
2234
2220
2192
2177
2176
2170
2116
2132
2148
2170
2180
2224
2228
2228
2228
2272
2298
2297
2274
2259
2232
2212
2208
2204
2193
2200
2219
2233
2260
2304
2314
2352
2377
2404
2408
2418
2408
2393
2298
2284
2268
2248
2216
2256
2204
2216
2202
2256
2314
2321
2336
2360
2384
2378
2376
2361
2338
2320
2289
2272
2236
2224
2208
2196
2189
2189
2196
2208
2232
2260
2204
2232
2248
2268
2264
2272
2260
2248
2218
2224
2244
2208
2188
2176
2166
2168
2170
2192
2214
2248
2256
2280
2308
2320
2337
2344
2336
2330
2324
2313
2292
2272
2184
2188
2170
2172
2168
2192
2202
2208
2224
2280
2317
2336
2337
2336
2320
2316
2292
2266
2250
2228
2210
2197
2200
2216
2224
2248
2276
2304
2337
2352
2372
2377
2296
2308
2288
2260
2224
2208
2164
2120
2084
2104
2130
2132
2152
2180
2228
2274
2328
2385
2434
2481
2522
2561
2596
2640
2668
2708
2752
2804
2873
2945
3040
3148
3152
3280
3376
3464
3536
3632
3672
3712
3720
3800
3850
3818
3748
3642
3546
3432
3296
3156
3040
2917
2809
2705
2613
2404
2458
2400
2322
2272
2216
2160
2101
2058
1936
1896
1845
1808
1765
1744
1708
1700
1688
1720
1756
1757
1778
1794
1798
1808
1816
1810
1803
1792
1770
1746
1713
1688
1669
1664
1651
1653
1650
1652
1678
1689
1648
1668
1670
1698
1664
1660
1648
1622
1592
1592
1568
1570
1536
1515
1505
1496
1506
1520
1553
1573
1590
1616
1620
1632
1640
1626
1622
1612
1592
1568
1532
1504
1434
1432
1420
1414
1402
1436
1456
1473
1489
1544
1590
1608
1633
1638
1636
1621
1613
1592
1560
1536
1509
1484
1476
1466
1481
1496
1520
1544
1573
1590
1632
1648
1621
1644
1640
1624
1613
1604
1564
1532
1504
1500
1512
1448
1508
1520
1552
1561
1590
1616
1668
1672
1688
1696
1702
1701
1680
1654
1632
1600
1563
1549
1528
1529
1486
1512
1536
1572
1586
1616
1648
1664
1664
1704
1717
1700
1681
1642
1617
1588
1565
1561
1536
1536
1536
1545
1576
1602
1635
1666
1696
1704
1716
1732
1723
1693
1638
1604
1586
1561
1538
1528
1516
1516
1497
1556
1594
1621
1649
1674
1701
1718
1733
1745
1749
1740
1716
1713
1670
1665
1629
1612
1600
1600
1612
1618
1664
1685
1672
1716
1744
1768
1784
1808
1804
1800
1786
1792
1800
1780
1752
1745
1729
1736
1750
1772
1792
1824
1864
1897
1938
1968
1974
1977
1992
1990
1984
1946
1921
1900
1812
1796
1784
1780
1780
1802
1820
1848
1874
1946
1992
2012
2037
2048
2050
2048
2024
1992
1976
1936
1912
1872
1868
1848
1864
1884
1892
1929
1948
1978
2004
2021
1976
1992
1992
1984
1968
1952
1924
1890
1857
1866
1882
1860
1874
1900
1900
1925
1954
1990
2048
2056
2072
2085
2090
2080
2064
2052
2010
1958
1944
1904
1890
1888
1852
1848
1870
1896
1924
1968
2000
2020
2029
2068
2116
2113
2072
2049
2016
1989
1960
1928
1931
1914
1928
1933
1948
1996
2032
2064
2104
2129
2150
2156
2152
2139
2056
2036
2000
1968
1928
1912
1896
1889
1888
1936
1984
2016
2048
2088
2121
2136
2154
2164
2176
2162
2144
2112
2084
2048
2022
2004
1972
1968
1974
1984
2012
2041
2004
2060
2096
2124
2124
2156
2150
2137
2132
2112
2112
2072
2028
2012
1990
1984
1984
2010
2028
2066
2121
2144
2176
2208
2224
2241
2233
2224
2202
2176
2144
2096
1986
1966
1936
1920
1928
1960
1978
2024
2060
2144
2216
2256
2272
2304
2304
2288
2265
2232
2189
2156
2113
2085
2092
2058
2064
2080
2096
2129
2169
2208
2240
2272
2216
2240
2232
2224
2194
2176
2136
2092
2048
2064
2064
2060
2068
2086
2118
2149
2204
2225
2268
2289
2320
2352
2341
2320
2304
2273
2232
2188
2156
2114
2100
2088
2024
2048
2068
2104
2132
2176
2200
2224
2228
2280
2309
2284
2264
2220
2176
2128
2086
2048
2016
2009
2000
2017
2058
2089
2133
2176
2221
2256
2280
2285
2284
2272
2168
2144
2096
2060
1998
1980
1940
1930
1928
1968
2016
2054
2096
2156
2176
2213
2240
2256
2272
2258
2256
2227
2193
2164
2117
2097
2070
2064
2060
2072
2084
2122
2068
2116
2138
2162
2170
2192
2172
2152
2128
2108
2096
2048
2002
1968
1942
1920
1924
1940
1973
2012
2048
2096
2133
2176
2210
2216
2216
2200
2186
2133
2104
2060
1940
1914
1881
1880
1868
1904
1916
1922
1986
2064
2129
2168
2194
2212
2210
2200
2176
2144
2104
2080
2036
2002
1984
1984
1978
2003
2018
2056
2096
2144
2176
2201
2144
2168
2164
2148
2125
2098
2056
2016
1976
1994
1994
1984
1990
2008
2034
2072
2116
2152
2193
2224
2232
2250
2252
2234
2209
2181
2136
2096
2048
2016
1994
1970
1900
1904
1922
1954
1997
2044
2090
2140
2184
2258
2325
2340
2368
2372
2364
2360
2364
2376
2408
2448
2524
2628
2737
2868
3024
3168
3304
3440
3560
3648
3720
3764
3688
3668
3660
3648
3564
3536
3448
3364
3244
3220
3168
3078
2980
2884
2828
2714
2618
2528
2420
2320
2217
2128
2016
1936
1844
1772
1724
1700
1688
1684
1697
1722
1692
1730
1762
1768
1768
1778
1760
1718
1680
1664
1636
1581
1541
1496
1477
1464
1466
1492
1524
1566
1612
1651
1688
1721
1747
1763
1765
1752
1724
1696
1642
1606
1520
1480
1472
1454
1484
1496
1516
1548
1584
1640
1716
1818
1792
1792
1801
1781
1756
1728
1680
1645
1600
1575
1554
1536
1542
1560
1588
1632
1664
1720
1756
1798
1768
1792
1790
1788
1753
1736
1698
1652
1616
1602
1606
1590
1600
1620
1640
1672
1696
1750
1784
1813
1833
1846
1848
1820
1796
1756
1732
1686
1650
1612
1600
1586
1546
1568
1592
1616
1654
1700
1736
1758
1772
1818
1829
1820
1797
1763
1717
1691
1654
1622
1608
1596
1612
1626
1690
1696
1736
1776
1804
1833
1844
1861
1848
1826
1744
1716
1668
1634
1584
1562
1540
1530
1528
1572
1632
1672
1721
1754
1809
1842
1856
1873
1872
1850
1832
1786
1744
1708
1664
1638
1617
1632
1628
1648
1682
1728
1720
1768
1800
1837
1852
1868
1864
1845
1809
1804
1792
1752
1712
1676
1664
1650
1700
1701
1732
1777
1824
1864
1898
1948
1972
1996
1993
1993
1972
1940
1905
1865
1764
1752
1732
1730
1737
1772
1800
1834
1880
1972
2049
2082
2120
2140
2149
2144
2124
2104
2060
2028
2006
1960
1958
1944
1953
1984
2012
2048
2089
2129
2164
2185
2152
2164
2164
2112
2116
2096
2048
2002
1957
1968
1980
1979
1985
2004
2034
2072
2116
2157
2196
2230
2252
2258
2256
2248
2226
2178
2144
2112
2070
2032
2010
2000
1936
1968
1986
2064
2064
2124
2164
2184
2212
2272
2304
2292
2272
2226
2192
2154
2104
2082
2068
2061
2052
2080
2096
2130
2176
2218
2245
2278
2310
2320
2324
2305
2210
2192
2156
2128
2088
2068
2047
2038
2040
2108
2166
2200
2240
2292
2328
2372
2396
2396
2402
2378
2352
2314
2282
2234
2220
2176
2144
2140
2154
2176
2208
2248
2220
2272
2312
2337
2356
2388
2384
2362
2328
2328
2332
2312
2250
2208
2198
2176
2176
2210
2220
2274
2296
2362
2368
2424
2424
2434
2432
2416
2384
2352
2320
2280
2164
2144
2120
2116
2116
2148
2178
2204
2240
2344
2408
2453
2454
2466
2456
2440
2424
2384
2340
2296
2240
2208
2184
2160
2160
2176
2196
2240
2276
2308
2348
2376
2314
2336
2329
2320
2288
2272
2224
2184
2153
2144
2154
2144
2144
2170
2194
2236
2277
2320
2354
2380
2409
2416
2432
2392
2352
2320
2274
2216
2197
2144
2120
2104
2049
2068
2097
2124
2160
2216
2242
2268
2281
2328
2376
2354
2322
2293
2248
2208
2168
2124
2112
2093
2098
2122
2140
2184
2226
2274
2314
2344
2352
2368
2368
2368
2278
2240
2193
2160
2108
2088
2072
2048
2052
2112
2156
2195
2235
2280
2316
2344
2372
2387
2392
2374
2360
2328
2316
2249
2216
2200
2177
2187
2165
2202
2225
2276
2224
2276
2296
2336
2376
2368
2384
2348
2360
2330
2362
2296
2281
2258
2250
2250
2258
2291
2316
2341
2392
2436
2453
2480
2504
2523
2501
2482
2448
2418
2368
2320
2208
2192
2138
2165
2136
2156
2184
2214
2248
2320
2400
2433
2456
2473
2476
2466
2436
2282
2352
2308
2274
2240
2220
2200
2208
2224
2249
2292
2329
2368
2404
2432
2364
2376
2376
2364
2320
2340
2272
2232
2194
2210
2224
2212
2220
2241
2272
2308
2352
2400
2432
2476
2480
2497
2490
2480
2460
2417
2386
2336
2304
2280
2253
2248
2178
2200
2228
2264
2300
2354
2392
2412
2430
2476
2520
2500
2474
2437
2389
2352
2304
2272
2244
2240
2240
2245
2272
2293
2328
2356
2388
2416
2441
2449
2472
2480
2394
2394
2392
2384
2388
2408
2420
2448
2481
2592
2720
2824
2936
3076
3178
3308
3434
3552
3666
3760
3817
3872
3908
3928
3930
3936
3940
3946
3936
3920
3908
3864
3684
3632
3544
3444
3316
3212
3076
2930
2806
2688
2562
2418
2304
2180
2084
2025
1984
1958
1948
1960
1972
1984
2004
2025
2038
2032
2008
1988
1944
1894
1841
1785
1690
1652
1634
1618
1616
1680
1668
1696
1733
1804
1868
1907
1912
1937
1936
1920
1884
1894
1813
1768
1746
1701
1685
1670
1684
1704
1744
1786
1826
1888
1926
1952
1928
1952
1936
1928
1890
1872
1824
1790
1740
1748
1747
1742
1752
1773
1808
1856
1904
1953
1988
2032
2082
2081
2106
2075
2060
2032
1996
1962
1929
1904
1881
1893
1828
1856
1884
1916
1976
2020
2052
2088
2108
2160
2201
2176
2157
2128
2088
2049
2025
1992
1984
1976
1984
2014
2048
2082
2132
2176
2217
2256
2284
2296
2304
2288
2196
2168
2128
2082
2038
2024
2008
2000
2000
2058
2120
2166
2200
2246
2288
2314
2352
2354
2356
2348
2317
2294
2250
2214
2176
2144
2134
2128
2136
2156
2188
2221
2180
2232
2264
2298
2312
2340
2324
2314
2284
2300
2292
2252
2212
2176
2160
2145
2156
2212
2208
2244
2292
2336
2384
2404
2432
2444
2456
2464
2416
2368
2336
2296
2184
2160
2140
2129
2092
2156
2184
2216
2260
2346
2421
2452
2485
2505
2512
2529
2488
2460
2425
2388
2353
2330
2312
2322
2308
2325
2363
2432
2448
2484
2523
2560
2490
2512
2514
2500
2464
2456
2408
2376
2328
2348
2368
2360
2373
2387
2412
2454
2501
2532
2576
2608
2626
2624
2624
2608
2576
2544
2488
2448
2401
2357
2340
2321
2256
2300
2292
2360
2360
2408
2436
2464
2470
2530
2568
2552
2519
2492
2448
2400
2356
2320
2288
2276
2276
2280
2320
2337
2389
2432
2460
2516
2540
2560
2560
2548
2434
2420
2364
2328
2276
2248
2218
2208
2188
2234
2288
2312
2362
2400
2432
2496
2482
2484
2497
2488
2464
2426
2401
2368
2322
2296
2284
2288
2288
2308
2336
2377
2324
2366
2404
2436
2444
2464
2456
2434
2400
2416
2418
2380
2340
2308
2304
2304
2304
2320
2352
2384
2432
2476
2518
2560
2576
2618
2580
2565
2536
2501
2458
2416
2300
2272
2240
2232
2226
2256
2272
2312
2340
2424
2497
2536
2560
2552
2564
2576
2520
2496
2460
2416
2385
2348
2324
2316
2316
2328
2352
2385
2418
2464
2500
2534
2472
2480
2486
2484
2448
2444
2408
2360
2328
2336
2360
2357
2360
2384
2408
2440
2484
2516
2544
2578
2594
2601
2604
2580
2552
2524
2482
2448
2404
2380
2356
2368
2296
2336
2336
2380
2416
2488
2504
2548
2558
2612
2656
2649
2616
2576
2538
2488
2448
2418
2386
2380
2376
2392
2410
2437
2480
2546
2564
2584
2624
2627
2640
2640
2504
2480
2440
2408
2360
2344
2336
2308
2300
2372
2440
2480
2521
2566
2609
2644
2673
2689
2693
2681
2660
2630
2612
2532
2473
2448
2408
2400
2420
2404
2426
2464
2416
2472
2496
2520
2532
2568
2556
2548
2516
2536
2538
2488
2451
2426
2412
2402
2408
2432
2466
2512
2548
2588
2640
2666
2697
2704
2706
2688
2664
2642
2596
2560
2424
2408
2378
2364
2360
2392
2408
2426
2468
2540
2636
2660
2688
2705
2716
2704
2692
2664
2632
2594
2560
2530
2512
2499
2509
2528
2536
2568
2608
2636
2676
2696
2616
2628
2628
2610
2578
2568
2516
2484
2432
2456
2480
2468
2465
2496
2517
2552
2600
2616
2640
2668
2688
2680
2672
2656
2624
2586
2560
2504
2473
2480
2420
2410
2338
2368
2394
2418
2457
2512
2544
2568
2592
2640
2688
2676
2665
2640
2592
2568
2538
2491
2469
2456
2449
2466
2488
2524
2568
2608
2645
2674
2706
2714
2722
2704
2592
2570
2525
2486
2476
2428
2404
2380
2388
2452
2512
2541
2580
2640
2648
2673
2688
2680
2688
2660
2626
2592
2560
2488
2445
2402
2368
2346
2352
2356
2394
2432
2412
2476
2528
2584
2628
2688
2704
2724
2740
2792
2833
2848
2856
2882
2933
3008
3092
3202
3332
3476
3617
3760
3904
3984
4066
4095
4095
4095
4095
4095
4034
3952
3708
3616
3504
3360
3240
3154
3036
2948
2858
2848
2816
2745
2673
2616
2572
2484
2432
2317
2241
2176
2114
2052
1996
1970
1953
1955
1968
1988
2005
2036
2064
2080
2028
2032
2024
1996
1956
1944
1884
1840
1790
1784
1792
1776
1766
1784
1800
1836
1872
1912
1952
1989
2001
2024
2022
2013
1994
1969
1933
1900
1881
1848
1832
1833
1784
1804
1849
1880
1924
1980
2012
2040
2056
2116
2138
2130
2120
2080
2048
2000
1968
1940
1912
1906
1920
1933
1965
2000
2040
2082
2124
2156
2180
2193
2200
2192
2102
2080
2040
2008
1960
1948
1916
1916
1912
1969
2018
2080
2118
2162
2204
2234
2268
2288
2288
2272
2256
2226
2188
2144
2100
2072
2048
2038
2048
2073
2100
2136
2112
2160
2202
2230
2248
2292
2288
2276
2244
2264
2252
2212
2180
2146
2129
2114
2120
2144
2164
2208
2246
2289
2337
2376
2396
2402
2384
2389
2354
2323
2280
2242
2136
2118
2104
2108
2096
2136
2156
2196
2224
2304
2378
2400
2432
2437
2433
2416
2392
2368
2314
2280
2229
2210
2178
2179
2184
2200
2236
2256
2304
2340
2372
2416
2360
2376
2386
2364
2348
2336
2300
2264
2248
2232
2276
2258
2266
2288
2324
2360
2409
2450
2486
2520
2544
2564
2560
2549
2528
2496
2448
2404
2370
2345
2328
2320
2248
2288
2316
2352
2392
2448
2488
2522
2544
2604
2636
2616
2580
2544
2516
2468
2416
2384
2356
2341
2352
2368
2392
2424
2469
2508
2548
2581
2610
2610
2608
2592
2512
2488
2405
2392
2320
2282
2248
2224
2228
2281
2336
2376
2416
2452
2490
2517
2548
2562
2561
2552
2530
2496
2448
2406
2368
2336
2305
2292
2293
2304
2324
2348
2308
2360
2384
2404
2420
2448
2428
2404
2370
2384
2384
2336
2296
2257
2240
2228
2233
2241
2272
2324
2361
2432
2448
2482
2504
2512
2536
2504
2480
2436
2404
2352
2238
2216
2188
2172
2172
2208
2224
2260
2296
2368
2450
2504
2504
2512
2514
2488
2474
2432
2395
2352
2316
2280
2256
2240
2249
2266
2284
2328
2368
2400
2434
2466
2392
2428
2412
2408
2372
2360
2316
2272
2226
2248
2265
2257
2272
2284
2304
2341
2377
2416
2448
2477
2490
2500
2485
2472
2440
2400
2370
2324
2285
2264
2228
2210
2138
2160
2192
2220
2260
2308
2340
2372
2384
2456
2468
2469
2448
2404
2370
2326
2294
2256
2234
2224
2232
2236
2266
2310
2354
2380
2424
2452
2480
2490
2498
2464
2360
2340
2294
2240
2224
2186
2162
2156
2156
2196
2267
2292
2330
2372
2416
2441
2468
2480
2468
2452
2432
2400
2368
2322
2275
2248
2240
2219
2224
2229
2260
2304
2244
2300
2368
2364
2376
2408
2394
2384
2344
2354
2353
2306
2262
2233
2218
2200
2208
2224
2256
2292
2332
2376
2422
2456
2482
2500
2497
2484
2450
2408
2364
2322
2212
2136
2145
2130
2120
2152
2160
2208
2228
2316
2400
2416
2448
2454
2452
2440
2432
2377
2340
2320
2272
2264
2240
2252
2276
2304
2324
2372
2420
2464
2517
2544
2480
2496
2490
2464
2428
2396
2344
2284
2244
2232
2248
2228
2234
2236
2264
2288
2329
2362
2404
2424
2445
2448
2444
2432
2416
2370
2328
2292
2248
2216
2193
2180
2118
2068
2180
2200
2224
2292
2338
2356
2400
2432
2468
2467
2466
2412
2392
2344
2304
2272
2244
2244
2264
2264
2304
2337
2372
2408
2436
2472
2490
2492
2496
2482
2372
2352
2316
2273
2252
2232
2188
2192
2184
2252
2320
2353
2392
2448
2480
2516
2533
2552
2537
2521
2490
2464
2424
2378
2340
2304
2281
2252
2264
2275
2297
2324
2272
2322
2340
2368
2376
2400
2400
2402
2384
2416
2440
2432
2432
2440
2448
2474
2524
2577
2672
2740
2860
2976
3090
3220
3350
3472
3592
3672
3744
3808
3824
3840
3708
3722
3736
3700
3672
3696
3668
3640
3576
3592
3572
3497
3392
3285
3172
3026
2892
2736
2588
2440
2320
2208
2108
2034
2004
1962
1966
1998
2005
2001
2020
2040
1976
1980
1968
1940
1897
1864
1816
1756
1698
1688
1680
1670
1666
1681
1701
1740
1778
1850
1858
1893
1914
1926
1932
1904
1898
1850
1814
1771
1740
1705
1682
1660
1620
1644
1672
1705
1749
1804
1832
1872
1892
1928
1962
1952
1929
1897
1860
1816
1776
1752
1728
1730
1740
1769
1792
1834
1880
1932
1984
2000
2028
2040
2056
2017
1928
1906
1866
1828
1792
1776
1760
1756
1764
1820
1878
1921
1965
2005
2056
2080
2108
2105
2112
2096
2072
2037
2000
1952
1920
1896
1872
1858
1877
1905
1922
1960
1941
1992
2028
2056
2076
2104
2092
2080
2045
2060
2050
2009
1968
1940
1915
1906
1920
1924
1968
1995
2048
2080
2128
2188
2184
2195
2193
2176
2160
2128
2089
2048
1944
1928
1892
1892
1888
1930
1946
1986
2008
2096
2169
2201
2224
2233
2228
2240
2180
2138
2100
2060
2000
1973
1956
1944
1952
1980
2026
2034
2080
2128
2176
2196
2152
2188
2176
2176
2140
2128
2088
2040
1990
2016
2010
2000
2024
2048
2060
2112
2156
2204
2245
2274
2309
2321
2341
2314
2292
2264
2224
2192
2157
2124
2104
2105
2044
2068
2104
2144
2182
2240
2272
2312
2336
2380
2422
2416
2388
2348
2316
2273
2245
2213
2189
2177
2192
2204
2232
2264
2290
2336
2362
2400
2426
2440
2418
2416
2314
2288
2244
2208
2166
2138
2114
2102
2098
2144
2196
2228
2264
2308
2356
2372
2404
2412
2412
2400
2370
2337
2294
2248
2208
2184
2156
2145
2160
2170
2202
2228
2194
2240
2280
2316
2316
2338
2332
2320
2288
2308
2297
2256
2224
2196
2154
2146
2160
2176
2196
2240
2278
2326
2360
2400
2417
2440
2440
2420
2393
2362
2326
2282
2192
2144
2104
2097
2104
2132
2160
2180
2216
2296
2370
2392
2410
2432
2434
2409
2396
2368
2329
2288
2252
2220
2189
2176
2176
2192
2202
2244
2282
2320
2357
2388
2336
2354
2353
2346
2316
2304
2272
2228
2184
2188
2208
2195
2224
2210
2240
2261
2305
2332
2380
2422
2421
2424
2432
2440
2392
2357
2322
2282
2248
2220
2208
2186
2128
2156
2178
2208
2244
2288
2324
2352
2368
2432
2464
2448
2424
2384
2348
2304
2264
2224
2208
2189
2208
2225
2249
2288
2324
2376
2412
2452
2472
2488
2480
2448
2345
2328
2273
2226
2192
2168
2132
2122
2112
2176
2232
2262
2312
2340
2400
2425
2434
2454
2449
2440
2417
2376
2340
2290
2250
2216
2202
2188
2194
2213
2240
2276
2236
2292
2320
2353
2364
2394
2384
2368
2338
2332
2336
2292
2252
2209
2189
2176
2161
2192
2204
2234
2272
2321
2348
2386
2401
2406
2404
2392
2374
2341
2304
2240
2136
2112
2092
2088
2096
2136
2176
2196
2248
2344
2418
2466
2488
2504
2508
2490
2476
2442
2394
2344
2288
2256
2225
2208
2193
2208
2216
2240
2272
2304
2338
2360
2300
2308
2308
2278
2256
2240
2200
2148
2108
2104
2112
2112
2104
2124
2154
2184
2232
2272
2312
2348
2368
2378
2372
2356
2324
2288
2256
2208
2180
2138
2112
2112
2056
2068
2104
2128
2144
2200
2236
2256
2272
2328
2356
2336
2313
2284
2242
2201
2152
2133
2107
2092
2096
2106
2134
2168
2200
2248
2283
2320
2352
2348
2344
2336
2228
2210
2172
2120
2084
2068
2040
2028
2017
2080
2144
2168
2214
2245
2233
2296
2336
2316
2312
2308
2288
2266
2240
2221
2208
2200
2224
2242
2276
2320
2392
2468
2460
2576
2660
2768
2856
2992
3104
3168
3232
3392
3496
3584
3604
3624
3652
3685
3712
3744
3768
3780
3780
3764
3722
3664
3584
3472
3368
3216
3080
2900
2757
2628
2362
2242
2152
2060
1998
1960
1940
1928
1948
2008
2056
2048
2049
2041
2025
1995
1960
1908
1848
1786
1732
1696
1664
1643
1634
1644
1682
1708
1746
1793
1844
1872
1830
1872
1864
1858
1844
1824
1772
1748
1686
1692
1692
1690
1701
1712
1739
1780
1826
1868
1904
1964
1968
1972
1990
1976
1954
1920
1888
1832
1809
1766
1760
1756
1704
1738
1768
1800
1849
1906
1938
1940
1986
2050
2084
2080
2082
2022
1986
1944
1906
1872
1850
1842
1846
1876
1904
1938
1988
2033
2068
2104
2128
2138
2140
2124
2020
2016
1988
1924
1880
1868
1848
1841
1832
1900
1968
1994
2040
2096
2136
2168
2188
2203
2200
2194
2164
2138
2100
2054
2026
1977
1958
1948
1952
1969
2000
2032
2016
2060
2104
2136
2164
2184
2188
2165
2144
2176
2137
2100
2053
2018
2002
1990
2002
2012
2041
2104
2124
2160
2208
2228
2259
2280
2276
2265
2248
2248
2186
2137
2028
2008
1980
1982
1962
2000
2008
2040
2076
2160
2224
2262
2268
2288
2294
2285
2268
2234
2192
2146
2104
2072
2054
2052
2056
2104
2086
2136
2178
2224
2273
2304
2252
2276
2276
2300
2240
2232
2194
2164
2120
2136
2152
2160
2161
2184
2217
2258
2312
2357
2401
2436
2464
2472
2483
2472
2452
2420
2388
2358
2312
2272
2260
2244
2176
2200
2229
2264
2304
2352
2388
2426
2430
2496
2528
2528
2501
2469
2425
2384
2336
2305
2280
2265
2258
2273
2293
2325
2360
2392
2432
2460
2516
2489
2496
2469
2370
2368
2320
2280
2232
2224
2200
2184
2176
2256
2288
2324
2364
2400
2437
2468
2500
2504
2536
2488
2464
2432
2390
2344
2304
2268
2240
2218
2224
2229
2260
2296
2288
2304
2340
2376
2380
2408
2428
2404
2368
2384
2370
2344
2322
2265
2256
2232
2244
2252
2280
2320
2360
2384
2420
2470
2486
2498
2500
2496
2464
2433
2392
2344
2240
2208
2192
2202
2176
2200
2209
2252
2293
2368
2442
2512
2496
2502
2512
2496
2474
2440
2388
2352
2304
2276
2246
2245
2240
2258
2280
2308
2354
2388
2418
2460
2400
2420
2420
2412
2385
2372
2336
2288
2250
2248
2261
2246
2242
2257
2277
2320
2354
2408
2432
2452
2476
2483
2486
2482
2464
2434
2386
2344
2313
2277
2248
2242
2170
2192
2208
2240
2282
2336
2360
2392
2420
2468
2506
2492
2456
2440
2384
2340
2296
2262
2236
2224
2224
2240
2258
2304
2338
2368
2416
2448
2457
2480
2482
2468
2370
2352
2305
2240
2224
2208
2176
2161
2148
2192
2252
2274
2314
2352
2388
2417
2448
2456
2456
2445
2424
2400
2353
2324
2288
2252
2234
2216
2228
2250
2266
2304
2256
2308
2329
2362
2374
2404
2392
2368
2352
2352
2360
2313
2282
2268
2242
2240
2260
2284
2338
2368
2410
2464
2497
2530
2549
2552
2544
2521
2488
2422
2376
2324
2204
2172
2144
2132
2116
2144
2160
2192
2216
2290
2362
2392
2416
2420
2405
2384
2360
2324
2280
2252
2208
2169
2144
2140
2125
2138
2165
2196
2268
2278
2316
2338
2280
2308
2300
2288
2256
2240
2196
2152
2104
2100
2120
2106
2108
2116
2136
2176
2221
2252
2281
2320
2342
2358
2352
2342
2314
2288
2250
2201
2160
2128
2100
2088
2016
2056
2069
2100
2136
2176
2216
2242
2260
2320
2346
2330
2304
2278
2234
2200
2160
2132
2104
2092
2085
2092
2112
2140
2164
2200
2224
2252
2276
2304
2309
2306
2232
2232
2208
2192
2178
2192
2224
2224
2256
2384
2518
2612
2726
2872
2994
3148
3272
3424
3514
3601
3680
3720
3732
3736
3736
3728
3712
3696
3673
3648
3608
3554
3368
3304
3216
3120
3000
2904
2768
2624
2488
2396
2284
2160
2048
1940
1848
1804
1752
1748
1738
1748
1778
1792
1828
1849
1861
1849
1845
1830
1794
1753
1696
1648
1541
1508
1470
1460
1452
1464
1488
1516
1552
1626
1684
1723
1750
1784
1766
1768
1744
1700
1672
1642
1580
1557
1540
1516
1524
1540
1573
1612
1668
1698
1748
1792
1760
1784
1776
1768
1736
1716
1676
1634
1610
1592
1586
1588
1592
1612
1640
1680
1731
1768
1805
1841
1882
1881
1892
1883
1866
1856
1802
1777
1736
1697
1688
1674
1622
1656
1684
1714
1752
1802
1840
1872
1896
1928
1970
1960
1942
1910
1878
1840
1802
1774
1760
1753
1771
1792
1824
1862
1920
1960
2004
2048
2074
2100
2104
2088
1996
2008
1948
1896
1873
1850
1832
1812
1826
1890
1933
1977
2028
2080
2120
2152
2200
2197
2198
2188
2169
2145
2106
2072
2028
2000
1977
1974
1976
1996
2026
2060
2032
2092
2144
2161
2176
2212
2212
2192
2168
2200
2164
2116
2080
2048
2029
2026
2024
2048
2073
2112
2157
2192
2240
2268
2296
2316
2320
2304
2288
2258
2217
2176
2066
2040
2018
2004
2012
2064
2064
2096
2144
2212
2296
2336
2373
2372
2384
2394
2362
2356
2320
2293
2261
2234
2214
2213
2224
2249
2292
2328
2376
2421
2464
2502
2440
2472
2474
2468
2440
2468
2388
2348
2304
2314
2326
2304
2313
2326
2350
2373
2448
2464
2488
2528
2548
2561
2564
2560
2532
2508
2488
2412
2376
2344
2336
2305
2218
2244
2268
2302
2336
2384
2416
2442
2452
2520
2560
2560
2537
2508
2482
2432
2402
2354
2338
2336
2336
2337
2376
2402
2442
2480
2516
2548
2564
2576
2586
2561
2444
2416
2386
2332
2296
2268
2248
2232
2216
2280
2332
2372
2416
2452
2488
2528
2552
2562
2560
2544
2514
2472
2440
2400
2354
2320
2293
2281
2283
2294
2320
2356
2316
2360
2392
2432
2448
2480
2468
2452
2420
2432
2436
2394
2352
2312
2304
2288
2284
2312
2322
2376
2408
2438
2477
2498
2530
2536
2541
2520
2508
2473
2432
2392
2274
2250
2232
2218
2208
2248
2264
2282
2320
2400
2476
2504
2432
2534
2549
2514
2496
2466
2408
2369
2342
2288
2266
2256
2265
2268
2284
2324
2368
2404
2448
2476
2440
2434
2464
2430
2404
2386
2340
2300
2252
2260
2274
2260
2292
2277
2304
2324
2372
2412
2448
2480
2506
2509
2512
2496
2476
2442
2408
2361
2320
2292
2268
2264
2184
2216
2233
2260
2264
2348
2376
2432
2432
2484
2516
2504
2468
2452
2405
2368
2328
2282
2262
2249
2257
2268
2309
2324
2372
2416
2444
2476
2536
2508
2512
2498
2380
2352
2316
2264
2218
2208
2176
2160
2152
2232
2260
2304
2341
2385
2408
2460
2490
2508
2505
2498
2496
2436
2388
2361
2304
2276
2250
2242
2250
2264
2281
2320
2280
2336
2364
2405
2424
2456
2460
2442
2408
2432
2432
2404
2368
2340
2312
2309
2322
2344
2373
2405
2460
2490
2544
2568
2584
2585
2593
2569
2544
2500
2456
2405
2272
2232
2204
2185
2160
2186
2192
2226
2244
2330
2404
2432
2444
2476
2456
2450
2426
2400
2360
2314
2284
2248
2224
2213
2224
2228
2264
2296
2328
2368
2402
2436
2384
2404
2400
2388
2360
2352
2312
2272
2232
2256
2240
2229
2240
2240
2257
2288
2322
2358
2393
2442
2460
2465
2476
2476
2464
2424
2410
2341
2340
2274
2280
2256
2168
2188
2218
2244
2276
2337
2368
2402
2400
2458
2506
2490
2456
2424
2377
2330
2288
2252
2218
2208
2189
2200
2219
2240
2278
2322
2352
2395
2436
2456
2480
2480
2396
2400
2374
2364
2356
2380
2376
2404
2450
2560
2704
2808
2948
3080
3210
3349
3492
3600
3712
3784
3832
3872
3880
3865
3856
3840
3808
3792
3744
3692
3648
3584
3384
3324
3240
3144
3036
2960
2836
2720
2588
2500
2404
2288
2166
2074
1992
1928
1892
1872
1862
1872
1884
1896
1921
1936
1957
1962
1954
1937
1928
1898
1836
1784
1688
1661
1664
1618
1614
1632
1656
1688
1704
1784
1846
1882
1906
1920
1920
1909
1888
1865
1825
1792
1744
1712
1692
1670
1674
1688
1717
1746
1792
1836
1880
1920
1888
1912
1921
1916
1930
1888
1840
1812
1774
1780
1796
1781
1786
1818
1844
1875
1940
1964
2004
2041
2073
2080
2085
2070
2052
2028
2000
1956
1928
1890
1882
1890
1840
1864
1900
1940
1976
2040
2080
2112
2132
2192
2212
2200
2208
2147
2106
2072
2021
1994
1968
1984
1965
1984
2005
2050
2088
2137
2178
2208
2240
2260
2264
2264
2160
2138
2089
2060
2022
2004
1970
1968
1961
2024
2072
2120
2164
2217
2281
2304
2320
2340
2356
2352
2324
2304
2264
2214
2184
2144
2121
2097
2104
2112
2122
2166
2132
2172
2208
2244
2256
2300
2288
2280
2252
2248
2250
2214
2156
2130
2096
2088
2106
2130
2128
2169
2198
2249
2276
2312
2348
2362
2368
2360
2344
2312
2280
2244
2132
2112
2072
2076
2052
2084
2096
2126
2172
2256
2312
2352
2369
2394
2392
2406
2384
2341
2316
2274
2244
2214
2192
2188
2184
2209
2240
2278
2324
2368
2400
2426
2388
2424
2413
2396
2384
2376
2336
2282
2248
2248
2249
2233
2241
2268
2274
2320
2356
2402
2444
2480
2496
2524
2528
2505
2484
2453
2400
2352
2312
2282
2244
2236
2169
2192
2200
2236
2268
2312
2336
2368
2410
2432
2472
2480
2448
2396
2360
2316
2274
2232
2200
2185
2181
2192
2221
2248
2288
2340
2380
2410
2436
2453
2468
2450
2352
2336
2292
2254
2218
2200
2172
2160
2140
2196
2232
2260
2293
2328
2372
2403
2432
2441
2441
2432
2410
2380
2345
2304
2251
2224
2208
2194
2192
2210
2240
2265
2224
2272
2304
2348
2360
2396
2388
2384
2362
2370
2357
2324
2285
2249
2232
2211
2252
2212
2240
2268
2304
2338
2378
2410
2425
2445
2440
2432
2404
2386
2330
2296
2184
2152
2136
2128
2128
2160
2168
2192
2220
2288
2368
2400
2405
2426
2436
2417
2410
2376
2336
2304
2266
2228
2216
2196
2196
2236
2228
2252
2294
2340
2372
2413
2356
2372
2380
2373
2340
2330
2308
2261
2220
2217
2224
2220
2210
2208
2233
2256
2304
2336
2368
2400
2420
2421
2432
2416
2384
2354
2314
2265
2224
2196
2168
2160
2096
2124
2160
2184
2225
2288
2316
2356
2402
2440
2470
2464
2432
2408
2360
2306
2264
2226
2185
2176
2176
2192
2212
2256
2297
2338
2384
2411
2440
2450
2466
2456
2352
2328
2300
2250
2216
2188
2160
2149
2156
2186
2240
2268
2304
2341
2389
2417
2440
2460
2458
2452
2436
2401
2368
2320
2280
2256
2228
2221
2220
2229
2272
2290
2240
2284
2322
2352
2356
2388
2380
2392
2344
2352
2348
2307
2264
2240
2214
2204
2224
2240
2268
2304
2344
2394
2432
2454
2480
2496
2497
2482
2468
2441
2408
2368
2256
2232
2200
2192
2176
2200
2208
2236
2293
2338
2404
2412
2444
2448
2456
2440
2412
2380
2336
2281
2232
2188
2149
2123
2112
2112
2128
2160
2192
2224
2266
2284
2244
2272
2274
2280
2256
2248
2208
2165
2132
2144
2152
2138
2146
2156
2184
2208
2240
2280
2308
2336
2356
2362
2352
2340
2313
2277
2225
2185
2136
2108
2080
2060
2000
2024
2048
2088
2118
2192
2212
2258
2282
2346
2388
2380
2353
2328
2280
2245
2200
2162
2132
2105
2104
2112
2137
2160
2204
2246
2280
2314
2326
2338
2344
2306
2214
2176
2134
2092
2044
2028
2008
2032
2036
2116
2202
2268
2352
2432
2508
2572
2640
2694
2744
2780
2816
2841
2872
2906
2950
3008
3072
3145
3232
3320
3408
3488
3440
3536
3588
3624
3626
3664
3624
3564
3476
3456
3372
3226
3088
2949
2816
2696
2596
2512
2436
2385
2349
2314
2288
2274
2250
2220
2192
2150
2106
2056
2000
1928
1809
1772
1740
1706
1698
1712
1712
1740
1768
1824
1888
1920
1944
1960
1956
1946
1913
1884
1837
1785
1740
1699
1673
1660
1658
1664
1685
1736
1788
1837
1881
1928
1900
1928
1928
1936
1918
1896
1860
1816
1756
1760
1762
1748
1746
1760
1786
1833
1888
1920
1969
2024
2057
2090
2098
2090
2072
2037
1988
1964
1924
1896
1868
1861
1800
1790
1852
1882
1916
1968
2000
2040
2066
2116
2160
2148
2156
2104
2066
2040
1994
1970
1942
1924
1932
1921
1954
2000
2040
2072
2128
2164
2182
2200
2208
2193
2116
2096
2068
2033
1984
1968
1944
1928
1918
1964
2020
2054
2096
2140
2187
2226
2252
2274
2288
2292
2265
2244
2212
2176
2124
2097
2057
2048
2040
2048
2072
2112
2076
2116
2156
2188
2208
2240
2236
2220
2200
2196
2194
2160
2120
2083
2064
2059
2068
2090
2108
2150
2186
2230
2274
2296
2321
2330
2336
2336
2312
2272
2232
2186
2082
2056
2028
2016
2010
2036
2050
2088
2112
2188
2264
2288
2312
2344
2338
2324
2308
2284
2251
2208
2164
2145
2118
2112
2122
2146
2198
2244
2268
2336
2354
2400
2344
2372
2372
2400
2352
2344
2296
2248
2209
2208
2221
2224
2197
2208
2232
2266
2308
2349
2400
2424
2459
2468
2474
2475
2464
2422
2400
2360
2320
2284
2252
2240
2160
2180
2194
2220
2240
2292
2312
2348
2362
2412
2448
2433
2416
2388
2342
2306
2264
2230
2200
2196
2196
2208
2226
2256
2293
2339
2376
2405
2436
2456
2456
2452
2346
2328
2296
2256
2208
2194
2168
2162
2164
2224
2277
2322
2372
2408
2436
2465
2482
2490
2489
2484
2452
2420
2380
2336
2288
2256
2228
2212
2210
2228
2258
2296
2256
2308
2341
2380
2404
2432
2440
2436
2416
2416
2425
2380
2353
2324
2281
2288
2284
2289
2312
2360
2390
2436
2481
2512
2536
2546
2544
2560
2528
2500
2460
2404
2288
2266
2249
2230
2233
2258
2280
2323
2360
2456
2540
2581
2617
2632
2640
2634
2616
2596
2548
2496
2452
2405
2371
2356
2348
2344
2370
2404
2443
2496
2528
2562
2508
2538
2544
2536
2524
2508
2466
2424
2384
2400
2410
2400
2400
2404
2422
2453
2506
2546
2592
2618
2648
2668
2668
2658
2642
2598
2570
2514
2465
2432
2392
2389
2305
2324
2330
2372
2408
2468
2496
2546
2560
2624
2677
2660
2652
2624
2578
2537
2488
2450
2432
2420
2410
2420
2445
2480
2513
2565
2598
2624
2660
2680
2688
2680
2556
2544
2500
2460
2408
2384
2344
2332
2320
2380
2432
2470
2504
2541
2592
2624
2658
2676
2688
2688
2676
2640
2600
2544
2516
2481
2460
2434
2440
2448
2480
2508
2460
2512
2552
2588
2604
2644
2640
2628
2608
2644
2641
2596
2568
2532
2507
2496
2496
2508
2528
2560
2592
2640
2674
2712
2736
2760
2765
2772
2756
2722
2700
2656
2536
2512
2486
2464
2464
2488
2508
2541
2568
2632
2721
2762
2784
2800
2800
2780
2752
2704
2648
2593
2536
2472
2442
2416
2416
2400
2418
2436
2460
2502
2536
2566
2496
2512
2512
2512
2484
2468
2428
2392
2354
2368
2354
2348
2342
2341
2374
2400
2424
2466
2489
2520
2560
2562
2572
2560
2544
2498
2482
2436
2402
2368
2344
2328
2256
2284
2308
2336
2389
2444
2480
2518
2532
2600
2656
2640
2613
2580
2549
2505
2448
2416
2378
2357
2352
2358
2369
2396
2432
2469
2512
2552
2577
2604
2624
2617
2516
2498
2460
2424
2372
2354
2308
2276
2256
2304
2344
2368
2418
2488
2512
2572
2624
2664
2680
2707
2738
2736
2745
2733
2725
2729
2760
2797
2860
2944
3044
3168
3184
3326
3462
3582
3676
3800
3848
3884
3880
3976
3988
3936
3896
3816
3732
3640
3568
3489
3404
3332
3256
3184
3124
3056
2984
2912
2818
2729
2656
2532
2440
2346
2186
2113
2048
1994
1964
1956
1952
1960
1976
2036
2096
2122
2129
2138
2124
2112
2124
2057
2029
1962
1931
1885
1860
1840
1840
1856
1872
1914
1952
2000
2048
2085
2044
2080
2096
2080
2052
2036
1992
1962
1914
1900
1920
1908
1912
1922
1953
1988
2036
2112
2132
2180
2210
2224
2244
2233
2220
2192
2161
2113
2064
2034
2016
2004
1936
1957
1980
2016
2056
2108
2144
2184
2198
2256
2304
2296
2272
2242
2210
2164
2128
2100
2088
2064
2076
2082
2122
2168
2211
2256
2304
2345
2378
2402
2404
2394
2300
2274
2240
2194
2146
2128
2096
2088
2066
2128
2184
2217
2272
2312
2360
2400
2432
2448
2448
2452
2437
2400
2362
2324
2280
2240
2216
2196
2192
2212
2228
2260
2229
2284
2320
2360
2372
2416
2420
2412
2388
2408
2396
2368
2312
2274
2248
2232
2229
2241
2256
2288
2336
2368
2404
2440
2469
2490
2496
2492
2468
2448
2412
2372
2252
2224
2198
2180
2172
2192
2212
2218
2248
2330
2408
2448
2466
2488
2489
2488
2466
2444
2401
2360
2324
2289
2252
2248
2248
2256
2284
2312
2368
2409
2450
2498
2436
2476
2492
2492
2472
2464
2432
2386
2352
2368
2370
2368
2368
2370
2385
2418
2464
2489
2536
2565
2601
2604
2624
2612
2592
2564
2521
2481
2440
2386
2368
2352
2269
2272
2288
2308
2344
2396
2448
2456
2480
2544
2580
2572
2548
2532
2484
2442
2400
2362
2321
2308
2296
2305
2330
2352
2392
2437
2472
2512
2530
2560
2560
2548
2440
2436
2386
2349
2312
2282
2252
2224
2217
2272
2337
2368
2412
2460
2496
2529
2562
2572
2572
2568
2546
2506
2481
2442
2400
2358
2344
2309
2312
2324
2352
2376
2332
2376
2416
2450
2452
2492
2497
2476
2452
2484
2474
2420
2386
2360
2320
2304
2296
2306
2328
2354
2386
2437
2476
2512
2532
2560
2572
2564
2552
2528
2488
2452
2328
2298
2256
2242
2234
2248
2264
2288
2308
2408
2470
2520
2544
2568
2580
2576
2560
2528
2496
2450
2416
2380
2344
2332
2320
2340
2368
2384
2432
2456
2498
2528
2468
2488
2488
2476
2448
2432
2392
2349
2300
2298
2306
2289
2281
2288
2312
2340
2386
2424
2464
2504
2530
2552
2560
2560
2532
2514
2464
2432
2384
2352
2328
2293
2212
2224
2240
2264
2290
2344
2370
2408
2424
2496
2528
2521
2514
2488
2443
2400
2368
2324
2291
2276
2262
2276
2304
2336
2376
2400
2441
2476
2500
2520
2537
2530
2416
2410
2370
2332
2284
2272
2236
2220
2204
2252
2337
2336
2376
2412
2442
2468
2496
2512
2508
2498
2484
2448
2410
2376
2328
2290
2248
2233
2232
2248
2256
2282
2252
2296
2333
2368
2392
2424
2424
2416
2388
2400
2412
2386
2328
2296
2267
2242
2240
2248
2266
2306
2338
2380
2420
2472
2480
2488
2490
2473
2458
2442
2400
2362
2236
2208
2176
2164
2144
2152
2168
2194
2224
2298
2377
2424
2449
2474
2477
2469
2464
2444
2408
2376
2336
2308
2304
2288
2289
2312
2336
2372
2408
2444
2472
2504
2432
2452
2452
2428
2392
2376
2328
2273
2220
2226
2216
2193
2192
2192
2212
2232
2264
2316
2342
2364
2392
2412
2406
2400
2370
2340
2304
2264
2212
2180
2144
2132
2052
2076
2100
2136
2164
2218
2252
2282
2292
2352
2394
2381
2360
2336
2304
2250
2218
2184
2160
2132
2130
2144
2161
2192
2224
2266
2304
2329
2354
2369
2370
2341
2246
2224
2172
2136
2082
2064
2016
2012
1990
2040
2090
2128
2168
2208
2246
2282
2306
2325
2331
2324
2312
2274
2234
2202
2152
2112
2074
2052
2024
2024
2028
2052
2020
2064
2100
2148
2184
2240
2272
2288
2296
2356
2381
2384
2400
2381
2404
2418
2480
2560
2657
2770
2904
3048
3200
3336
3464
3584
3680
3736
3784
3788
3784
3754
3592
3540
3480
3364
3326
3264
3172
3080
2988
2944
2902
2824
2724
2632
2522
2416
2320
2198
2088
1980
1888
1816
1752
1702
1672
1656
1653
1652
1678
1700
1729
1752
1698
1712
1697
1664
1632
1604
1552
1493
1437
1412
1392
1376
1358
1362
1381
1401
1468
1482
1537
1562
1593
1625
1625
1621
1608
1568
1529
1488
1444
1400
1376
1360
1316
1330
1348
1382
1420
1480
1520
1564
1584
1644
1670
1664
1651
1620
1600
1552
1508
1460
1443
1425
1417
1436
1456
1494
1540
1573
1616
1664
1696
1724
1730
1722
1660
1642
1600
1570
1528
1500
1464
1456
1448
1484
1536
1572
1610
1653
1707
1756
1786
1800
1824
1840
1806
1780
1745
1694
1664
1616
1588
1576
1562
1572
1592
1632
1610
1666
1705
1741
1768
1802
1816
1802
1784
1800
1773
1737
1689
1654
1624
1616
1604
1617
1634
1673
1712
1744
1792
1834
1865
1883
1896
1893
1873
1846
1801
1756
1663
1632
1604
1592
1584
1600
1616
1652
1682
1756
1829
1868
1892
1913
1929
1924
1912
1876
1844
1801
1760
1728
1692
1669
1664
1672
1684
1712
1752
1794
1829
1872
1844
1872
1872
1872
1846
1828
1788
1760
1722
1704
1705
1690
1688
1702
1729
1770
1804
1856
1904
1957
1994
2016
2032
2048
2033
2025
1986
1954
1920
1888
1872
1857
1800
1816
1838
1876
1916
1964
2008
2048
2076
2144
2185
2186
2182
2160
2120
2086
2049
2012
1977
1970
1958
1964
1989
2010
2056
2096
2128
2164
2192
2208
2212
2200
2106
2098
2064
2022
1970
1952
1916
1900
1906
1936
1984
2010
2053
2090
2128
2168
2198
2210
2220
2208
2181
2152
2136
2076
2040
2000
1970
1955
1952
1965
2002
2029
2004
2046
2080
2133
2160
2200
2184
2184
2170
2176
2176
2130
2096
2052
2021
1997
1996
2001
2020
2050
2096
2136
2184
2216
2256
2276
2290
2288
2266
2249
2218
2176
2060
2036
1994
2016
1964
1992
2000
2032
2064
2152
2208
2252
2278
2304
2320
2314
2304
2280
2249
2212
2176
2132
2113
2092
2096
2100
2112
2150
2181
2216
2264
2312
2252
2296
2292
2284
2270
2264
2224
2170
2136
2136
2132
2107
2098
2112
2120
2146
2180
2220
2266
2304
2336
2347
2368
2344
2344
2315
2288
2281
2197
2165
2145
2112
2030
2056
2066
2088
2130
2176
2208
2250
2258
2320
2368
2360
2352
2330
2288
2253
2208
2168
2128
2106
2100
2112
2120
2144
2184
2224
2250
2290
2306
2332
2338
2336
2240
2228
2192
2145
2116
2096
2060
2034
2044
2096
2128
2164
2204
2240
2280
2312
2337
2348
2349
2345
2329
2288
2242
2208
2160
2106
2080
2053
2064
2068
2088
2108
2084
2140
2173
2212
2240
2276
2276
2258
2237
2256
2245
2204
2152
2124
2088
2082
2057
2070
2096
2121
2164
2196
2248
2276
2314
2344
2352
2346
2329
2304
2264
2232
2120
2081
2036
2032
2000
2024
2036
2064
2092
2164
2240
2266
2313
2320
2321
2328
2324
2277
2240
2192
2148
2112
2080
2048
2040
2035
2058
2088
2128
2170
2217
2250
2208
2240
2256
2244
2230
2218
2168
2128
2084
2074
2073
2053
2048
2048
2064
2096
2152
2200
2245
2291
2336
2368
2384
2386
2380
2360
2328
2286
2248
2197
2160
2128
2046
2042
2044
2066
2080
2128
2152
2184
2192
2248
2288
2276
2259
2229
2186
2144
2096
2056
2017
1988
1992
1992
2010
2034
2068
2112
2150
2192
2226
2244
2252
2252
2161
2156
2112
2073
2021
2008
1962
1952
1936
1978
2025
2058
2082
2134
2168
2210
2244
2262
2272
2258
2244
2219
2176
2136
2097
2058
2013
1989
1986
1980
1992
2020
1985
2036
2082
2114
2096
2168
2174
2178
2152
2168
2160
2132
2084
2048
2010
1989
1996
1992
2012
2032
2072
2097
2132
2165
2182
2193
2201
2176
2160
2124
2080
2038
1952
1944
1924
1924
1942
1994
2040
2100
2162
2280
2400
2484
2564
2652
2729
2808
2888
2948
3016
3092
3154
3224
3280
3352
3409
3466
3529
3600
3648
3700
3744
3770
3626
3616
3540
3452
3320
3192
3028
2856
2674
2560
2426
2288
2160
2064
1996
1945
1904
1898
1878
1884
1890
1889
1869
1864
1829
1787
1740
1680
1625
1569
1520
1480
1418
1417
1424
1440
1462
1504
1544
1576
1597
1648
1674
1674
1653
1624
1592
1568
1505
1456
1422
1390
1378
1376
1405
1421
1472
1522
1560
1600
1636
1664
1672
1672
1613
1596
1564
1534
1488
1445
1420
1404
1401
1424
1453
1489
1528
1568
1640
1650
1676
1712
1722
1728
1708
1706
1677
1640
1592
1562
1520
1504
1492
1504
1524
1554
1548
1596
1636
1681
1712
1756
1766
1792
1744
1768
1760
1721
1680
1640
1604
1584
1578
1584
1604
1651
1672
1728
1768
1796
1833
1856
1866
1864
1848
1832
1798
1752
1660
1638
1609
1596
1589
1606
1624
1648
1682
1753
1830
1866
1897
1926
1936
1932
1920
1906
1888
1832
1792
1745
1712
1701
1696
1700
1716
1750
1793
1834
1882
1930
1896
1924
1936
1938
1912
1908
1864
1820
1776
1764
1761
1745
1728
1740
1760
1777
1828
1872
1900
1941
1968
1996
2002
2005
1985
1952
1936
1876
1832
1808
1764
1749
1684
1696
1728
1754
1787
1848
1888
1925
1957
2024
2057
2080
2052
2035
1984
1945
1920
1878
1861
1829
1842
1848
1877
1912
1952
1996
2058
2100
2140
2168
2188
2188
2104
2100
2056
2032
1978
1956
1920
1908
1904
1940
1998
2027
2066
2112
2148
2194
2224
2240
2253
2252
2240
2216
2180
2136
2104
2068
2038
2016
2009
2012
2032
2060
2032
2074
2104
2140
2168
2196
2200
2208
2180
2200
2192
2149
2112
2064
2021
2026
2012
2018
2032
2080
2098
2152
2196
2250
2277
2294
2304
2316
2304
2278
2244
2208
2096
2064
2024
2000
1986
2000
2016
2040
2060
2152
2225
2256
2292
2308
2336
2348
2312
2297
2260
2217
2180
2134
2106
2084
2072
2088
2112
2137
2168
2214
2252
2288
2244
2276
2289
2296
2276
2264
2228
2188
2146
2152
2186
2137
2120
2136
2152
2188
2228
2257
2312
2342
2381
2404
2416
2412
2396
2368
2329
2284
2248
2212
2180
2155
2096
2120
2130
2156
2184
2240
2272
2312
2328
2392
2424
2426
2421
2392
2352
2308
2280
2240
2195
2176
2176
2168
2192
2212
2256
2296
2340
2380
2416
2440
2444
2448
2352
2332
2296
2252
2212
2180
2144
2122
2098
2144
2192
2226
2248
2296
2338
2368
2400
2424
2434
2437
2419
2392
2362
2317
2275
2245
2204
2180
2168
2184
2193
2224
2180
2236
2280
2308
2329
2368
2360
2360
2332
2356
2352
2308
2264
2224
2204
2178
2170
2176
2200
2218
2260
2304
2352
2400
2432
2460
2466
2480
2452
2432
2392
2352
2232
2200
2152
2140
2128
2132
2152
2176
2196
2288
2362
2392
2437
2464
2472
2472
2464
2438
2394
2354
2304
2268
2220
2210
2226
2201
2210
2228
2264
2304
2352
2384
2336
2370
2378
2370
2352
2352
2312
2260
2220
2218
2208
2192
2176
2182
2192
2220
2260
2292
2330
2371
2402
2412
2432
2432
2405
2392
2352
2306
2266
2232
2200
2182
2100
2112
2120
2146
2180
2224
2260
2312
2344
2389
2448
2464
2452
2432
2400
2360
2308
2266
2230
2216
2208
2208
2233
2253
2282
2328
2368
2402
2436
2449
2460
2452
2364
2344
2308
2272
2212
2192
2160
2150
2128
2188
2244
2280
2320
2380
2432
2480
2520
2544
2581
2596
2552
2528
2485
2436
2396
2340
2320
2264
2256
2241
2260
2268
2228
2274
2304
2336
2360
2396
2408
2384
2372
2384
2388
2340
2304
2256
2224
2198
2188
2180
2200
2218
2256
2292
2336
2373
2405
2416
2442
2444
2433
2405
2388
2342
2224
2200
2160
2144
2130
2148
2148
2176
2200
2277
2348
2396
2432
2442
2456
2452
2440
2412
2380
2342
2292
2252
2212
2184
2176
2166
2181
2200
2235
2272
2320
2344
2304
2332
2340
2336
2324
2320
2276
2234
2184
2200
2188
2156
2144
2144
2160
2182
2212
2252
2288
2314
2324
2348
2352
2357
2353
2336
2320
2292
2273
2258
2252
2258
2208
2244
2293
2360
2428
2532
2616
2720
2804
2960
3120
3224
3312
3393
3480
3536
3584
3628
3652
3690
3720
3776
3802
3848
3861
3872
3858
3828
3754
3665
3560
3418
3152
3016
2848
2672
2496
2368
2224
2112
2004
1968
1952
1920
1912
1928
1949
1952
1972
1984
1992
1984
1945
1920
1862
1816
1764
1704
1652
1604
1587
1574
1584
1610
1592
1636
1684
1746
1752
1796
1814
1796
1776
1780
1761
1728
1690
1640
1641
1578
1576
1584
1612
1638
1697
1742
1792
1834
1882
1905
1922
1923
1912
1892
1864
1828
1724
1698
1668
1642
1632
1642
1664
1696
1712
1796
1868
1916
1948
1984
2020
2012
2016
1986
1961
1932
1888
1856
1817
1806
1803
1809
1832
1860
1897
1958
2004
2048
2012
2064
2072
2072
2056
2047
2016
1986
1936
1928
1932
1912
1892
1897
1924
1948
1980
2024
2072
2112
2146
2176
2197
2208
2192
2176
2152
2113
2080
2040
2008
1980
1918
1924
1944
1960
1994
2052
2098
2128
2148
2224
2272
2272
2248
2240
2201
2165
2122
2086
2048
2029
2020
2024
2048
2072
2100
2156
2198
2240
2273
2304
2320
2320
2232
2224
2172
2144
2098
2080
2042
2008
1992
2032
2074
2096
2133
2169
2212
2250
2288
2322
2328
2336
2320
2312
2265
2220
2194
2134
2112
2088
2081
2080
2098
2112
2088
2120
2176
2212
2241
2288
2292
2292
2272
2304
2312
2280
2240
2200
2176
2156
2146
2152
2176
2208
2246
2284
2330
2376
2412
2444
2459
2460
2457
2466
2408
2360
2256
2220
2188
2160
2148
2164
2172
2188
2224
2320
2384
2424
2464
2488
2508
2500
2496
2470
2441
2400
2356
2308
2280
2256
2240
2234
2244
2278
2304
2346
2390
2426
2378
2412
2420
2416
2396
2400
2360
2316
2264
2260
2260
2228
2216
2212
2226
2252
2284
2322
2368
2410
2448
2472
2496
2492
2484
2453
2433
2386
2352
2312
2288
2256
2172
2172
2176
2204
2228
2280
2312
2384
2372
2448
2496
2502
2498
2475
2438
2400
2353
2312
2282
2256
2244
2249
2258
2284
2312
2368
2404
2440
2468
2496
2508
2504
2412
2404
2368
2328
2276
2248
2208
2176
2160
2184
2230
2257
2288
2336
2376
2412
2472
2484
2496
2500
2480
2466
2432
2392
2345
2316
2268
2242
2226
2244
2252
2274
2224
2280
2344
2360
2400
2424
2424
2424
2410
2432
2434
2388
2349
2310
2260
2265
2232
2226
2250
2272
2294
2336
2385
2448
2456
2501
2496
2484
2482
2460
2417
2377
2258
2224
2178
2168
2144
2168
2168
2194
2228
2308
2384
2422
2466
2476
2496
2490
2486
2464
2432
2390
2357
2296
2280
2240
2224
2220
2224
2250
2288
2312
2368
2402
2356
2392
2400
2408
2392
2392
2360
2320
2264
2272
2274
2244
2236
2235
2252
2272
2304
2352
2380
2440
2457
2496
2500
2512
2504
2480
2449
2410
2368
2332
2290
2272
2176
2192
2196
2224
2252
2304
2340
2368
2400
2472
2520
2516
2512
2496
2466
2421
2384
2368
2308
2280
2272
2272
2293
2316
2342
2387
2420
2466
2508
2528
2544
2534
2440
2432
2404
2356
2308
2284
2232
2202
2184
2224
2272
2284
2309
2348
2402
2441
2464
2500
2506
2528
2514
2500
2464
2424
2384
2346
2308
2278
2268
2260
2264
2290
2240
2274
2310
2344
2376
2404
2416
2424
2412
2424
2432
2380
2337
2308
2261
2228
2225
2224
2240
2256
2289
2328
2374
2432
2448
2481
2513
2522
2540
2518
2480
2410
2304
2268
2244
2213
2208
2236
2244
2282
2316
2408
2480
2531
2576
2592
2608
2600
2580
2546
2512
2458
2413
2356
2306
2272
2250
2248
2257
2276
2314
2352
2400
2432
2386
2424
2424
2440
2416
2402
2372
2336
2288
2288
2278
2245
2244
2232
2250
2272
2304
2352
2396
2425
2465
2489
2516
2498
2485
2464
2437
2388
2346
2304
2260
2234
2148
2156
2168
2180
2208
2272
2306
2350
2360
2434
2488
2485
2482
2466
2424
2403
2352
2322
2288
2256
2240
2242
2256
2272
2306
2338
2384
2412
2464
2486
2512
2508
2408
2412
2360
2332
2276
2264
2224
2186
2172
2228
2256
2274
2304
2340
2368
2400
2424
2436
2440
2442
2440
2424
2401
2377
2353
2336
2336
2344
2364
2400
2449
2512
2500
2604
2696
2800
2901
3040
3136
3236
3332
3464
3616
3672
3716
3746
3776
3824
3832
3849
3872
3896
3916
3920
3904
3874
3800
3716
3601
3464
3313
3152
2976
2800
2532
2384
2240
2112
2012
1952
1904
1868
1856
1892
1956
1973
1994
2012
2028
2017
2002
1968
1912
1860
1808
1744
1696
1648
1628
1616
1624
1652
1676
1720
1769
1813
1800
1834
1856
1864
1842
1840
1800
1766
1724
1720
1698
1680
1646
1658
1664
1696
1760
1779
1820
1869
1920
1944
1984
1997
1984
1964
1939
1904
1874
1828
1798
1756
1696
1706
1720
1752
1777
1842
1900
1928
1960
2036
2080
2114
2106
2064
2036
2005
1954
1924
1884
1859
1848
1850
1872
1902
1938
1977
2029
2084
2130
2176
2176
2196
2128
2128
2098
2048
1997
1980
1944
1928
1892
1934
1986
2008
2034
2092
2144
2177
2232
2262
2288
2288
2288
2272
2248
2210
2168
2125
2093
2073
2064
2066
2074
2098
2065
2112
2160
2208
2228
2272
2296
2290
2276
2304
2308
2268
2226
2180
2150
2112
2102
2090
2113
2132
2162
2202
2244
2282
2325
2354
2384
2381
2378
2364
2340
2288
2180
2146
2108
2080
2066
2072
2084
2122
2152
2220
2316
2358
2396
2425
2448
2448
2458
2424
2394
2344
2304
2256
2218
2189
2176
2170
2185
2210
2244
2288
2328
2374
2324
2384
2380
2394
2378
2380
2360
2328
2276
2296
2294
2265
2256
2267
2276
2326
2384
2408
2450
2507
2548
2593
2604
2614
2608
2592
2562
2518
2482
2434
2394
2368
2262
2264
2278
2304
2322
2388
2420
2448
2484
2552
2614
2616
2632
2592
2568
2524
2472
2416
2380
2341
2336
2314
2322
2344
2374
2412
2457
2496
2544
2560
2576
2570
2480
2512
2436
2400
2352
2320
2304
2256
2232
2280
2304
2338
2358
2392
2448
2483
2520
2548
2560
2568
2560
2536
2504
2453
2412
2372
2328
2292
2276
2272
2272
2304
2252
2300
2336
2384
2404
2448
2448
2456
2442
2472
2472
2425
2376
2345
2308
2272
2252
2258
2260
2276
2316
2360
2400
2448
2488
2528
2546
2562
2560
2521
2512
2468
2336
2288
2264
2228
2208
2200
2218
2224
2240
2324
2404
2438
2480
2533
2528
2546
2538
2515
2485
2448
2404
2362
2316
2294
2265
2264
2264
2280
2316
2346
2394
2421
2384
2420
2430
2430
2426
2416
2392
2324
2296
2292
2296
2256
2248
2250
2261
2284
2314
2354
2410
2404
2489
2520
2529
2541
2522
2507
2468
2432
2384
2341
2296
2268
2168
2184
2180
2208
2234
2280
2322
2360
2384
2464
2516
2516
2513
2482
2460
2417
2376
2332
2288
2261
2248
2228
2246
2268
2293
2338
2376
2417
2444
2472
2490
2491
2404
2400
2368
2337
2280
2256
2218
2188
2169
2200
2247
2276
2312
2354
2400
2442
2472
2502
2524
2528
2516
2498
2465
2432
2388
2345
2306
2276
2248
2257
2288
2288
2232
2284
2312
2361
2388
2440
2448
2450
2442
2472
2474
2440
2389
2352
2312
2276
2258
2248
2264
2288
2316
2357
2393
2440
2472
2499
2504
2521
2513
2488
2448
2413
2292
2256
2236
2186
2164
2168
2176
2192
2212
2298
2373
2420
2456
2481
2500
2512
2528
2496
2450
2424
2377
2328
2282
2256
2230
2216
2228
2245
2273
2314
2354
2401
2353
2388
2404
2400
2384
2392
2353
2308
2268
2264
2252
2224
2204
2204
2212
2232
2272
2320
2360
2408
2441
2476
2496
2502
2499
2473
2442
2412
2360
2322
2304
2260
2172
2168
2178
2216
2224
2288
2320
2368
2386
2464
2513
2524
2512
2496
2457
2410
2362
2325
2280
2240
2220
2213
2212
2229
2258
2294
2341
2381
2410
2442
2456
2468
2368
2360
2334
2290
2240
2202
2160
2122
2096
2128
2155
2178
2214
2262
2296
2348
2400
2432
2445
2456
2453
2444
2401
2361
2320
2276
2230
2204
2209
2184
2184
2208
2148
2210
2244
2288
2328
2354
2368
2374
2370
2392
2401
2369
2320
2276
2234
2208
2184
2186
2188
2214
2232
2276
2314
2360
2390
2424
2452
2456
2440
2432
2388
2354
2236
2224
2156
2128
2104
2100
2104
2128
2148
2220
2290
2336
2368
2388
2392
2404
2402
2400
2373
2356
2328
2316
2336
2289
2304
2332
2368
2426
2504
2584
2688
2805
2814
2952
3064
3168
3258
3384
3448
3496
3546
3640
3720
3744
3748
3784
3828
3828
3840
3840
3840
3796
3736
3648
3544
3418
3282
3121
2965
2784
2612
2456
2308
2185
2006
1940
1884
1816
1841
1844
1860
1872
1880
1928
1966
1968
1946
1909
1872
1816
1766
1704
1654
1626
1584
1572
1564
1572
1608
1637
1674
1712
1753
1826
1825
1832
1772
1772
1736
1712
1661
1624
1584
1556
1532
1552
1585
1606
1640
1673
1720
1765
1813
1845
1872
1878
1882
1876
1856
1808
1781
1737
1696
1664
1645
1651
1664
1684
1665
1716
1761
1804
1832
1884
1908
1920
1918
1940
1941
1921
1874
1828
1796
1776
1756
1757
1776
1816
1842
1881
1921
1968
2006
2024
2060
2086
2070
2053
2036
1993
1900
1864
1828
1808
1784
1800
1810
1846
1876
1940
2020
2069
2134
2148
2176
2192
2177
2176
2133
2100
2066
2024
1977
1952
1936
1944
1952
1973
2011
2060
2106
2160
2126
2168
2188
2200
2188
2184
2148
2112
2076
2056
2048
2024
1993
1993
2000
2019
2048
2097
2144
2192
2228
2257
2284
2292
2288
2272
2251
2204
2168
2117
2080
2048
1952
1960
1966
1982
2008
2056
2089
2136
2160
2240
2288
2304
2288
2289
2248
2203
2156
2120
2070
2048
2012
2004
2004
2028
2064
2102
2144
2184
2228
2260
2288
2304
2236
2224
2212
2176
2129
2120
2080
2048
2026
2056
2112
2130
2164
2204
2244
2216
2340
2368
2404
2416
2417
2410
2388
2349
2320
2280
2244
2224
2208
2208
2220
2240
2186
2236
2280
2346
2344
2384
2408
2412
2404
2432
2440
2416
2360
2312
2280
2244
2224
2217
2213
2234
2260
2292
2336
2372
2408
2434
2458
2464
2452
2432
2408
2368
2256
2224
2176
2146
2112
2120
2120
2132
2194
2232
2304
2340
2384
2418
2448
2464
2456
2441
2410
2376
2328
2280
2234
2196
2155
2149
2148
2165
2186
2240
2274
2338
2288
2316
2354
2364
2352
2346
2312
2284
2244
2232
2234
2196
2177
2168
2176
2184
2208
2246
2280
2322
2354
2384
2400
2400
2404
2393
2354
2323
2274
2232
2192
2176
2072
2081
2084
2101
2124
2176
2204
2252
2268
2376
2416
2416
2418
2400
2386
2352
2296
2253
2218
2188
2160
2153
2156
2176
2192
2229
2277
2321
2357
2400
2424
2437
2360
2352
2332
2304
2248
2232
2192
2160
2128
2154
2196
2200
2232
2276
2320
2356
2401
2418
2448
2444
2456
2424
2389
2368
2326
2272
2240
2201
2177
2176
2180
2208
2160
2200
2237
2284
2312
2360
2376
2349
2376
2400
2409
2384
2346
2296
2256
2228
2204
2192
2200
2202
2232
2272
2308
2354
2392
2421
2440
2444
2443
2436
2400
2372
2256
2216
2176
2130
2106
2112
2112
2124
2152
2224
2284
2336
2364
2400
2412
2420
2432
2416
2381
2352
2320
2278
2240
2204
2176
2169
2176
2195
2229
2256
2288
2344
2294
2344
2362
2372
2356
2362
2344
2288
2234
2232
2236
2198
2180
2176
2176
2200
2232
2257
2304
2340
2376
2408
2424
2432
2432
2420
2385
2360
2336
2284
2241
2218
2164
2140
2140
2160
2176
2236
2276
2310
2336
2416
2466
2476
2468
2448
2432
2388
2342
2296
2252
2216
2193
2184
2192
2208
2232
2265
2296
2346
2378
2422
2452
2460
2388
2392
2352
2328
2280
2280
2232
2200
2180
2212
2258
2266
2304
2348
2424
2448
2496
2532
2568
2592
2592
2592
2562
2522
2506
2432
2386
2336
2306
2288
2284
2293
2240
2280
2320
2360
2378
2428
2456
2440
2436
2480
2496
2456
2434
2380
2336
2304
2282
2272
2274
2288
2312
2346
2400
2420
2450
2484
2504
2509
2513
2504
2480
2444
2322
2288
2256
2226
2200
2216
2208
2228
2242
2328
2394
2432
2458
2496
2508
2516
2514
2504
2464
2436
2394
2360
2324
2291
2258
2248
2251
2262
2304
2332
2372
2412
2360
2408
2434
2424
2376
2424
2388
2354
2313
2304
2312
2265
2245
2250
2252
2272
2304
2342
2396
2432
2472
2496
2522
2529
2530
2502
2457
2432
2372
2313
2264
2224
2130
2144
2152
2184
2232
2308
2376
2448
2510
2640
2738
2789
2840
2885
2928
2965
3010
3056
3120
3202
3288
3392
3506
3612
3744
3856
3952
4052
4095
4095
4095
4095
4095
4095
4020
3908
3768
3632
3432
3252
3068
2960
2848
2696
2586
2488
2408
2352
2304
2260
2228
2185
2152
2115
2093
2008
1952
1896
1832
1792
1756
1740
1728
1734
1692
1720
1754
1778
1804
1840
1858
1860
1856
1872
1866
1829
1792
1750
1705
1682
1660
1670
1674
1696
1728
1762
1805
1850
1893
1920
1948
1960
1957
1952
1928
1904
1801
1776
1728
1702
1686
1688
1696
1724
1756
1824
1893
1945
1992
2028
2072
2090
2104
2082
2068
2048
2012
1972
1926
1904
1877
1874
1880
1897
1936
1968
2018
2060
2038
2084
2112
2120
2116
2124
2100
2066
2022
2036
2009
1974
1958
1961
1964
1973
2016
2068
2096
2156
2192
2236
2253
2277
2278
2289
2260
2212
2184
2152
2112
2080
1986
1994
1994
2012
2028
2088
2120
2160
2197
2272
2330
2360
2361
2348
2326
2297
2258
2216
2169
2133
2117
2112
2116
2137
2162
2200
2244
2288
2330
2368
2394
2410
2320
2320
2300
2268
2244
2200
2152
2120
2080
2112
2136
2144
2184
2200
2261
2281
2328
2368
2388
2410
2412
2393
2380
2347
2308
2272
2240
2189
2176
2165
2162
2188
2132
2164
2208
2250
2280
2328
2340
2352
2356
2392
2396
2376
2344
2296
2268
2241
2216
2216
2224
2248
2274
2316
2353
2397
2448
2482
2513
2536
2537
2533
2512
2486
2360
2336
2304
2272
2244
2252
2272
2296
2306
2376
2464
2496
2544
2584
2617
2626
2632
2624
2594
2565
2516
2473
2432
2396
2374
2352
2357
2374
2393
2424
2472
2504
2460
2504
2518
2532
2528
2532
2504
2458
2416
2420
2400
2360
2342
2320
2324
2324
2356
2378
2432
2484
2512
2538
2576
2572
2584
2584
2536
2501
2448
2410
2368
2336
2232
2224
2220
2234
2250
2304
2338
2384
2400
2480
2538
2546
2552
2532
2516
2491
2449
2405
2368
2330
2308
2297
2304
2320
2340
2380
2425
2460
2504
2528
2560
2568
2480
2504
2452
2442
2368
2360
2292
2252
2252
2240
2272
2306
2320
2360
2404
2448
2496
2540
2560
2576
2578
2576
2548
2505
2468
2432
2392
2346
2322
2304
2296
2304
2244
2288
2320
2362
2388
2432
2448
2468
2468
2516
2513
2480
2440
2400
2352
2309
2288
2272
2273
2284
2304
2340
2384
2432
2464
2496
2524
2536
2544
2536
2512
2464
2360
2320
2258
2236
2196
2200
2228
2204
2221
2296
2368
2408
2437
2486
2501
2512
2528
2513
2488
2449
2413
2368
2329
2296
2266
2256
2264
2280
2304
2344
2384
2425
2376
2416
2440
2448
2440
2440
2412
2368
2320
2312
2312
2272
2242
2224
2225
2232
2256
2280
2326
2370
2404
2432
2468
2468
2474
2460
2433
2405
2370
2363
2288
2257
2161
2156
2152
2164
2192
2220
2256
2280
2320
2408
2470
2488
2491
2480
2456
2432
2380
2337
2296
2262
2240
2218
2224
2225
2248
2284
2336
2387
2416
2454
2482
2490
2408
2416
2384
2376
2308
2280
2240
2208
2176
2200
2244
2296
2304
2316
2360
2400
2437
2472
2497
2512
2512
2500
2485
2448
2412
2368
2322
2276
2260
2240
2240
2256
2200
2248
2274
2314
2354
2408
2424
2436
2436
2464
2496
2454
2417
2392
2336
2304
2280
2272
2268
2288
2320
2352
2402
2448
2496
2520
2560
2572
2592
2568
2576
2540
2424
2400
2364
2320
2294
2292
2292
2290
2292
2376
2432
2468
2504
2524
2547
2560
2548
2536
2512
2472
2424
2378
2325
2288
2257
2248
2253
2252
2282
2331
2357
2404
2362
2404
2458
2440
2428
2440
2400
2368
2324
2320
2308
2264
2234
2224
2218
2228
2248
2278
2312
2224
2401
2438
2464
2480
2480
2476
2473
2440
2400
2362
2314
2288
