ECG,IR,PCG
2624,34637,0
1928,34609,0
1292,34624,0
752,34626,0
384,34615,0
201,34601,0
279,34596,0
562,34606,0
1042,34609,0
1684,34579,0
2384,34584,0
3104,34553,0
3760,34591,0
4064,34566,0
4076,34571,0
4064,34547,0
4052,34586,0
3984,34551,0
3680,34559,0
3120,34528,0
2544,34563,0
1832,34546,0
1178,34537,0
651,34522,0
291,34541,0
146,34545,0
246,34522,0
574,34525,0
1072,34504,0
1744,34545,0
2442,34519,0
3200,34512,0
3808,34505,0
4064,34532,0
4060,34530,0
4064,34517,0
4056,34502,0
3944,34484,0
3576,34515,0
3028,34513,0
2386,34495,0
1712,34490,0
1082,34507,0
576,34511,0
251,34491,0
140,34497,0
258,34472,0
598,34509,0
1120,34472,0
1776,34491,0
2488,34476,0
3200,34514,0
3928,34497,0
4095,34484,0
4095,34467,0
4095,34496,0
4095,34487,0
3968,34465,0
3560,34483,0
2976,34501,0
2308,34504,0
1638,34477,0
1007,34483,0
220,34513,0
140,34483,0
268,34505,0
636,34492,0
1180,34502,0
1844,34509,0
2562,34485,0
3316,34491,0
3912,34463,0
4064,34504,0
4056,34484,0
4064,34485,0
4048,34470,0
3896,34512,0
3448,34511,0
2880,34487,0
2200,34483,0
1538,34512,0
953,34505,0
460,34490,0
172,34496,0
112,34496,0
300,34521,0
677,34508,0
1251,34498,0
1944,34492,0
2689,34516,0
3402,34499,0
4004,34506,0
4088,34476,0
4094,34526,0
4095,34499,0
4032,34513,0
3836,34526,0
3376,34495,0
2792,34511,0
2120,34505,0
1440,34507,0
844,34507,0
386,34494,0
132,34523,0
97,34508,0
297,34505,0
708,34498,0
1281,34523,0
1968,34525,0
2700,34507,0
3400,34515,0
3992,34511,0
4064,34528,0
4056,34510,0
4048,34527,0
4095,34490,0
3840,34532,0
3360,34516,0
2737,34514,0
2064,34490,0
1373,34543,0
774,34521,0
350,34520,0
104,34510,0
119,34541,0
336,34544,0
760,34513,0
1368,34564,0
2060,34536,0
2800,34516,0
3504,34544,0
4072,34529,0
4064,34551,0
4072,34520,0
4064,34523,0
4024,34519,0
3744,34544,0
3288,34530,0
2632,34535,0
1960,34512,0
1268,34550,0
692,34534,0
288,34531,0
82,34525,0
96,34565,0
352,34543,0
810,34533,0
1416,34545,0
2129,34560,0
2890,34571,0
3584,34540,0
4095,34551,0
4095,34552,0
4095,34562,0
4080,34549,0
4024,34551,0
3716,34539,0
3168,34565,0
2552,34543,0
1824,34556,0
1158,34566,0
600,34554,0
209,34553,0
34,34571,0
80,34553,0
348,34565,0
836,34556,0
1460,34585,0
2170,34554,0
2904,34566,0
3592,34560,0
4056,34589,0
4064,34562,0
4064,34566,0
4056,34562,0
3960,34579,0
3628,34594,0
3071,34563,0
2410,34566,0
1744,34587,0
1072,34587,0
508,34571,0
137,34572,0
0,34579,0
65,34598,0
356,34584,0
880,34576,0
1507,34563,0
2244,34585,0
2988,34588,0
3712,34570,0
4060,34575,0
4060,34549,0
4068,34566,0
4052,34589,0
3992,34582,0
3540,34594,0
3000,34586,0
2344,34574,0
1632,34560,0
972,34598,0
442,34585,0
102,34576,0
0,34577,0
70,34597,0
397,34600,0
920,34581,0
1576,34584,0
2300,34557,0
3040,34602,0
3704,34576,0
4095,34574,0
4095,34566,0
4095,34595,0
4095,34586,0
3960,34573,0
3540,34577,0
2976,34589,0
2280,34593,0
1548,34571,0
934,34576,0
409,34586,0
81,34595,0
0,34569,0
101,34583,0
472,34560,0
1008,34572,0
1673,34562,0
2400,34576,0
3124,34554,0
3776,34590,0
4095,34567,0
4072,34554,0
4048,34552,0
4040,34588,0
3864,34585,0
3440,34559,0
2856,34561,0
2192,34575,0
1496,34585,0
872,34555,0
382,34571,0
80,34555,0
0,34573,0
140,34549,0
524,34560,0
1100,34520,0
1792,34569,0
2536,34566,0
3280,34538,0
3904,34550,0
4092,34562,0
4095,34576,0
4095,34538,0
4095,34541,0
3828,34537,0
3392,34552,0
2800,34536,0
2124,34536,0
1432,34556,0
808,34553,0
344,34528,0
68,34527,0
6,34547,0
192,34549,0
593,34529,0
1164,34540,0
1848,34536,0
2592,34560,0
3312,34531,0
3932,34533,0
4068,34517,0
4064,34544,0
4056,34522,0
4040,34534,0
3872,34507,0
3396,34549,0
2784,34521,0
2090,34530,0
1392,34517,0
769,34550,0
314,34543,0
66,34517,0
36,34522,0
249,34519,0
666,34543,0
1258,34522,0
1940,34528,0
2680,34523,0
3400,34547,0
3984,34520,0
4072,34540,0
4068,34522,0
4060,34534,0
4036,34539,0
3744,34554,0
3272,34522,0
2652,34535,0
1968,34515,0
1296,34545,0
700,34528,0
277,34536,0
45,34510,0
57,34554,0
276,34547,0
722,34527,0
1332,34534,0
2056,34542,0
2796,34558,0
3520,34524,0
4094,34533,0
4095,34531,0
4095,34554,0
4095,34531,0
4042,34529,0
3732,34509,0
3228,34551,0
2594,34539,0
1912,34528,0
1216,34532,0
660,34551,0
240,34529,0
37,34547,0
64,34532,0
311,34531,0
784,34544,0
1400,34555,0
2104,34519,0
2844,34526,0
3544,34523,0
4060,34548,0
4072,34516,0
4072,34529,0
4064,34520,0
4000,34550,0
3673,34537,0
3152,34524,0
2520,34522,0
1816,34551,0
1162,34547,0
597,34531,0
198,34524,0
17,34541,0
70,34554,0
355,34521,0
849,34525,0
1485,34522,0
2204,34541,0
2952,34526,0
3628,34527,0
4064,34590,0
4095,34543,0
4064,34523,0
3976,34522,0
3664,34511,0
3104,34538,0
2468,34541,0
1764,34529,0
1116,34528,0
580,34554,0
201,34555,0
62,34528,0
153,34526,0
472,34545,0
944,34552,0
1602,34537,0
2312,34531,0
3056,34542,0
3728,34561,0
4095,34533,0
4095,34533,0
4095,34512,0
4095,34563,0
4032,34533,0
3668,34537,0
3136,34528,0
2480,34562,0
1784,34555,0
1114,34545,0
633,34524,0
272,34550,0
131,34554,0
252,34590,0
580,34557,0
1088,34541,0
1725,34541,0
2444,34539,0
3168,34543,0
3808,34531,0
4058,34564,0
4066,34565,0
4072,34534,0
4071,34540,0
3912,34522,0
3568,34560,0
2976,34537,0
2338,34532,0
1640,34520,0
1012,34561,0
506,34536,0
184,34529,0
76,34535,0
201,34562,0
560,34559,0
1114,34540,0
1776,34548,0
2520,34550,0
3256,34557,0
3908,34547,0
4092,34542,0
4086,34528,0
4082,34564,0
4072,34542,0
3952,34546,0
3464,34531,0
2920,34549,0
2232,34547,0
1556,34546,0
924,34544,0
440,34536,0
152,34565,0
83,34560,0
244,34547,0
626,34555,0
1168,34537,0
1856,34565,0
2584,34547,0
3304,34553,0
3936,34525,0
4072,34574,0
4064,34576,0
4056,34550,0
4056,34555,0
3856,34567,0
3472,34575,0
2880,34544,0
2210,34548,0
1506,34554,0
896,34572,0
424,34542,0
150,34545,0
104,34537,0
281,34561,0
710,34551,0
1275,34550,0
1976,34542,0
2692,34571,0
3394,34558,0
4000,34559,0
4072,34570,0
4080,34543,0
4064,34547,0
4040,34561,0
3832,34531,0
3368,34579,0
2784,34543,0
2132,34562,0
1440,34532,0
835,34570,0
400,34555,0
145,34554,0
130,34556,0
345,34580,0
767,34583,0
1346,34561,0
2052,34567,0
2816,34566,0
3532,34586,0
4095,34560,0
4095,34564,0
4095,34546,0
4095,34586,0
4095,34570,0
3810,34568,0
3288,34555,0
2674,34594,0
1987,34594,0
1312,34568,0
729,34577,0
320,34581,0
115,34573,0
143,34586,0
408,34581,0
886,34571,0
1509,34576,0
2249,34593,0
3020,34599,0
3744,34570,0
4060,34578,0
4064,34556,0
4076,34597,0
4072,34582,0
4052,34580,0
3984,34565,0
3688,34592,0
3256,34591,0
2772,34584,0
2260,34576,0
1876,34598,0
1600,34600,0
1526,34576,0
1656,34591,0
2016,34576,0
2545,34605,0
3218,34581,0
3914,34578,0
4095,34569,0
4095,34598,0
4095,34605,0
4095,34582,0
4068,34592,0
4072,34587,0
4080,34578,0
4068,34581,0
4064,34602,0
4016,34569,0
3720,34608,0
3312,34614,0
2864,34586,0
2448,34588,0
2160,34593,0
2008,34602,0
2008,34592,0
2160,34591,0
2468,34574,0
2848,34603,0
3282,34599,0
3688,34589,0
4072,34585,0
4064,34599,0
4095,34612,0
4040,34592,0
3732,34582,0
3232,34574,0
2608,34606,0
1906,34593,0
1184,34587,0
558,34583,0
36,34615,0
0,34613,0
0,34583,0
0,34595,0
296,34584,0
764,34603,0
1400,34598,0
2088,34599,0
2808,34577,0
3456,34608,0
3972,34600,0
4064,34596,0
4056,34589,0
4040,34613,0
3800,34628,0
3376,34597,0
2724,34585,0
2032,34599,0
1280,34621,0
616,34590,0
96,34597,0
0,34591,0
0,34626,0
0,34590,0
264,34593,0
765,34580,0
1408,34616,0
2130,34602,0
2868,34594,0
3536,34598,0
4056,34628,0
4092,34628,0
4088,34590,0
4064,34604,0
3822,34600,0
3392,34621,0
2700,34600,0
2020,34609,0
1292,34600,0
630,34628,0
129,34643,0
0,34599,0
0,34598,0
29,34592,0
358,34621,0
876,34624,0
1529,34593,0
2244,34614,0
2968,34608,0
3616,34625,0
4052,34610,0
4056,34612,0
4056,34594,0
4036,34635,0
3784,34611,0
3320,34605,0
2728,34592,0
2013,34638,0
1292,34607,0
644,34617,0
152,34601,0
0,34629,0
0,34634,0
75,34610,0
441,34606,0
1025,34607,0
1696,34631,0
2448,34608,0
3120,34619,0
3780,34601,0
4048,34617,0
4064,34619,0
4064,34618,0
4028,34617,0
3764,34638,0
3288,34616,0
2668,34605,0
1974,34593,0
1286,34630,0
668,34609,0
208,34614,0
0,34597,0
0,34634,0
145,34628,0
542,34608,0
1144,34619,0
1832,34628,0
2564,34639,0
3332,34607,0
3968,34612,0
4095,34606,0
4095,34638,0
4095,34616,0
4093,34615,0
3816,34590,0
3288,34620,0
2664,34631,0
1974,34615,0
1270,34607,0
224,34645,0
0,34619,0
0,34634,0
203,34625,0
625,34623,0
1228,34619,0
1936,34638,0
2692,34651,0
3392,34620,0
3984,34624,0
4064,34632,0
4064,34648,0
4064,34624,0
4024,34630,0
3728,34613,0
3242,34653,0
2617,34627,0
1928,34638,0
1237,34630,0
654,34652,0
219,34648,0
0,34638,0
0,34639,0
249,34648,0
714,34661,0
1337,34628,0
2056,34646,0
2792,34623,0
3500,34669,0
4068,34646,0
4088,34646,0
4095,34616,0
4060,34645,0
4008,34647,0
3712,34651,0
3168,34645,0
2528,34638,0
1836,34676,0
1152,34681,0
595,34652,0
189,34650,0
0,34662,0
32,34683,0
304,34656,0
784,34655,0
1416,34644,0
2128,34685,0
2874,34658,0
3572,34664,0
4056,34645,0
4060,34679,0
4056,34673,0
4095,34656,0
4049,34659,0
3700,34689,0
3172,34682,0
2521,34654,0
1818,34676,0
1138,34683,0
582,34694,0
188,34656,0
41,34668,0
105,34662,0
378,34686,0
890,34664,0
1524,34667,0
2236,34661,0
2980,34673,0
3664,34650,0
4064,34654,0
4066,34652,0
4064,34663,0
4044,34678,0
3976,34658,0
3616,34649,0
3088,34635,0
2448,34669,0
1752,34643,0
1106,34637,0
584,34621,0
230,34643,0
116,34629,0
184,34622,0
501,34614,0
1010,34634,0
1676,34645,0
2412,34602,0
3168,34611,0
3840,34609,0
4095,34624,0
4095,34599,0
4084,34589,0
4072,34573,0
3978,34603,0
3616,34567,0
3104,34585,0
2420,34566,0
1744,34593,0
1098,34567,0
590,34547,0
272,34566,0
137,34549,0
266,34563,0
594,34531,0
1140,34520,0
1804,34504,0
2516,34534,0
3240,34520,0
3900,34494,0
4056,34490,0
4064,34499,0
4064,34500,0
4056,34474,0
3952,34465,0
3595,34455,0
3024,34467,0
2426,34447,0
1734,34451,0
1105,34423,0
608,34452,0
293,34426,0
194,34410,0
337,34394,0
708,34424,0
1222,34413,0
1916,34396,0
2637,34391,0
3376,34399,0
3966,34374,0
4056,34395,0
4080,34361,0
4064,34361,0
4048,34351,0
3896,34376,0
3498,34364,0
2932,34336,0
2276,34342,0
1616,34340,0
992,34346,0
506,34322,0
232,34319,0
165,34317,0
324,34321,0
704,34304,0
1258,34299,0
1924,34288,0
2648,34319,0
3356,34318,0
4032,34285,0
4095,34285,0
4095,34274,0
4095,34300,0
4095,34264,0
3880,34273,0
3442,34249,0
2800,34281,0
2128,34263,0
1449,34253,0
835,34232,0
348,34265,0
108,34231,0
68,34238,0
267,34253,0
678,34259,0
1253,34351,0
1936,34260,0
2672,34236,0
3380,34228,0
3984,34228,0
4068,34244,0
4064,34250,0
4056,34217,0
4032,34231,0
3776,34222,0
3292,34239,0
2668,34205,0
1997,34213,0
1312,34199,0
708,34237,0
280,34216,0
21,34206,0
17,34203,0
244,34227,0
681,34225,0
1293,34200,0
2008,34205,0
2764,34210,0
3456,34219,0
4042,34187,0
4089,34194,0
4088,34179,0
4095,34214,0
4016,34197,0
3720,34193,0
3208,34214,0
2588,34180,0
1898,34209,0
1210,34217,0
636,34194,0
217,34196,0
6,34187,0
23,34205,0
272,34180,0
720,34181,0
1340,34170,0
2042,34200,0
2792,34182,0
3500,34175,0
4032,34185,0
4095,34188,0
4064,34202,0
4095,34172,0
4064,34184,0
3716,34157,0
3200,34197,0
2522,34193,0
1812,34169,0
1120,34166,0
541,34201,0
148,34203,0
0,34180,0
1,34192,0
279,34192,0
744,34211,0
1376,34189,0
2092,34212,0
2828,34193,0
3512,34200,0
4040,34191,0
4064,34205,0
4095,34203,0
4048,34220,0
3952,34192,0
3568,34196,0
3024,34183,0
2352,34218,0
1648,34197,0
970,34195,0
424,34194,0
42,34227,0
0,34213,0
0,34196,0
286,34209,0
780,34224,0
1416,34235,0
2144,34205,0
2900,34208,0
3592,34198,0
4095,34226,0
4095,34213,0
4095,34218,0
4080,34198,0
3928,34237,0
3504,34224,0
2922,34216,0
1505,34263,0
833,34219,0
302,34207,0
0,34223,0
0,34239,0
0,34220,0
303,34219,0
797,34239,0
1432,34211,0
2144,34220,0
2868,34217,0
3536,34251,0
4040,34246,0
4064,34240,0
4064,34236,0
4048,34250,0
3824,34262,0
3388,34236,0
2784,34236,0
2084,34227,0
1368,34255,0
690,34247,0
152,34241,0
0,34222,0
0,34262,0
0,34250,0
300,34249,0
813,34244,0
1422,34270,0
2166,34277,0
2908,34247,0
3572,34252,0
4004,34285,0
4094,34250,0
4056,34236,0
4024,34254,0
3744,34265,0
3284,34255,0
2616,34282,0
1892,34260,0
1169,34253,0
520,34248,0
8,34283,0
0,34263,0
0,34265,0
0,34251,0
314,34283,0
821,34275,0
1442,34268,0
2148,34266,0
2836,34284,0
3480,34301,0
4024,34275,0
4095,34282,0
4095,34262,0
4064,34298,0
3722,34274,0
3200,34273,0
2513,34269,0
1748,34304,0
996,34283,0
381,34280,0
0,34270,0
0,34305,0
0,34285,0
11,34282,0
336,34272,0
837,34284,0
1476,34314,0
2160,34284,0
2858,34295,0
3464,34289,0
3936,34311,0
4068,34319,0
4056,34297,0
3956,34295,0
3582,34308,0
3032,34325,0
2364,34300,0
1610,34299,0
897,34273,0
275,34320,0
0,34310,0
0,34309,0
0,34296,0
19,34326,0
373,34332,0
902,34304,0
1558,34310,0
2262,34299,0
2964,34334,0
3544,34308,0
3985,34315,0
4082,34303,0
4076,34329,0
3992,34341,0
3528,34300,0
2948,34328,0
2256,34316,0
1508,34337,0
792,34313,0
181,34319,0
0,34319,0
0,34301,0
0,34343,0
57,34309,0
412,34315,0
952,34324,0
1596,34336,0
2292,34351,0
2968,34312,0
3552,34325,0
3972,34300,0
4056,34346,0
4048,34332,0
3880,34317,0
3520,34321,0
2914,34333,0
2192,34344,0
1420,34321,0
692,34327,0
82,34312,0
0,34340,0
0,34326,0
0,34327,0
71,34312,0
458,34343,0
992,34349,0
1644,34340,0
2340,34315,0
3004,34349,0
3582,34340,0
4032,34326,0
4056,34326,0
4036,34317,0
3872,34341,0
3392,34354,0
2800,34317,0
2084,34322,0
1322,34330,0
626,34331,0
53,34322,0
0,34330,0
0,34311,0
0,34339,0
102,34326,0
508,34319,0
1080,34327,0
1756,34352,0
2456,34348,0
3154,34315,0
3720,34323,0
4092,34314,0
4095,34345,0
4092,34315,0
3832,34324,0
3365,34298,0
2770,34339,0
2024,34328,0
1260,34330,0
562,34316,0
3,34335,0
0,34344,0
0,34330,0
0,34335,0
148,34326,0
563,34315,0
1136,34351,0
1800,34334,0
2504,34337,0
3152,34332,0
3748,34350,0
4048,34361,0
4092,34334,0
4028,34338,0
3816,34323,0
3300,34356,0
2672,34343,0
1954,34337,0
1200,34330,0
512,34361,0
0,34358,0
0,34348,0
0,34338,0
0,34367,0
188,34372,0
642,34348,0
1248,34352,0
1948,34361,0
2656,34384,0
3314,34353,0
3880,34351,0
4064,34355,0
4052,34373,0
4032,34371,0
3776,34367,0
3236,34363,0
2624,34357,0
1884,34381,0
1132,34373,0
472,34363,0
0,34359,0
0,34343,0
0,34395,0
0,34367,0
250,34373,0
730,34357,0
1346,34395,0
2040,34396,0
2744,34373,0
3392,34370,0
3960,34357,0
4095,34400,0
4095,34374,0
4080,34372,0
3776,34370,0
3272,34392,0
2608,34390,0
1856,34382,0
1112,34375,0
440,34396,0
0,34411,0
0,34378,0
0,34389,0
0,34407,0
302,34380,0
820,34403,0
1450,34400,0
2146,34392,0
2882,34378,0
3480,34380,0
3956,34402,0
4064,34413,0
4095,34382,0
3980,34380,0
3664,34384,0
3152,34409,0
2520,34388,0
1784,34385,0
1068,34381,0
443,34415,0
0,34401,0
0,34393,0
0,34396,0
38,34408,0
416,34419,0
966,34396,0
1644,34400,0
2376,34392,0
3104,34409,0
3738,34390,0
4080,34395,0
4076,34392,0
4092,34415,0
4028,34423,0
3728,34399,0
3152,34399,0
2492,34393,0
1764,34408,0
1045,34412,0
436,34427,0
0,34396,0
0,34396,0
0,34406,0
84,34421,0
452,34423,0
1012,34402,0
1668,34410,0
2384,34406,0
3088,34435,0
3704,34406,0
4056,34415,0
4052,34399,0
4072,34434,0
3952,34422,0
3583,34407,0
3104,34411,0
2420,34445,0
1652,34439,0
924,34419,0
317,34416,0
0,34440,0
0,34439,0
0,34416,0
94,34418,0
501,34403,0
1058,34442,0
2436,34438,0
3120,34436,0
3720,34428,0
4084,34448,0
4056,34438,0
4056,34421,0
3920,34449,0
3528,34456,0
2956,34425,0
2272,34428,0
1534,34429,0
834,34451,0
257,34432,0
0,34432,0
0,34415,0
0,34456,0
130,34447,0
561,34426,0
1140,34446,0
1830,34441,0
2565,34459,0
3268,34436,0
3852,34430,0
4095,34420,0
4095,34452,0
4095,34433,0
3972,34440,0
3520,34424,0
2944,34452,0
2260,34461,0
1512,34439,0
816,34444,0
244,34438,0
0,34460,0
0,34467,0
0,34447,0
182,34442,0
634,34446,0
1232,34459,0
1940,34470,0
2640,34450,0
3320,34444,0
3884,34430,0
4056,34464,0
4064,34447,0
4044,34457,0
3872,34444,0
3444,34476,0
2856,34478,0
2152,34466,0
1432,34457,0
736,34478,0
160,34480,0
0,34457,0
0,34456,0
0,34436,0
212,34480,0
688,34472,0
1302,34461,0
2012,34455,0
2730,34484,0
3410,34484,0
3952,34462,0
4095,34471,0
4064,34485,0
4048,34473,0
3888,34469,0
3464,34445,0
2884,34468,0
2220,34459,0
1516,34491,0
876,34491,0
368,34465,0
46,34479,0
0,34478,0
114,34496,0
507,34468,0
1096,34476,0
1834,34450,0
2648,34488,0
3488,34473,0
4056,34475,0
4064,34473,0
4060,34497,0
4095,34496,0
4095,34475,0
4095,34475,0
4095,34482,0
4000,34494,0
3664,34474,0
3236,34477,0
2768,34492,0
2386,34495,0
2137,34471,0
2022,34475,0
2112,34448,0
2336,34459,0
2742,34467,0
3226,34485,0
3760,34475,0
4080,34491,0
4068,34447,0
4072,34487,0
4072,34469,0
4064,34464,0
4048,34447,0
3928,34482,0
3544,34475,0
2992,34468,0
2336,34468,0
1628,34470,0
984,34488,0
456,34456,0
111,34465,0
0,34442,0
80,34481,0
374,34451,0
888,34458,0
1510,34448,0
2216,34473,0
2904,34479,0
3500,34451,0
3960,34451,0
4080,34459,0
4072,34478,0
3940,34446,0
3544,34448,0
2992,34430,0
2224,34453,0
1456,34455,0
704,34432,0
48,34430,0
0,34442,0
0,34430,0
0,34429,0
0,34454,0
210,34441,0
658,34435,0
1228,34415,0
1898,34449,0
2568,34449,0
3160,34434,0
3620,34422,0
3904,34427,0
3962,34449,0
3796,34423,0
3416,34423,0
2844,34405,0
2176,34429,0
1409,34409,0
660,34427,0
28,34402,0
0,34434,0
0,34420,0
0,34399,0
0,34399,0
284,34427,0
816,34425,0
1392,34407,0
2096,34398,0
2744,34388,0
3332,34409,0
3776,34429,0
4016,34410,0
4016,34409,0
3844,34386,0
3432,34428,0
2840,34408,0
2136,34415,0
1365,34390,0
658,34413,0
56,34398,0
0,34402,0
0,34393,0
0,34419,0
49,34429,0
402,34399,0
932,34416,0
1587,34400,0
2304,34432,0
2998,34405,0
3600,34411,0
4032,34388,0
4095,34433,0
4095,34417,0
3944,34412,0
3520,34392,0
2904,34447,0
2188,34423,0
1433,34407,0
728,34396,0
120,34436,0
0,34412,0
0,34422,0
0,34410,0
108,34422,0
509,34430,0
1078,34403,0
1736,34441,0
2448,34420,0
3144,34418,0
3698,34432,0
4056,34442,0
4064,34448,0
4040,34422,0
3864,34423,0
3432,34425,0
2836,34449,0
2132,34433,0
1384,34431,0
698,34410,0
119,34448,0
0,34436,0
0,34427,0
0,34424,0
140,34455,0
584,34452,0
1194,34434,0
1888,34437,0
2616,34418,0
3281,34445,0
3850,34437,0
4084,34424,0
4095,34426,0
4048,34448,0
3856,34447,0
3408,34433,0
2832,34439,0
2128,34443,0
1380,34439,0
698,34421,0
148,34455,0
0,34451,0
0,34435,0
0,34433,0
240,34451,0
712,34456,0
1316,34432,0
2018,34435,0
2736,34441,0
3412,34449,0
3930,34431,0
4060,34434,0
4056,34421,0
4095,34464,0
3892,34453,0
3428,34432,0
2816,34431,0
2096,34446,0
1346,34466,0
662,34430,0
133,34436,0
0,34446,0
0,34469,0
0,34450,0
274,34446,0
800,34457,0
1432,34454,0
2132,34444,0
2860,34457,0
3512,34443,0
4016,34448,0
4060,34441,0
4058,34464,0
4048,34459,0
3808,34444,0
3344,34444,0
2728,34449,0
2020,34467,0
1304,34444,0
649,34444,0
143,34436,0
0,34473,0
0,34451,0
27,34444,0
375,34440,0
900,34471,0
1569,34464,0
2312,34451,0
3064,34446,0
3724,34441,0
4095,34479,0
4095,34434,0
4080,34451,0
4068,34426,0
3832,34468,0
3368,34454,0
2042,34369,0
1328,34444,0
704,34435,0
206,34432,0
0,34443,0
0,34437,0
112,34456,0
476,34437,0
1026,34437,0
1705,34432,0
2440,34445,0
3160,34446,0
3792,34429,0
4068,34435,0
4064,34410,0
4056,34432,0
4036,34417,0
3816,34415,0
3284,34393,0
2700,34425,0
1968,34422,0
1242,34409,0
608,34401,0
120,34409,0
0,34407,0
0,34391,0
78,34381,0
495,34361,0
1052,34392,0
1768,34370,0
2496,34365,0
3252,34355,0
3816,34369,0
4056,34369,0
4072,34373,0
4080,34339,0
4024,34324,0
3720,34313,0
3216,34355,0
2576,34323,0
1872,34326,0
1168,34290,0
560,34332,0
130,34317,0
0,34312,0
0,34306,0
147,34313,0
564,34314,0
1156,34285,0
1860,34282,0
2584,34286,0
3300,34295,0
3968,34274,0
4095,34265,0
4095,34257,0
4095,34279,0
4064,34247,0
3720,34249,0
3184,34233,0
2506,34257,0
1788,34232,0
1093,34230,0
493,34208,0
42,34239,0
0,34206,0
0,34214,0
177,34218,0
613,34200,0
1217,34200,0
1905,34196,0
2648,34175,0
3352,34180,0
3967,34177,0
4064,34190,0
4072,34159,0
4056,34174,0
3966,34140,0
3600,34172,0
3052,34156,0
2388,34150,0
1666,34136,0
973,34168,0
394,34152,0
0,34134,0
0,34136,0
0,34145,0
184,34142,0
653,34130,0
1280,34127,0
1993,34103,0
2737,34142,0
3400,34119,0
3973,34114,0
4095,34107,0
4088,34136,0
4095,34131,0
3912,34102,0
3512,34117,0
2942,34086,0
2256,34087,0
1540,34100,0
852,34124,0
273,34096,0
0,34094,0
0,34103,0
0,34107,0
232,34082,0
708,34100,0
1329,34070,0
2040,34116,0
2784,34101,0
3448,34081,0
4000,34087,0
4068,34096,0
4064,34108,0
4052,34090,0
4000,34092,0
3539,34073,0
2944,34101,0
2252,34084,0
1508,34090,0
822,34075,0
280,34097,0
0,34115,0
0,34085,0
0,34089,0
301,34084,0
797,34115,0
1450,34083,0
2168,34091,0
2904,34105,0
3592,34081,0
4052,34091,0
4064,34114,0
4068,34087,0
4056,34095,0
3892,34075,0
3488,34109,0
2904,34094,0
2228,34085,0
1512,34080,0
853,34114,0
328,34115,0
0,34093,0
0,34097,0
53,34079,0
375,34122,0
904,34082,0
1576,34102,0
2322,34101,0
3088,34113,0
3752,34125,0
4095,34089,0
4095,34103,0
4095,34085,0
4080,34127,0
3898,34111,0
3468,34097,0
2882,34086,0
2208,34123,0
1480,34106,0
832,34135,0
324,34119,0
8,34114,0
0,34108,0
98,34097,0
439,34119,0
980,34116,0
1660,34111,0
2392,34117,0
3140,34140,0
3776,34149,0
4052,34118,0
4072,34122,0
4056,34103,0
4048,34131,0
3872,34126,0
3392,34116,0
2800,34127,0
2116,34142,0
1424,34145,0
779,34123,0
283,34127,0
0,34116,0
0,34159,0
101,34132,0
505,34130,0
1089,34125,0
1748,34152,0
2552,34167,0
3256,34137,0
3944,34149,0
4068,34142,0
4095,34147,0
4064,34148,0
4040,34141,0
3804,34150,0
3346,34150,0
2740,34159,0
2056,34140,0
1364,34143,0
744,34124,0
280,34159,0
29,34152,0
0,34148,0
188,34147,0
598,34168,0
1178,34170,0
1888,34149,0
2608,34153,0
3340,34144,0
3952,34170,0
4095,34166,0
4095,34162,0
4095,34163,0
4095,34163,0
3816,34177,0
3328,34159,0
2688,34155,0
1964,34133,0
1256,34183,0
677,34158,0
213,34150,0
0,34147,0
0,34180,0
186,34162,0
620,34176,0
1225,34173,0
1924,34145,0
2660,34159,0
3376,34139,0
3968,34181,0
4095,34161,0
4068,34156,0
4056,34148,0
4000,34177,0
3656,34173,0
3136,34152,0
2476,34152,0
1748,34161,0
1050,34174,0
440,34135,0
8,34152,0
0,34137,0
0,34162,0
135,34151,0
566,34151,0
1158,34141,0
1866,34177,0
2601,34173,0
3305,34150,0
3856,34150,0
4084,34142,0
4091,34172,0
4076,34149,0
3968,34147,0
3488,34154,0
2896,34157,0
2194,34163,0
1436,34155,0
718,34140,0
129,34131,0
0,34160,0
0,34138,0
0,34140,0
101,34125,0
488,34150,0
1072,34134,0
1704,34142,0
2408,34122,0
3080,34155,0
3640,34145,0
4042,34133,0
4092,34121,0
4028,34140,0
3800,34156,0
3396,34126,0
2752,34121,0
1996,34115,0
1205,34135,0
493,34111,0
0,34116,0
0,34102,0
0,34139,0
0,34122,0
88,34105,0
480,34107,0
1680,34028,0
2362,34106,0
3010,34120,0
3552,34130,0
3960,34107,0
4040,34088,0
3976,34098,0
3688,34080,0
3170,34112,0
2512,34095,0
1764,34085,0
992,34068,0
296,34106,0
0,34107,0
0,34077,0
0,34076,0
0,34085,0
82,34083,0
468,34066,0
1003,34059,0
1660,34042,0
2337,34073,0
2970,34059,0
3520,34050,0
3876,34037,0
4008,34057,0
3928,34055,0
3580,34038,0
3064,34034,0
2384,34055,0
1641,34043,0
878,34021,0
208,34028,0
0,33998,0
0,34006,0
0,34006,0
0,34013,0
131,34033,0
528,33997,0
1072,34004,0
1720,33984,0
2392,34001,0
3012,33975,0
3516,33981,0
3838,33972,0
3944,33993,0
3832,33990,0
3488,33968,0
2940,33964,0
2264,33981,0
1506,33975,0
744,33955,0
55,33945,0
0,33940,0
0,33974,0
0,33949,0
0,33939,0
88,33916,0
495,33949,0
1056,33927,0
1680,33929,0
2360,33902,0
2964,33934,0
3488,33931,0
3744,33913,0
3828,33917,0
3688,33933,0
3392,33906,0
2808,33920,0
2160,33919,0
1392,33890,0
648,33893,0
17,33877,0
0,33913,0
0,33894,0
0,33885,0
0,33878,0
164,33890,0
597,33901,0
1168,33874,0
1814,33868,0
2458,33853,0
3064,33886,0
3584,33868,0
3872,33862,0
3944,33848,0
3776,33872,0
3392,33861,0
2806,33850,0
2100,33844,0
1334,33873,0
599,33854,0
0,33854,0
0,33844,0
0,33860,0
0,33874,0
0,33848,0
212,33852,0
688,33835,0
1243,33825,0
1892,33844,0
2552,33857,0
3140,33841,0
3632,33842,0
3872,33850,0
3928,33854,0
3756,33834,0
3352,33846,0
2772,33824,0
2072,33864,0
1317,33830,0
583,33833,0
0,33818,0
0,33850,0
0,33845,0
0,33825,0
0,33841,0
264,33835,0
760,33858,0
1378,33827,0
2052,33829,0
2736,33811,0
3364,33849,0
3744,33821,0
3988,33818,0
4010,33818,0
3808,33838,0
3412,33849,0
2760,33805,0
2046,33817,0
1300,33819,0
576,33814,0
0,33796,0
0,33824,0
0,33816,0
0,33813,0
37,33802,0
374,33814,0
891,33825,0
1512,33793,0
2208,33792,0
2856,33772,0
3424,33813,0
3856,33790,0
4048,33790,0
4004,33774,0
3760,33809,0
3300,33805,0
2712,33773,0
1969,33781,0
1195,33790,0
458,33806,0
0,33782,0
0,33778,0
0,33770,0
0,33794,0
33,33779,0
434,33775,0
938,33756,0
1592,33792,0
2250,33777,0
2908,33793,0
3460,33765,0
3848,33749,0
4036,33763,0
4000,33781,0
3776,33782,0
3288,33753,0
2628,33753,0
1912,33753,0
1136,33785,0
450,33747,0
0,33755,0
0,33734,0
0,33767,0
0,33758,0
116,33759,0
518,33728,0
1076,33774,0
1754,33776,0
2476,33742,0
3144,33753,0
3712,33737,0
4072,33770,0
4095,33752,0
4095,33750,0
3816,33727,0
3296,33778,0
2656,33770,0
1906,33752,0
1156,33752,0
448,33761,0
0,33745,0
0,33768,0
0,33736,0
0,33745,0
157,33777,0
582,33739,0
1168,33768,0
1842,33769,0
2536,33741,0
3192,33735,0
3712,33751,0
4048,33768,0
4072,33742,0
4008,33755,0
3716,33742,0
3224,33769,0
2596,33745,0
1834,33752,0
1088,33738,0
421,33773,0
0,33758,0
0,33752,0
0,33749,0
0,33774,0
218,33773,0
688,33750,0
1314,33751,0
2018,33759,0
2738,33788,0
3372,33756,0
3893,33756,0
4095,33750,0
4056,33756,0
4010,33741,0
3700,33770,0
3188,33775,0
2520,33787,0
1788,33786,0
1046,33766,0
390,33764,0
0,33758,0
0,33791,0
0,33765,0
0,33765,0
344,33762,0
864,33794,0
1520,33791,0
2256,33772,0
2976,33779,0
3656,33755,0
4068,33798,0
4095,33775,0
4095,33774,0
4095,33772,0
3952,33787,0
3560,33795,0
3024,33778,0
2405,33781,0
1796,33798,0
1264,33812,0
885,33782,0
732,33782,0
774,33775,0
1060,33808,0
1552,33807,0
2196,33813,0
2944,33803,0
3728,33797,0
4072,33820,0
4094,33800,0
4072,33788,0
4064,33797,0
4072,33821,0
4064,33803,0
4052,33791,0
4008,33788,0
3696,33821,0
3232,33821,0
2696,33809,0
2132,33787,0
1640,33817,0
1314,33831,0
1144,33807,0
1184,33820,0
1424,33821,0
1824,33853,0
2336,33827,0
2908,33820,0
3464,33807,0
3956,33836,0
4095,33832,0
4088,33830,0
4072,33822,0
3912,33831,0
3510,33860,0
2232,33884,0
1496,33845,0
793,33830,0
193,33828,0
0,33823,0
0,33857,0
0,33849,0
86,33836,0
465,33829,0
1005,33858,0
1664,33868,0
2392,33842,0
3052,33839,0
3672,33825,0
4040,33859,0
4088,33848,0
4048,33848,0
3936,33839,0
3456,33873,0
2888,33874,0
2208,33862,0
1441,33859,0
711,33877,0
102,33889,0
0,33858,0
0,33868,0
0,33852,0
96,33895,0
461,33866,0
1046,33865,0
1712,33872,0
2444,33898,0
3088,33884,0
3656,33866,0
4024,33901,0
4048,33884,0
4052,33899,0
3872,33910,0
3424,33882,0
2840,33900,0
2132,33898,0
1392,33934,0
693,33899,0
132,33898,0
0,33900,0
0,33923,0
0,33895,0
164,33908,0
594,33891,0
1192,33932,0
1874,33922,0
2632,33913,0
3328,33916,0
3908,33932,0
4095,33940,0
4095,33914,0
4095,33920,0
3937,33934,0
3504,33940,0
2864,33934,0
2164,33935,0
1425,33909,0
732,33953,0
162,33930,0
0,33942,0
0,33935,0
0,33945,0
240,33937,0
716,33946,0
1328,33971,0
2036,33958,0
2768,33943,0
3476,33951,0
3984,33958,0
4064,33968,0
4060,33949,0
4048,33957,0
3858,33946,0
3424,33977,0
2828,33964,0
2136,33953,0
1401,33953,0
717,33986,0
169,33986,0
0,33960,0
0,33975,0
0,33973,0
279,33988,0
781,33964,0
1428,33981,0
2168,33969,0
2888,33990,0
3560,33970,0
4060,33987,0
4092,33967,0
4095,34003,0
4052,34002,0
3832,33992,0
3396,33981,0
2784,33995,0
2080,34008,0
1352,33984,0
689,33983,0
173,34001,0
0,34017,0
0,33987,0
15,34002,0
344,33983,0
864,34007,0
1506,33999,0
2224,34002,0
2949,33993,0
3604,34024,0
4052,34017,0
4072,34005,0
4060,34011,0
4095,33987,0
3844,34027,0
3384,33995,0
2752,34005,0
2021,34003,0
1297,34028,0
640,34021,0
140,34007,0
0,34005,0
0,33995,0
48,34023,0
402,33993,0
954,34019,0
1628,34000,0
2352,33995,0
3071,33998,0
3712,34014,0
4056,34022,0
4064,33994,0
4056,33993,0
4032,33978,0
3752,34019,0
3264,34019,0
2652,33989,0
1918,33994,0
1210,33996,0
584,34001,0
107,33976,0
0,33989,0
0,33970,0
97,33998,0
505,33978,0
1076,33979,0
1769,33985,0
2523,33996,0
3252,34008,0
3892,33980,0
4095,33972,0
4095,33950,0
4088,33988,0
4054,33967,0
3776,33972,0
3240,33968,0
2624,33990,0
1876,33976,0
1176,33945,0
564,33970,0
109,33953,0
0,33934,0
0,33938,0
141,33945,0
556,33936,0
1130,33954,0
1829,33930,0
2588,33932,0
3296,33912,0
3896,33944,0
4064,33922,0
4048,33918,0
4060,33911,0
4024,33919,0
3708,33929,0
3212,33895,0
2576,33889,0
1880,33879,0
1176,33909,0
580,33881,0
139,33875,0
0,33857,0
0,33891,0
212,33877,0
676,33851,0
1292,33856,0
2035,33853,0
2784,33864,0
3544,33832,0
4056,33848,0
4068,33820,0
4064,33835,0
4064,33801,0
4032,33825,0
3744,33814,0
3256,33790,0
2632,33783,0
1952,33765,0
1276,33791,0
718,33782,0
309,33759,0
107,33755,0
137,33752,0
402,33761,0
876,33728,0
1506,33727,0
2220,33691,0
3000,33729,0
3680,33694,0
4095,33683,0
4095,33663,0
4095,33684,0
4095,33685,0
4095,33656,0
3812,33656,0
3336,33664,0
2704,33654,0
2032,33622,0
1388,33621,0
835,33616,0
453,33622,0
304,33583,0
360,33596,0
652,33579,0
1132,33558,0
1760,33561,0
2470,33538,0
3220,33537,0
3920,33508,0
4068,33539,0
4064,33501,0
4072,33489,0
4076,33469,0
4036,33495,0
3824,33472,0
3368,33455,0
2812,33440,0
2164,33455,0
1548,33452,0
1046,33421,0
702,33420,0
552,33430,0
641,33431,0
957,33390,0
1464,33381,0
2104,33356,0
2832,33392,0
3592,33360,0
4084,33356,0
4095,33337,0
4095,33357,0
4050,33349,0
4095,33317,0
4048,33214,0
3928,33320,0
3560,33301,0
3071,33278,0
2512,33278,0
1956,33295,0
1496,33314,0
1196,33280,0
1088,33280,0
1176,33254,0
1517,33292,0
2008,33272,0
2608,33268,0
3296,33257,0
4027,33281,0
4064,33278,0
4072,33248,0
4072,33240,0
4072,33237,0
4072,33264,0
4095,33235,0
4095,33237,0
3864,33221,0
3472,33246,0
2984,33238,0
2496,33226,0
2088,33219,0
1816,33241,0
1715,33247,0
1848,33227,0
2148,33231,0
2640,33233,0
3184,33242,0
3824,33235,0
4072,33232,0
4064,33228,0
4072,33223,0
4068,33233,0
4072,33232,0
4064,33222,0
4056,33249,0
4052,33242,0
3976,33223,0
3712,33231,0
3336,33242,0
2936,33255,0
2568,33225,0
2356,33233,0
2256,33246,0
2376,33248,0
2664,33227,0
3092,33221,0
3616,33212,0
4095,33240,0
4095,33224,0
4095,33235,0
4095,33217,0
4095,33244,0
4095,33250,0
4094,33224,0
4090,33236,0
4088,33244,0
4067,33248,0
3944,33238,0
3583,33242,0
3250,33241,0
2996,33253,0
2820,33237,0
2776,33240,0
2906,33233,0
3188,33253,0
3600,33263,0
4048,33233,0
4056,33240,0
4064,33227,0
4095,33255,0
4072,33241,0
4095,33243,0
4080,33240,0
4095,33265,0
4064,33260,0
4095,33246,0
4040,33236,0
4036,33264,0
3856,33266,0
3712,33257,0
3498,33261,0
3392,33270,0
3377,33285,0
3520,33265,0
3788,33262,0
4080,33245,0
4090,33291,0
4095,33272,0
4088,33282,0
4095,33259,0
4080,33288,0
4076,33297,0
4064,33288,0
4072,33306,0
4064,33294,0
4066,33301,0
4064,33298,0
4052,33318,0
3992,33332,0
3852,33306,0
3732,33320,0
3688,33321,0
3696,33343,0
3888,33332,0
4040,33340,0
4092,33329,0
4095,33363,0
4095,33365,0
4080,33351,0
4080,33361,0
4088,33372,0
4095,33388,0
4095,33365,0
4095,33365,0
4095,33371,0
4095,33406,0
4095,33385,0
4084,33389,0
4064,33370,0
3984,33420,0
3888,33405,0
3904,33401,0
3884,33404,0
4036,33419,0
4064,33415,0
4072,33410,0
4068,33428,0
4072,33422,0
4080,33439,0
4072,33420,0
4072,33466,0
4068,33460,0
4080,33444,0
4095,33445,0
4072,33458,0
4095,33473,0
4064,33456,0
4095,33456,0
4048,33466,0
4040,33493,0
3964,33465,0
3964,33465,0
4032,33456,0
4095,33498,0
4095,33490,0
4095,33482,0
4095,33469,0
4095,33496,0
4095,33514,0
4095,33484,0
4095,33490,0
4092,33470,0
4095,33517,0
4095,33499,0
4080,33490,0
4068,33499,0
4064,33525,0
4064,33535,0
4040,33531,0
4030,33532,0
4012,33506,0
4020,33518,0
4040,33532,0
4060,33549,0
4072,33522,0
4075,33529,0
4064,33519,0
4095,33544,0
4072,33532,0
4095,33543,0
4072,33521,0
4095,33556,0
4080,33547,0
4080,33542,0
4068,33533,0
4095,33571,0
4095,33560,0
4095,33553,0
4095,33548,0
4095,33571,0
4095,33582,0
4080,33554,0
4080,33559,0
4095,33559,0
4095,33592,0
4095,33568,0
4076,33576,0
4072,33573,0
4064,33579,0
4068,33574,0
4072,33564,0
4072,33571,0
4072,33588,0
4072,33567,0
4068,33602,0
4064,33587,0
4068,33586,0
4084,33578,0
4056,33607,0
4092,33606,0
4048,33593,0
4080,33588,0
4056,33610,0
4095,33609,0
4072,33595,0
4064,33597,0
4072,33586,0
4095,33614,0
4095,33594,0
4095,33589,0
4095,33578,0
4095,33616,0
4095,33603,0
4080,33593,0
4094,33575,0
4095,33618,0
4089,33606,0
4095,33598,0
4056,33606,0
4044,33624,0
4040,33594,0
4048,33594,0
4056,33603,0
4068,33591,0
4072,33591,0
4068,33611,0
4064,33620,0
4072,33592,0
4080,33593,0
4095,33584,0
4072,33611,0
4095,33594,0
4080,33594,0
4095,33570,0
4072,33626,0
4095,33585,0
4064,33595,0
4056,33577,0
4032,33614,0
4048,33617,0
4000,33595,0
4036,33603,0
4095,33580,0
4095,33605,0
4095,33598,0
4092,33591,0
4095,33575,0
4095,33615,0
4094,33604,0
4095,33595,0
4076,33608,0
4060,33608,0
4072,33579,0
4052,33588,0
4080,33608,0
4060,33594,0
4056,33592,0
4016,33595,0
3896,33617,0
3765,33598,0
3696,33600,0
3725,33588,0
3828,33618,0
4095,33618,0
4056,33608,0
4095,33605,0
4072,33614,0
4095,33628,0
4056,33598,0
4084,33607,0
4072,33577,0
4095,33622,0
4095,33613,0
4095,33608,0
4095,33595,0
4095,33633,0
4095,33614,0
3980,33612,0
3816,33606,0
3648,33625,0
3557,33643,0
3632,33615,0
3672,33620,0
3936,33635,0
4064,33619,0
4064,33638,0
4064,33633,0
4056,33629,0
4072,33617,0
4072,33626,0
4064,33631,0
4060,33646,0
4064,33618,0
4095,33633,0
4064,33611,0
4095,33641,0
4040,33638,0
3976,33632,0
3748,33628,0
3656,33649,0
3528,33660,0
3544,33639,0
3696,33638,0
4032,33645,0
4095,33654,0
4095,33627,0
4095,33648,0
4095,33632,0
4095,33665,0
4095,33655,0
4094,33643,0
4092,33638,0
4095,33669,0
4068,33703,0
4052,33673,0
3992,33659,0
3792,33641,0
3556,33645,0
3384,33656,0
3300,33643,0
3320,33668,0
3480,33665,0
3764,33660,0
4052,33669,0
4085,33677,0
4072,33699,0
4095,33664,0
4064,33666,0
4095,33654,0
4072,33693,0
4095,33667,0
4072,33670,0
4064,33676,0
4095,33700,0
4095,33694,0
3921,33686,0
3682,33687,0
3412,33706,0
3217,33725,0
3120,33691,0
3136,33691,0
3324,33714,0
3648,33732,0
4049,33700,0
4095,33697,0
4072,33703,0
4072,33726,0
4068,33712,0
4074,33697,0
4076,33716,0
4064,33717,0
4064,33704,0
4064,33737,0
4064,33746,0
3992,33716,0
3760,33720,0
3478,33723,0
3180,33743,0
3008,33730,0
2872,33722,0
2952,33712,0
3136,33745,0
3524,33733,0
3924,33732,0
4072,33721,0
4060,33757,0
4095,33739,0
4095,33741,0
4095,33744,0
4095,33747,0
4095,33767,0
4095,33745,0
4092,33750,0
4068,33764,0
3938,33772,0
3616,33764,0
3300,33760,0
2944,33772,0
2728,33758,0
2656,33779,0
2721,33765,0
2960,33761,0
3344,33778,0
3800,33788,0
4060,33774,0
4072,33788,0
4064,33759,0
4068,33797,0
4095,33794,0
4064,33789,0
4095,33783,0
4064,33812,0
4092,33816,0
3986,33796,0
3762,33793,0
3360,33792,0
2976,33820,0
2632,33811,0
2450,33808,0
2377,33799,0
2484,33841,0
2806,33834,0
3225,33812,0
3760,33825,0
4092,33809,0
4095,33851,0
4092,33815,0
4095,33821,0
4095,33820,0
4080,33852,0
4072,33830,0
4072,33857,0
4056,33837,0
4040,33843,0
3948,33846,0
3716,33861,0
3480,33838,0
3280,33845,0
3204,33843,0
3264,33876,0
3504,33854,0
3848,33855,0
4095,33838,0
4068,33878,0
4095,33873,0
4072,33858,0
4095,33867,0
4076,33866,0
4072,33900,0
4072,33861,0
4095,33876,0
4095,33862,0
4095,33900,0
4095,33896,0
4095,33879,0
4095,33882,0
4076,33904,0
4024,33907,0
3984,33890,0
3952,33893,0
4048,33882,0
4052,33894,0
4056,33913,0
4064,33892,0
4056,33905,0
4068,33899,0
4068,33897,0
4072,33891,0
4064,33913,0
4068,33924,0
4058,33903,0
3952,33910,0
3647,33891,0
3152,33922,0
2608,33903,0
2008,33915,0
1497,33897,0
1116,33924,0
914,33933,0
924,33901,0
1138,33912,0
1532,33890,0
2101,33928,0
2754,33917,0
3440,33913,0
4056,33895,0
4095,33929,0
4095,33929,0
4080,33907,0
4080,33917,0
4072,33897,0
3868,33930,0
3488,33915,0
2888,33912,0
2258,33936,0
1644,33917,0
1122,33943,0
750,33909,0
574,33941,0
609,33936,0
870,33920,0
1324,33927,0
1916,33916,0
2600,33940,0
3312,33927,0
3944,33925,0
4068,33905,0
4068,33950,0
4072,33931,0
4056,33925,0
4040,33927,0
3788,33946,0
3368,33957,0
2776,33934,0
2180,33939,0
1524,33924,0
992,33951,0
632,33934,0
469,33935,0
538,33927,0
838,33964,0
1296,33961,0
1930,33938,0
2620,33944,0
3376,33941,0
3960,33934,0
4064,33966,0
4072,33939,0
4072,33917,0
4064,33956,0
4024,33944,0
3728,33956,0
3240,33944,0
2640,33972,0
1988,33956,0
1368,33966,0
851,33934,0
518,33979,0
400,33962,0
493,33955,0
836,33955,0
1308,33977,0
1940,33981,0
2636,33962,0
3352,33966,0
4048,33951,0
4095,33988,0
4095,33969,0
4095,33963,0
4095,33957,0
4040,33991,0
3680,33978,0
3108,33958,0
2464,33957,0
1800,33986,0
1149,34003,0
632,33967,0
306,33979,0
197,33955,0
314,33983,0
652,33989,0
1172,33985,0
1812,33985,0
2528,34007,0
3280,33981,0
3884,33980,0
4064,33976,0
4064,34005,0
4056,33989,0
4050,33983,0
3880,33973,0
3448,34006,0
2872,33998,0
2194,33985,0
1488,33986,0
853,34013,0
348,34004,0
23,33988,0
0,34008,0
86,34003,0
465,34019,0
1024,33996,0
1712,34004,0
2458,33977,0
3172,34019,0
3808,33986,0
4088,33999,0
4092,33988,0
4095,34016,0
4028,34005,0
3768,33986,0
3284,33981,0
2648,33994,0
1928,33992,0
1200,33980,0
556,34015,0
62,33991,0
0,33988,0
0,33990,0
42,34014,0
390,34024,0
921,33994,0
1564,33997,0
2290,33973,0
3012,34018,0
3616,33997,0
4048,33998,0
4064,33975,0
4052,34013,0
4048,34014,0
3680,33998,0
3122,34005,0
2432,34015,0
1664,34021,0
920,34006,0
275,34000,0
0,34004,0
0,34031,0
0,33990,0
32,34006,0
908,34010,0
1540,33998,0
2248,34012,0
2916,33997,0
3512,33978,0
3952,34024,0
4052,33998,0
4048,34011,0
3888,33979,0
3476,34021,0
2896,33993,0
2178,33996,0
1405,33980,0
678,34019,0
61,33997,0
0,34004,0
0,33997,0
0,34015,0
16,34022,0
326,33999,0
842,34000,0
1472,34001,0
2160,34021,0
2841,33997,0
3442,33998,0
3880,33973,0
4094,34011,0
4056,34003,0
3829,33996,0
3388,33987,0
2760,34017,0
2044,34019,0
1240,34010,0
524,33994,0
0,33985,0
0,34008,0
0,33992,0
0,34004,0
14,33981,0
329,33984,0
846,33981,0
1456,33990,0
2120,33962,0
2776,33976,0
3344,33966,0
3728,33989,0
3944,33963,0
3952,33952,0
3684,33943,0
3228,33973,0
2577,33977,0
1864,33946,0
1120,33934,0
390,33950,0
0,33948,0
0,33921,0
0,33931,0
0,33920,0
30,33937,0
408,33913,0
926,33906,0
1572,33867,0
2245,33918,0
2936,33892,0
3432,33876,0
3824,33889,0
4024,33889,0
3988,33883,0
3704,33889,0
3192,33864,0
2552,33852,0
1810,33846,0
1053,33873,0
341,33863,0
0,33841,0
0,33834,0
0,33834,0
0,33856,0
76,33819,0
450,33813,0
978,33794,0
1640,33825,0
2304,33792,0
2976,33795,0
3529,33775,0
3888,33805,0
4050,33789,0
3979,33772,0
3680,33756,0
3168,33783,0
2488,33783,0
1714,33755,0
931,33752,0
261,33752,0
0,33762,0
0,33728,0
0,33729,0
0,33728,0
94,33713,0
470,33708,0
1006,33717,0
1638,33706,0
2303,33710,0
2928,33714,0
3440,33710,0
3784,33685,0
3920,33694,0
3828,33671,0
3504,33700,0
2984,33674,0
2308,33678,0
1560,33656,0
824,33694,0
148,33673,0
0,33674,0
0,33650,0
0,33678,0
0,33684,0
110,33654,0
526,33652,0
1090,33657,0
1748,33668,0
2416,33639,0
3032,33643,0
3532,33621,0
3856,33658,0
3960,33646,0
3888,33640,0
3476,33620,0
2944,33635,0
2268,33632,0
1512,33653,0
802,33638,0
120,33625,0
0,33644,0
0,33656,0
0,33626,0
0,33623,0
178,33613,0
608,33662,0
1186,33633,0
1848,33634,0
2516,33631,0
3128,33646,0
3604,33654,0
3902,33628,0
3992,33629,0
3844,33615,0
3536,33648,0
2961,33630,0
2261,33635,0
1483,33615,0
739,33655,0
81,33639,0
0,33635,0
0,33630,0
0,33650,0
0,33659,0
241,33635,0
698,33654,0
1308,33658,0
1973,33640,0
2644,33655,0
3252,33658,0
3760,33648,0
3976,33660,0
4024,33659,0
3856,33651,0
3464,33639,0
2874,33678,0
2176,33664,0
1420,33655,0
688,33655,0
43,33682,0
0,33690,0
0,33667,0
0,33672,0
0,33668,0
296,33692,0
804,33677,0
1419,33684,0
2112,33674,0
2816,33698,0
3404,33704,0
3872,33684,0
4095,33688,0
4095,33693,0
3924,33708,0
3482,33690,0
2906,33693,0
2172,33680,0
1400,33715,0
672,33694,0
56,33699,0
0,33715,0
0,33729,0
0,33733,0
32,33716,0
379,33711,0
893,33703,0
1524,33738,0
2216,33743,0
2896,33721,0
3476,33730,0
3892,33734,0
4064,33738,0
4048,33726,0
3856,33741,0
3428,33722,0
2824,33756,0
2116,33741,0
1356,33744,0
633,33737,0
34,33764,0
0,33760,0
0,33751,0
0,33756,0
66,33759,0
460,33782,0
1024,33763,0
1676,33769,0
2393,33748,0
3069,33775,0
3688,33767,0
4008,33778,0
4052,33775,0
4040,33787,0
3875,33773,0
3392,33769,0
2776,33778,0
2064,33767,0
1224,33794,0
608,33785,0
41,33777,0
0,33783,0
0,33794,0
0,33813,0
138,33779,0
546,33789,0
1118,33795,0
1789,33816,0
2490,33780,0
3156,33797,0
3776,33771,0
4095,33813,0
4095,33803,0
4095,33796,0
3888,33801,0
3420,33826,0
2790,33823,0
2064,33801,0
1296,33809,0
602,33816,0
33,33832,0
0,33814,0
0,33816,0
0,33804,0
176,33818,0
614,33833,0
1194,33839,0
1876,33846,0
2608,33817,0
3248,33823,0
3808,33795,0
4052,33839,0
4058,33836,0
4036,33827,0
3848,33829,0
3320,33851,0
2712,33862,0
1980,33835,0
1224,33836,0
570,33828,0
32,33857,0
0,33838,0
0,33844,0
0,33837,0
232,33861,0
719,33863,0
1350,33833,0
2056,33853,0
2800,33840,0
3460,33862,0
3976,33847,0
4091,33844,0
4088,33831,0
4044,33868,0
3304,33867,0
2664,33854,0
1960,33844,0
1226,33847,0
568,33826,0
59,33878,0
0,33855,0
0,33860,0
9,33844,0
326,33881,0
828,33873,0
1476,33861,0
2188,33866,0
2900,33859,0
3544,33881,0
4032,33869,0
4052,33854,0
4064,33848,0
4024,33895,0
3816,33894,0
3328,33869,0
2672,33867,0
1944,33867,0
1205,33890,0
557,33854,0
64,33879,0
0,33842,0
0,33890,0
49,33876,0
431,33872,0
955,33865,0
1632,33876,0
2322,33867,0
3052,33865,0
3688,33880,0
4048,33886,0
4064,33889,0
4060,33846,0
4048,33883,0
3744,33869,0
3252,33878,0
2648,33861,0
1908,33902,0
1197,33894,0
538,33873,0
100,33880,0
0,33877,0
0,33904,0
92,33877,0
481,33880,0
1040,33853,0
1744,33891,0
2476,33888,0
3212,33880,0
3880,33873,0
4095,33896,0
4095,33903,0
4095,33873,0
4080,33881,0
3744,33887,0
3249,33896,0
2628,33873,0
1904,33881,0
1200,33862,0
590,33879,0
146,33896,0
0,33889,0
0,33892,0
168,33882,0
598,33881,0
1160,33875,0
1874,33865,0
2600,33898,0
3316,33875,0
3920,33879,0
4064,33860,0
4064,33904,0
4056,33892,0
4016,33879,0
3700,33882,0
3224,33885,0
2568,33902,0
1880,33876,0
1178,33877,0
580,33855,0
153,33903,0
0,33885,0
0,33880,0
204,33882,0
656,33901,0
1270,33899,0
1984,33879,0
2728,33882,0
3432,33891,0
4028,33910,0
4095,33879,0
4064,33886,0
4064,33899,0
4032,33879,0
3676,33891,0
3168,33877,0
2513,33890,0
1816,33886,0
1124,33870,0
560,33904,0
181,33889,0
0,33886,0
12,33890,0
285,33901,0
761,33902,0
1393,33890,0
2112,33896,0
2904,33869,0
3582,33907,0
4094,33904,0
4072,33894,0
4095,33897,0
4095,33900,0
4080,33922,0
3760,33891,0
3244,33902,0
2604,33886,0
1908,33906,0
1245,33901,0
674,33894,0
315,33911,0
144,33897,0
192,33912,0
488,33903,0
973,33913,0
1588,33895,0
2300,33888,0
3024,33899,0
3746,33894,0
4064,33920,0
4064,33910,0
4064,33912,0
4056,33905,0
3984,33918,0
3640,33930,0
3124,33905,0
2484,33910,0
1804,33888,0
1168,33934,0
635,33917,0
282,33915,0
152,33899,0
244,33939,0
538,33931,0
1051,33906,0
1709,33920,0
2449,33933,0
3184,33936,0
3864,33917,0
4095,33923,0
4095,33907,0
4088,33946,0
4084,33938,0
3996,33926,0
3672,33913,0
3088,33930,0
2456,33935,0
1773,33944,0
1146,33934,0
640,33940,0
315,33925,0
204,33926,0
316,33958,0
666,33949,0
1194,33936,0
1824,33938,0
2536,33939,0
3272,33969,0
3920,33941,0
4095,33949,0
4052,33928,0
4076,33961,0
4064,33955,0
3956,33954,0
3600,33944,0
3104,33975,0
2457,33977,0
1780,33950,0
1152,33943,0
653,33933,0
342,33977,0
256,33957,0
400,33961,0
740,33958,0
1298,33975,0
1952,33987,0
2692,33959,0
3344,33980,0
3984,33968,0
4072,33957,0
4084,33963,0
4064,33998,0
4064,33979,0
3920,33987,0
3528,33971,0
2992,33971,0
2352,33948,0
1688,33994,0
1090,33968,0
632,33974,0
365,33961,0
309,33993,0
476,34001,0
858,33968,0
1410,33970,0
2056,33970,0
2792,33988,0
3552,33973,0
4095,33964,0
4095,33965,0
4095,33997,0
4095,33993,0
4095,33976,0
3946,33978,0
3488,33980,0
2921,33997,0
2282,33979,0
1610,33992,0
1016,33967,0
596,33990,0
363,33980,0
347,33994,0
563,33988,0
994,33981,0
1596,33980,0
2300,33973,0
3048,33995,0
3776,34009,0
4072,33978,0
4072,33979,0
4072,33979,0
4072,34003,0
4064,33988,0
4048,33989,0
3904,33963,0
3564,34016,0
3152,33999,0
2706,33999,0
2284,33979,0
1994,34015,0
1913,34018,0
1984,33995,0
2246,34000,0
2700,33984,0
3296,34020,0
3960,33997,0
4090,34000,0
4088,33992,0
4095,34022,0
4094,34016,0
4095,34007,0
4072,34021,0
4072,34013,0
4072,33997,0
4072,34016,0
4008,34000,0
3712,34030,0
3300,34014,0
2864,34016,0
2456,34015,0
2162,34034,0
2000,34033,0
2002,34017,0
2174,34020,0
2480,34001,0
2888,34034,0
3336,34013,0
3784,34019,0
4072,34004,0
4068,34045,0
4064,34037,0
4056,34011,0
3924,34022,0
3520,34025,0
2950,34048,0
2304,34011,0
1588,34022,0
935,34004,0
439,34036,0
49,34042,0
0,34028,0
25,34024,0
818,34049,0
1444,34037,0
2168,34036,0
2897,34040,0
3582,34008,0
4064,34055,0
4064,34029,0
4056,34039,0
4060,34019,0
3960,34057,0
3582,34039,0
3065,34037,0
2384,34029,0
1688,34059,0
1004,34059,0
457,34028,0
90,34040,0
0,34015,0
18,34060,0
322,34040,0
792,34043,0
1446,34036,0
2184,34058,0
2944,34068,0
3636,34035,0
4095,34038,0
4095,34027,0
4090,34066,0
4080,34068,0
3956,34039,0
3560,34044,0
3040,34051,0
2324,34049,0
1616,34045,0
957,34065,0
432,34054,0
76,34040,0
0,34061,0
53,34053,0
377,34048,0
898,34042,0
1547,34064,0
2272,34086,0
3012,34053,0
3680,34055,0
4056,34038,0
4064,34067,0
4064,34061,0
4056,34051,0
3924,34050,0
3528,34065,0
2978,34075,0
2336,34040,0
1634,34057,0
972,34036,0
450,34075,0
119,34056,0
14,34055,0
142,34038,0
502,34077,0
1012,34072,0
1718,34054,0
2434,34054,0
3200,34060,0
3808,34065,0
4064,34083,0
4064,34063,0
4068,34073,0
4056,34058,0
3912,34058,0
3512,34044,0
2948,34077,0
2274,34056,0
1604,34064,0
973,34048,0
496,34084,0
183,34070,0
112,34056,0
278,34061,0
620,34067,0
1160,34081,0
1824,34058,0
2552,34051,0
3280,34048,0
3976,34071,0
4095,34068,0
4095,34050,0
4095,34054,0
4095,34051,0
3952,34079,0
3528,34055,0
2920,34056,0
2258,34034,0
1578,34080,0
957,34055,0
468,34054,0
203,34050,0
151,34064,0
316,34050,0
708,34079,0
1266,34060,0
1941,34045,0
2656,34029,0
3368,34069,0
3992,34060,0
4064,34054,0
4064,34048,0
4064,34051,0
4048,34071,0
3864,34048,0
3432,34053,0
2856,34032,0
2192,34067,0
1520,34055,0
931,34051,0
478,34041,0
231,34076,0
192,34076,0
391,34049,0
809,34053,0
1378,34051,0
2082,34073,0
2824,34047,0
3512,34047,0
4072,34048,0
4095,34079,0
4090,34071,0
4095,34055,0
4048,34025,0
3816,34048,0
3380,34079,0
2792,34075,0
2128,34067,0
1457,34055,0
887,34076,0
464,34093,0
233,34063,0
230,34067,0
444,34055,0
869,34090,0
1456,34072,0
2128,34074,0
2864,34076,0
3592,34095,0
4056,34111,0
4094,34076,0
4064,34073,0
4068,34075,0
4095,34104,0
3856,34079,0
3384,34079,0
2769,34064,0
2096,34099,0
1424,34085,0
842,34075,0
439,34084,0
224,34096,0
247,34114,0
510,34079,0
944,34068,0
1548,34094,0
2236,34065,0
2968,34090,0
3652,34069,0
4060,34087,0
4064,34073,0
4068,34096,0
4072,34068,0
4024,34070,0
3752,34051,0
3276,34081,0
2656,34068,0
1992,34058,0
1340,34051,0
790,34068,0
420,34068,0
237,34038,0
291,34043,0
568,34016,0
1030,34051,0
1656,34028,0
2369,34028,0
3106,34022,0
3797,34035,0
4095,34036,0
4095,34005,0
4095,34003,0
4090,34007,0
4026,34020,0
3753,33987,0
3260,33985,0
2664,33967,0
1960,33983,0
1338,33978,0
817,33963,0
460,33944,0
326,33973,0
408,33967,0
708,33935,0
1196,33974,0
1818,33966,0
2536,33934,0
3236,33934,0
3896,33916,0
4076,33939,0
4064,33910,0
4060,33899,0
4064,33888,0
4004,33916,0
3696,33919,0
3204,33885,0
2596,33880,0
1940,33888,0
1328,33898,0
810,33857,0
472,33862,0
348,33835,0
440,33873,0
762,33855,0
1280,33848,0
1896,33826,0
2632,33849,0
3337,33851,0
4032,33821,0
4080,33834,0
4064,33809,0
4048,33832,0
4056,33804,0
3992,33812,0
3652,33803,0
3152,33785,0
2544,33811,0
1873,33814,0
1268,33773,0
777,33779,0
462,33757,0
361,33779,0
474,33769,0
812,33764,0
1317,33746,0
1960,33778,0
2656,33770,0
3368,33739,0
3976,33749,0
4095,33722,0
4095,33754,0
4095,33730,0
4095,33724,0
4020,33709,0
3668,33740,0
3128,33720,0
2464,33719,0
1786,33703,0
1205,33739,0
751,33728,0
424,33703,0
356,33710,0
506,33695,0
858,33729,0
1384,33711,0
2032,33719,0
2741,33730,0
3448,33697,0
4032,33690,0
4064,33675,0
4068,33719,0
4072,33689,0
4064,33690,0
3930,33678,0
3544,33713,0
3024,33704,0
2400,33687,0
1744,33683,0
1156,33708,0
704,33712,0
438,33689,0
374,33685,0
553,33670,0
936,33714,0
1493,33699,0
2168,33687,0
2896,33682,0
3616,33713,0
4080,33713,0
4090,33697,0
4095,33700,0
4084,33686,0
3908,33741,0
3528,33699,0
2980,33710,0
2352,33698,0
1696,33728,0
1131,33726,0
697,33702,0
462,33706,0
430,33693,0
628,33721,0
1026,33705,0
1580,33713,0
2240,33694,0
2960,33741,0
3648,33731,0
4064,33717,0
4064,33715,0
4064,33726,0
4064,33741,0
4048,33711,0
3936,33720,0
3520,33710,0
2976,33741,0
2296,33724,0
1657,33718,0
1084,33718,0
664,33746,0
451,33752,0
438,33726,0
688,33733,0
1100,33720,0
1682,33750,0
2340,33741,0
3056,33735,0
3740,33749,0
4060,33748,0
4072,33752,0
4068,33717,0
4076,33759,0
4040,33752,0
3848,33739,0
3432,33741,0
2864,33760,0
2228,33758,0
1594,33741,0
1056,33741,0
664,33729,0
478,33761,0
504,33748,0
752,33749,0
1192,33734,0
1784,33772,0
2496,33768,0
3216,33749,0
3904,33754,0
4095,33763,0
4095,33771,0
4095,33742,0
4095,33762,0
4072,33757,0
3844,33777,0
3440,33739,0
2842,33756,0
2192,33747,0
1532,33769,0
994,33778,0
627,33771,0
446,33778,0
488,33768,0
767,33765,0
1212,33750,0
1794,33789,0
2472,33769,0
3214,33764,0
3832,33781,0
4056,33801,0
4072,33802,0
4068,33777,0
4066,33782,0
4024,33775,0
3748,33799,0
3268,33776,0
2676,33786,0
2017,33771,0
1382,33819,0
865,33805,0
508,33789,0
352,33776,0
434,33805,0
724,33822,0
1216,33788,0
1832,33798,0
2521,33785,0
3240,33817,0
3896,33811,0
4095,33805,0
4064,33816,0
4095,33814,0
4056,33815,0
4004,33832,0
3664,33820,0
3156,33823,0
2538,33799,0
1880,33842,0
1252,33822,0
761,33830,0
424,33825,0
304,33846,0
415,33848,0
724,33836,0
1228,33835,0
1856,33844,0
2552,33880,0
3264,33842,0
3900,33841,0
4064,33828,0
4095,33875,0
4095,33844,0
4095,33852,0
4024,33842,0
3650,33878,0
3104,33868,0
2464,33854,0
1770,33853,0
1144,33878,0
652,33871,0
340,33861,0
222,33870,0
370,33884,0
688,33882,0
1228,33882,0
1872,33871,0
2584,33867,0
3296,33880,0
3920,33874,0
4064,33882,0
4068,33901,0
4064,33869,0
4064,33884,0
3936,33861,0
3544,33907,0
3000,33896,0
2356,33880,0
1680,33880,0
1073,33898,0
608,33916,0
316,33883,0
253,33891,0
384,33873,0
765,33900,0
1312,33887,0
1984,33888,0
2704,33886,0
3424,33913,0
4044,33918,0
4095,33896,0
4095,33891,0
4084,33872,0
4076,33912,0
3944,33888,0
3444,33893,0
2912,33908,0
2224,33897,0
1553,33896,0
956,33891,0
506,33910,0
241,33914,0
204,33895,0
379,33895,0
778,33884,0
1340,33916,0
2008,33889,0
2736,33897,0
3444,33890,0
4052,33910,0
4064,33913,0
4080,33886,0
4072,33890,0
4048,33879,0
3839,33921,0
3488,33896,0
2888,33887,0
2208,33874,0
1536,33925,0
941,33895,0
500,33901,0
242,33899,0
259,33914,0
430,33919,0
888,33902,0
1441,33899,0
2128,33889,0
2818,33897,0
3508,33892,0
4048,33907,0
4088,33874,0
4064,33920,0
4064,33909,0
4040,33896,0
3800,33928,0
3332,33910,0
2736,33901,0
2064,33901,0
1400,33919,0
829,33940,0
409,33904,0
192,33915,0
206,33892,0
463,33934,0
880,33913,0
1466,33907,0
2152,33910,0
2936,33913,0
3624,33935,0
4095,33906,0
4095,33908,0
4095,33896,0
4095,33934,0
4095,33925,0
3756,33914,0
3292,33910,0
2683,33942,0
1995,33923,0
1338,33909,0
766,33926,0
320,33931,0
170,33929,0
208,33939,0
449,33948,0
904,33923,0
1502,33925,0
2188,33902,0
2916,33941,0
3592,33947,0
4060,33923,0
4072,33917,0
4068,33922,0
4064,33952,0
4010,33923,0
3696,33935,0
3188,33926,0
2558,33958,0
1899,33952,0
1228,33937,0
680,33939,0
296,33964,0
129,33969,0
202,33930,0
485,33953,0
969,33934,0
1604,33974,0
2308,33968,0
3052,33954,0
3748,33960,0
4088,33971,0
4095,33979,0
4064,33975,0
4064,33962,0
4000,33992,0
3672,33968,0
3164,33976,0
2532,33997,0
1858,34001,0
1221,33974,0
692,33978,0
336,33978,0
193,34009,0
273,33975,0
560,33983,0
1040,33970,0
1656,34010,0
2376,34007,0
3080,33990,0
3732,33986,0
4056,34015,0
4064,34021,0
4095,33990,0
4095,34001,0
4004,33976,0
3616,34023,0
3050,34003,0
2392,34004,0
1686,33981,0
1050,34027,0
503,34004,0
200,34008,0
86,34000,0
528,34084,0
1052,34011,0
1700,34023,0
2416,34031,0
3128,34019,0
3840,34024,0
4080,34020,0
4072,34010,0
4064,34047,0
4048,34022,0
3896,34017,0
3488,34016,0
2912,34043,0
2256,34051,0
1564,34025,0
928,34028,0
435,34032,0
132,34053,0
26,34022,0
189,34036,0
524,34017,0
1076,34054,0
1752,34061,0
2488,34036,0
3224,34040,0
3880,34054,0
4095,34079,0
4092,34042,0
4095,34049,0
4078,34024,0
3884,34074,0
3472,34068,0
2840,34084,0
2176,34064,0
1460,34058,0
844,34041,0
356,34069,0
60,34062,0
3,34071,0
161,34096,0
536,34076,0
1076,34074,0
1756,34068,0
2481,34100,0
3232,34095,0
3832,34080,0
4064,34076,0
4064,34060,0
4060,34100,0
4040,34076,0
3792,34093,0
3304,34074,0
2736,34109,0
2036,34101,0
1320,34088,0
692,34079,0
223,34113,0
0,34112,0
0,34086,0
148,34092,0
524,34088,0
1133,34111,0
1810,34097,0
2568,34096,0
3248,34102,0
3860,34100,0
4072,34112,0
4072,34107,0
4095,34114,0
4020,34121,0
3704,34106,0
3196,34114,0
2540,34097,0
1856,34132,0
1152,34127,0
562,34113,0
143,34114,0
0,34141,0
0,34138,0
221,34115,0
666,34127,0
1284,34102,0
2012,34141,0
2752,34138,0
3562,34122,0
4095,34127,0
4095,34127,0
4095,34157,0
4095,34126,0
4095,34130,0
4032,34111,0
3664,34152,0
3202,34142,0
2672,34130,0
2148,34134,0
1720,34153,0
1406,34139,0
1309,34135,0
1410,34145,0
1736,34149,0
2208,34169,0
2848,34125,0
3580,34164,0
4095,34147,0
4080,34147,0
4072,34142,0
4094,34174,0
4080,34171,0
4064,34154,0
4072,34159,0
4064,34134,0
4024,34185,0
3760,34167,0
3306,34161,0
2788,34154,0
2250,34180,0
1800,34182,0
1476,34164,0
1317,34163,0
1340,34161,0
1552,34191,0
1906,34167,0
2368,34174,0
2840,34163,0
3328,34186,0
3752,34179,0
4008,34175,0
4095,34168,0
3944,34186,0
3648,34185,0
3148,34181,0
2496,34158,0
1768,34182,0
1028,34203,0
351,34206,0
0,34178,0
0,34178,0
0,34161,0
0,34198,0
93,34185,0
472,34177,0
1008,34176,0
1644,34207,0
2322,34211,0
2952,34172,0
3520,34186,0
3839,34181,0
4008,34213,0
3952,34187,0
3720,34186,0
3212,34171,0
2532,34213,0
1778,34205,0
1004,34187,0
302,34191,0
0,34189,0
0,34210,0
0,34192,0
0,34187,0
76,34181,0
472,34204,0
1008,34205,0
1644,34216,0
2306,34202,0
2944,34202,0
3464,34183,0
3832,34222,0
3988,34198,0
3940,34201,0
3616,34197,0
3104,34228,0
2480,34218,0
1740,34197,0
985,34207,0
345,34219,0
0,34232,0
0,34210,0
0,34213,0
0,34192,0
142,34232,0
580,34210,0
1156,34214,0
1828,34207,0
2528,34228,0
3177,34234,0
3696,34214,0
4040,34218,0
4072,34214,0
4022,34234,0
3690,34214,0
3125,34225,0
2468,34210,0
1700,34220,0
953,34232,0
294,34219,0
0,34211,0
0,34225,0
0,34247,0
0,34235,0
234,34212,0
676,34234,0
1280,34227,0
1937,34238,0
2626,34225,0
3248,34221,0
3736,34210,0
4028,34248,0
4048,34244,0
3964,34221,0
3616,34233,0
3080,34243,0
2404,34249,0
1697,34243,0
930,34244,0
272,34225,0
0,34258,0
0,34244,0
0,34231,0
0,34219,0
298,34255,0
777,34262,0
1418,34241,0
2098,34235,0
2816,34238,0
3404,34245,0
3904,34218,0
4056,34248,0
4048,34257,0
3952,34248,0
3580,34272,0
3032,34260,0
2352,34250,0
1608,34231,0
882,34276,0
250,34272,0
0,34250,0
0,34250,0
0,34244,0
8,34287,0
352,34258,0
852,34263,0
1484,34240,0
2184,34280,0
2900,34280,0
3512,34254,0
3968,34263,0
4095,34264,0
4095,34275,0
3992,34255,0
3596,34267,0
3008,34243,0
2276,34279,0
1520,34270,0
803,34260,0
186,34255,0
0,34280,0
0,34291,0
0,34256,0
52,34243,0
404,34268,0
930,34250,0
1574,34280,0
2268,34289,0
2940,34267,0
3528,34267,0
3976,34259,0
4064,34294,0
4052,34276,0
3896,34273,0
3488,34258,0
2904,34293,0
2208,34293,0
1458,34277,0
755,34276,0
156,34288,0
0,34310,0
0,34271,0
0,34286,0
72,34275,0
467,34306,0
1024,34293,0
1696,34296,0
2404,34285,0
3068,34296,0
3656,34320,0
4050,34284,0
4082,34292,0
3872,34254,0
3440,34300,0
2856,34305,0
2136,34297,0
1388,34318,0
684,34301,0
111,34288,0
0,34290,0
0,34311,0
0,34323,0
128,34297,0
524,34295,0
1076,34275,0
1744,34322,0
2432,34291,0
3108,34297,0
3656,34273,0
4026,34310,0
4056,34317,0
4094,34284,0
3890,34294,0
3432,34265,0
2808,34306,0
2076,34278,0
1323,34266,0
606,34254,0
29,34293,0
0,34285,0
0,34266,0
0,34263,0
157,34246,0
572,34266,0
1160,34254,0
1828,34239,0
2530,34219,0
3196,34239,0
3736,34243,0
4044,34230,0
4064,34222,0
4026,34209,0
3792,34242,0
3328,34229,0
2708,34208,0
2000,34210,0
1256,34211,0
586,34218,0
44,34198,0
0,34180,0
0,34170,0
0,34203,0
239,34175,0
690,34170,0
1308,34155,0
2016,34175,0
2736,34175,0
3401,34143,0
3922,34146,0
4095,34120,0
4095,34152,0
4056,34118,0
3808,34122,0
3337,34103,0
2698,34130,0
2000,34135,0
1248,34101,0
594,34095,0
85,34107,0
0,34083,0
0,34101,0
0,34079,0
297,34073,0
800,34073,0
1424,34085,0
2120,34054,0
2832,34058,0
3504,34036,0
3976,34065,0
4095,34052,0
4064,34037,0
4072,34032,0
3748,34041,0
3260,34053,0
2616,34019,0
1908,34018,0
1172,33994,0
505,34037,0
0,34018,0
0,34008,0
0,33996,0
0,34001,0
316,34021,0
834,34004,0
1458,33980,0
2168,33964,0
2880,33997,0
3552,34001,0
3964,33988,0
4080,33994,0
4088,33992,0
4004,33959,0
3680,33970,0
3148,33982,0
2481,33961,0
1760,33960,0
1035,33944,0
398,33970,0
0,33946,0
0,33952,0
0,33948,0
25,33962,0
312,33964,0
862,33943,0
1492,33947,0
2192,33926,0
2884,33965,0
3556,33937,0
4032,33925,0
4095,33929,0
4095,33952,0
4040,33959,0
3680,33931,0
3108,33947,0
2408,33916,0
1656,33961,0
921,33952,0
314,33938,0
0,33937,0
0,33938,0
0,33930,0
50,33942,0
394,33950,0
920,33957,0
1564,33956,0
2248,33947,0
2936,33964,0
3536,33935,0
3980,33937,0
4052,33929,0
4056,33973,0
3984,33940,0
3552,33932,0
3012,33936,0
2300,33963,0
1570,33967,0
844,33935,0
232,33947,0
0,33933,0
0,33961,0
0,33953,0
52,33950,0
438,33945,0
982,33957,0
1648,33972,0
2368,33947,0
3072,33953,0
3624,33943,0
4040,33977,0
4092,33974,0
4076,33962,0
3968,33966,0
3492,33989,0
2908,33969,0
2212,33981,0
1460,33974,0
752,33963,0
168,33968,0
0,33970,0
0,33989,0
0,34005,0
104,33979,0
477,33990,0
1035,33963,0
1700,34007,0
2400,33997,0
3071,33991,0
3644,33994,0
4032,34005,0
4072,34020,0
4048,33995,0
3872,34003,0
3496,33985,0
2888,34015,0
2176,34005,0
1410,34003,0
704,33998,0
122,34020,0
0,34024,0
0,33998,0
0,34008,0
161,33992,0
586,34023,0
1144,34016,0
1820,33999,0
2528,34012,0
3188,34036,0
3748,34037,0
4095,34031,0
4064,33996,0
4040,34043,0
3832,34018,0
3384,34023,0
2776,34015,0
2064,34042,0
1322,34058,0
633,34025,0
83,34037,0
0,34017,0
0,34064,0
0,34032,0
187,34036,0
621,34038,0
1209,34051,0
1916,34064,0
2624,34037,0
3300,34052,0
3848,34034,0
4095,34073,0
4095,34065,0
4095,34042,0
3828,34056,0
3352,34059,0
2718,34094,0
1997,34065,0
1280,34074,0
572,34073,0
49,34078,0
0,34081,0
0,34086,0
0,34115,0
236,34078,0
688,34078,0
1288,34075,0
1968,34108,0
2672,34117,0
3360,34096,0
3896,34107,0
4056,34091,0
4092,34126,0
4028,34102,0
3792,34103,0
3268,34107,0
2624,34121,0
1896,34141,0
1168,34109,0
490,34122,0
0,34110,0
0,34141,0
0,34123,0
0,34126,0
283,34117,0
781,34143,0
1409,34151,0
2097,34125,0
2808,34130,0
3456,34126,0
3992,34165,0
4064,34138,0
4052,34141,0
4016,34163,0
3700,34143,0
3208,34133,0
2576,34169,0
1840,34142,0
1113,34150,0
466,34144,0
0,34170,0
0,34175,0
0,34151,0
32,34157,0
348,34133,0
852,34180,0
1485,34168,0
2184,34158,0
2884,34146,0
3512,34163,0
4048,34182,0
4095,34167,0
4095,34161,0
4072,34150,0
3752,34193,0
3224,34192,0
2548,34164,0
1812,34167,0
1081,34153,0
444,34195,0
0,34164,0
0,34160,0
65,34183,0
416,34194,0
946,34186,0
1600,34166,0
2308,34202,0
3044,34177,0
3624,34198,0
4048,34172,0
4056,34170,0
4060,34149,0
4000,34187,0
3688,34175,0
3128,34170,0
2496,34161,0
1748,34193,0
1042,34195,0
427,34178,0
0,34175,0
0,34192,0
0,34199,0
94,34178,0
474,34179,0
1032,34160,0
1713,34188,0
2434,34196,0
3144,34185,0
3752,34177,0
4084,34172,0
4088,34200,0
4082,34185,0
3976,34181,0
3624,34176,0
3008,34183,0
2324,34177,0
1584,34187,0
868,34202,0
257,34203,0
0,34208,0
0,34176,0
0,34185,0
74,34165,0
440,34205,0
976,34180,0
1620,34192,0
2300,34191,0
2980,34204,0
3544,34215,0
3960,34190,0
4052,34194,0
4040,34170,0
3834,34215,0
3400,34210,0
2824,34189,0
2096,34185,0
1300,34193,0
570,34211,0
0,34194,0
0,34194,0
0,34169,0
0,34207,0
33,34213,0
411,34182,0
903,34204,0
1520,34189,0
2180,34194,0
2826,34207,0
3392,34205,0
3784,34203,0
3976,34188,0
3948,34214,0
3688,34204,0
3258,34203,0
2576,34194,0
1840,34192,0
1080,34217,0
364,34199,0
0,34202,0
0,34194,0
0,34212,0
0,34213,0
21,34197,0
347,34189,0
840,34178,0
1448,34219,0
2112,34220,0
2764,34204,0
3312,34205,0
3684,34207,0
3876,34230,0
3826,34204,0
3552,34207,0
3036,34192,0
2408,34230,0
1663,34218,0
908,34206,0
195,34206,0
0,34217,0
0,34203,0
0,34213,0
0,34196,0
41,34207,0
376,34229,0
870,34232,0
1472,34210,0
2128,34210,0
2744,34185,0
3252,34228,0
3608,34223,0
3776,34203,0
3712,34210,0
3408,34217,0
2912,34231,0
2276,34212,0
1534,34202,0
792,34200,0
124,34227,0
0,34233,0
0,34211,0
0,34202,0
0,34201,0
40,34224,0
380,34224,0
880,34210,0
1485,34224,0
2113,34217,0
2721,34241,0
3216,34212,0
3584,34222,0
3648,34197,0
3560,34212,0
3236,34227,0
2728,34201,0
2074,34214,0
1336,34243,0
612,34249,0
0,34212,0
0,34217,0
0,34204,0
0,34242,0
0,34256,0
40,34218,0
380,34228,0
868,34202,0
1440,34233,0
2080,34218,0
2648,34228,0
3144,34225,0
3476,34231,0
3584,34242,0
3468,34226,0
3124,34228,0
2600,34217,0
1930,34254,0
1194,34254,0
474,34236,0
0,34233,0
0,34221,0
0,34254,0
0,34240,0
0,34242,0
67,34246,0
419,34261,0
912,34257,0
1504,34260,0
2108,34266,0
2672,34247,0
3128,34281,0
3400,34276,0
3474,34259,0
3336,34263,0
2968,34255,0
2436,34296,0
1778,34273,0
1057,34269,0
348,34277,0
0,34294,0
0,34300,0
0,34271,0
0,34286,0
0,34271,0
56,34310,0
413,34299,0
917,34287,0
1509,34293,0
2114,34282,0
2688,34313,0
3120,34302,0
3360,34290,0
3402,34294,0
3244,34308,0
2864,34324,0
2336,34301,0
1634,34317,0
920,34309,0
217,34330,0
0,34322,0
0,34304,0
0,34317,0
0,34302,0
0,34324,0
83,34311,0
431,34303,0
918,34311,0
1476,34336,0
2060,34344,0
2584,34312,0
2976,34324,0
3204,34294,0
3232,34345,0
3048,34331,0
2648,34317,0
2104,34318,0
1472,34328,0
734,34353,0
76,34322,0
0,34333,0
0,34320,0
0,34349,0
0,34359,0
0,34331,0
173,34346,0
631,34325,0
1186,34361,0
1828,34347,0
2448,34344,0
3052,34356,0
3488,34340,0
3776,34369,0
3864,34358,0
3744,34351,0
3428,34355,0
2968,34344,0
2384,34368,0
1761,34360,0
1185,34365,0
701,34350,0
388,34376,0
294,34385,0
418,34369,0
761,34373,0
1292,34345,0
1978,34392,0
2704,34380,0
3498,34373,0
4095,34371,0
4095,34379,0
4095,34398,0
4095,34372,0
4095,34371,0
4024,34369,0
3620,34389,0
2984,34407,0
2248,34388,0
1452,34390,0
661,34360,0
0,34412,0
0,34380,0
0,34394,0
0,34387,0
91,34369,0
439,34378,0
904,34374,0
1432,34414,0
1961,34406,0
2416,34378,0
2740,34391,0
2880,34373,0
2810,34407,0
2536,34399,0
2074,34380,0
1466,34384,0
776,34408,0
77,34411,0
0,34389,0
0,34400,0
0,34376,0
0,34407,0
0,34404,0
0,34393,0
0,34403,0
156,34379,0
526,34409,0
998,34401,0
1448,34409,0
1953,34402,0
2229,34415,0
2424,34427,0
2364,34425,0
2146,34400,0
1732,34405,0
1206,34401,0
594,34433,0
0,34410,0
0,34400,0
0,34426,0
0,34433,0
0,34409,0
0,34417,0
0,34396,0
23,34435,0
314,34429,0
726,34411,0
1200,34417,0
1688,34419,0
2104,34436,0
2400,34412,0
2572,34415,0
2512,34411,0
2244,34443,0
1793,34449,0
1216,34417,0
564,34429,0
0,34407,0
0,34443,0
0,34422,0
0,34423,0
0,34422,0
0,34447,0
0,34450,0
89,34425,0
418,34439,0
868,34426,0
1380,34402,0
1876,34433,0
2296,34425,0
2597,34433,0
2684,34421,0
2604,34446,0
2312,34442,0
1840,34430,0
1256,34433,0
611,34438,0
0,34469,0
0,34429,0
0,34436,0
0,34420,0
0,34457,0
0,34433,0
0,34435,0
160,34437,0
549,34460,0
1037,34455,0
1576,34445,0
2090,34443,0
2513,34443,0
2788,34469,0
2848,34448,0
2722,34452,0
2410,34440,0
1900,34474,0
1292,34473,0
640,34453,0
0,34449,0
0,34443,0
0,34463,0
0,34475,0
0,34465,0
0,34455,0
0,34481,0
225,34495,0
639,34462,0
1148,34479,0
1708,34452,0
2208,34490,0
2616,34480,0
2848,34474,0
2912,34476,0
2760,34478,0
2416,34495,0
1900,34473,0
1280,34482,0
592,34464,0
0,34498,0
0,34490,0
0,34482,0
0,34474,0
0,34477,0
0,34499,0
6,34470,0
294,34474,0
749,34468,0
1271,34501,0
1832,34505,0
2324,34462,0
2704,34503,0
2928,34493,0
2956,34481,0
2784,34486,0
2400,34491,0
1856,34487,0
1217,34483,0
532,34490,0
0,34518,0
0,34485,0
0,34487,0
0,34471,0
0,34506,0
0,34520,0
43,34488,0
355,34498,0
804,34490,0
1344,34518,0
1912,34505,0
2424,34501,0
2802,34491,0
3024,34526,0
3032,34523,0
2838,34492,0
2420,34501,0
1856,34485,0
1190,34521,0
495,34499,0
0,34493,0
0,34495,0
0,34534,0
0,34525,0
0,34510,0
0,34531,0
78,34521,0
420,34517,0
884,34538,0
1428,34518,0
1992,34518,0
2472,34502,0
2832,34542,0
3064,34546,0
3016,34519,0
2784,34531,0
2364,34504,0
1788,34539,0
1084,34518,0
435,34526,0
0,34518,0
0,34536,0
0,34552,0
0,34515,0
0,34521,0
0,34502,0
106,34527,0
474,34521,0
968,34517,0
1548,34510,0
2090,34527,0
2566,34536,0
2916,34503,0
3078,34501,0
3072,34492,0
2760,34527,0
2320,34513,0
1740,34502,0
1066,34521,0
385,34495,0
0,34483,0
0,34470,0
0,34507,0
0,34500,0
0,34466,0
0,34466,0
173,34460,0
556,34471,0
1072,34460,0
1644,34448,0
2176,34442,0
2660,34443,0
3000,34468,0
3136,34434,0
3136,34435,0
2880,34422,0
2392,34444,0
1774,34442,0
1090,34408,0
390,34424,0
0,34395,0
0,34421,0
0,34395,0
0,34393,0
0,34367,0
0,34407,0
261,34407,0
723,34393,0
1264,34386,0
1852,34362,0
2409,34365,0
2872,34363,0
3168,34353,0
3300,34351,0
3200,34372,0
2907,34336,0
2396,34340,0
1784,34306,0
1074,34343,0
372,34333,0
0,34307,0
0,34314,0
0,34306,0
0,34328,0
0,34299,0
18,34287,0
308,34276,0
770,34301,0
1340,34299,0
1944,34272,0
2505,34270,0
2960,34262,0
3264,34280,0
3346,34263,0
3192,34253,0
2832,34247,0
2322,34259,0
1678,34265,0
953,34247,0
258,34234,0
0,34261,0
0,34232,0
0,34229,0
0,34245,0
0,34237,0
33,34212,0
309,34216,0
766,34191,0
1300,34225,0
1878,34221,0
2412,34197,0
2872,34204,0
3112,34178,0
3220,34210,0
3064,34196,0
2712,34188,0
2192,34179,0
1554,34196,0
850,34200,0
151,34178,0
0,34187,0
0,34166,0
0,34189,0
0,34180,0
0,34176,0
34,34178,0
382,34196,0
832,34199,0
1428,34169,0
2021,34177,0
2936,34168,0
3184,34169,0
3244,34173,0
3088,34172,0
2712,34169,0
2172,34171,0
1504,34159,0
801,34148,0
121,34177,0
0,34181,0
0,34160,0
0,34154,0
0,34126,0
0,34169,0
76,34165,0
420,34162,0
898,34146,0
1474,34167,0
2066,34184,0
2593,34160,0
3008,34147,0
3236,34152,0
3264,34186,0
3072,34185,0
2658,34154,0
2097,34162,0
1424,34148,0
720,34181,0
49,34163,0
0,34166,0
0,34166,0
0,34190,0
0,34168,0
0,34167,0
134,34177,0
471,34177,0
1012,34170,0
1602,34171,0
2188,34174,0
2696,34159,0
3068,34194,0
3280,34193,0
3328,34173,0
3064,34176,0
2660,34190,0
2080,34205,0
1402,34183,0
693,34182,0
20,34169,0
0,34192,0
0,34198,0
0,34192,0
0,34196,0
0,34178,0
182,34213,0
583,34195,0
1128,34203,0
1722,34186,0
2309,34212,0
2784,34227,0
3156,34197,0
3344,34201,0
3304,34194,0
3082,34225,0
2584,34211,0
2000,34214,0
1305,34221,0
608,34211,0
0,34221,0
0,34209,0
0,34212,0
0,34211,0
0,34239,0
0,34213,0
231,34221,0
652,34213,0
1185,34235,0
1780,34249,0
2362,34224,0
2852,34214,0
3196,34200,0
3360,34247,0
3313,34252,0
3088,34228,0
2609,34220,0
1984,34233,0
1280,34260,0
556,34238,0
0,34232,0
0,34223,0
0,34259,0
0,34251,0
0,34243,0
0,34237,0
282,34248,0
728,34266,0
1284,34270,0
1920,34267,0
2460,34246,0
2940,34234,0
3264,34272,0
3400,34255,0
3324,34255,0
3028,34268,0
2557,34280,0
1916,34252,0
1218,34266,0
509,34258,0
0,34283,0
0,34271,0
0,34279,0
0,34262,0
0,34298,0
16,34302,0
344,34266,0
798,34284,0
1377,34266,0
1994,34313,0
2576,34278,0
3056,34277,0
3368,34278,0
3464,34301,0
3378,34305,0
3016,34277,0
2488,34294,0
1870,34278,0
1142,34309,0
422,34286,0
0,34298,0
0,34294,0
0,34296,0
0,34306,0
0,34289,0
49,34295,0
383,34301,0
858,34314,0
1442,34300,0
2047,34298,0
2616,34296,0
3060,34318,0
3346,34321,0
3440,34310,0
3312,34301,0
2960,34290,0
2433,34321,0
1789,34299,0
1074,34300,0
380,34294,0
0,34324,0
0,34328,0
0,34301,0
0,34316,0
0,34290,0
74,34324,0
446,34335,0
962,34317,0
1556,34312,0
2168,34314,0
2728,34337,0
3200,34306,0
3432,34317,0
3472,34324,0
3328,34306,0
2944,34286,0
2396,34327,0
1732,34321,0
1014,34303,0
313,34336,0
0,34326,0
0,34319,0
0,34320,0
0,34341,0
0,34352,0
123,34312,0
506,34319,0
1023,34286,0
1620,34340,0
2230,34326,0
2776,34320,0
3248,34310,0
3500,34328,0
3532,34337,0
3348,34313,0
2945,34320,0
2368,34295,0
1670,34338,0
932,34318,0
244,34316,0
0,34303,0
0,34336,0
0,34325,0
0,34320,0
0,34328,0
172,34314,0
554,34316,0
1096,34331,0
1690,34311,0
2296,34306,0
2832,34307,0
3232,34302,0
3460,34331,0
3474,34308,0
3264,34307,0
2848,34295,0
2264,34323,0
1560,34317,0
840,34307,0
161,34301,0
0,34322,0
0,34337,0
0,34319,0
0,34308,0
0,34295,0
144,34324,0
550,34319,0
1090,34317,0
1700,34305,0
2328,34320,0
2832,34339,0
3184,34315,0
3385,34306,0
3376,34294,0
3136,34323,0
2722,34308,0
2104,34303,0
1406,34291,0
684,34306,0
4,34326,0
0,34311,0
0,34302,0
0,34298,0
0,34315,0
0,34327,0
151,34304,0
546,34303,0
1029,34277,0
1632,34323,0
2208,34306,0
2712,34297,0
3068,34294,0
3224,34317,0
3216,34324,0
2970,34296,0
2521,34302,0
1952,34284,0
1246,34320,0
524,34305,0
0,34294,0
0,34285,0
0,34318,0
0,34312,0
0,34306,0
0,34300,0
177,34299,0
585,34319,0
1093,34303,0
1662,34311,0
2232,34298,0
2704,34316,0
3048,34301,0
3188,34305,0
3128,34301,0
2856,34318,0
2394,34327,0
1796,34308,0
1114,34304,0
392,34302,0
0,34318,0
0,34313,0
0,34312,0
0,34312,0
0,34338,0
0,34339,0
197,34316,0
624,34316,0
1148,34302,0
1746,34347,0
2309,34334,0
2793,34324,0
3112,34320,0
3248,34338,0
3185,34347,0
2900,34325,0
2400,34330,0
1772,34312,0
1110,34343,0
416,34330,0
0,34354,0
0,34352,0
0,34333,0
0,34348,0
19,34347,0
340,34337,0
785,34350,0
1348,34334,0
1944,34335,0
2496,34328,0
2948,34358,0
3224,34361,0
3360,34351,0
3208,34336,0
2896,34327,0
2356,34361,0
1716,34340,0
996,34337,0
298,34330,0
0,34375,0
0,34355,0
0,34346,0
0,34358,0
0,34349,0
0,34371,0
301,34350,0
757,34367,0
1310,34339,0
1872,34375,0
2449,34367,0
2892,34356,0
3208,34351,0
3248,34354,0
3120,34379,0
2776,34366,0
2264,34378,0
1624,34382,0
924,34390,0
235,34394,0
0,34372,0
0,34371,0
0,34363,0
0,34391,0
0,34372,0
48,34370,0
380,34364,0
848,34395,0
1409,34396,0
2004,34375,0
2532,34382,0
2964,34369,0
3264,34401,0
3328,34379,0
3168,34379,0
2802,34371,0
2257,34411,0
1592,34404,0
876,34378,0
182,34383,0
0,34375,0
0,34408,0
0,34389,0
0,34389,0
0,34381,0
101,34393,0
462,34396,0
963,34384,0
1540,34396,0
2136,34410,0
2676,34375,0
3088,34411,0
3324,34391,0
3374,34394,0
3168,34400,0
2812,34413,0
2224,34424,0
1568,34401,0
837,34412,0
148,34394,0
0,34441,0
0,34418,0
0,34410,0
0,34418,0
0,34438,0
122,34439,0
513,34422,0
1040,34431,0
1634,34413,0
2250,34445,0
2786,34437,0
3186,34433,0
3370,34433,0
3394,34418,0
3216,34443,0
2764,34428,0
2200,34436,0
1480,34443,0
745,34463,0
64,34444,0
0,34453,0
0,34454,0
0,34442,0
0,34427,0
0,34467,0
129,34462,0
499,34450,0
1008,34455,0
1596,34453,0
2216,34477,0
2744,34455,0
3132,34456,0
3352,34451,0
3376,34480,0
3188,34473,0
2784,34453,0
2228,34463,0
1592,34460,0
904,34490,0
266,34459,0
0,34473,0
0,34460,0
0,34495,0
0,34501,0
249,34464,0
755,34486,0
1448,34473,0
2198,34499,0
3040,34481,0
3728,34504,0
4072,34497,0
4088,34491,0
4095,34473,0
4064,34488,0
4048,34491,0
3876,34473,0
3468,34519,0
2920,34500,0
2288,34499,0
1666,34478,0
1145,34519,0
716,34523,0
502,34504,0
480,34499,0
665,34500,0
1032,34523,0
1524,34506,0
2120,34502,0
2704,34493,0
3244,34526,0
3656,34530,0
3904,34508,0
3925,34511,0
3720,34503,0
3296,34538,0
2668,34518,0
1912,34520,0
1083,34501,0
302,34543,0
0,34535,0
0,34522,0
0,34546,0
0,34539,0
0,34523,0
0,34551,0
30,34529,0
369,34522,0
760,34547,0
1280,34525,0
1788,34533,0
2220,34519,0
2540,34558,0
2660,34555,0
2602,34542,0
2344,34546,0
1893,34534,0
1324,34562,0
676,34549,0
20,34536,0
0,34540,0
0,34579,0
0,34565,0
0,34549,0
0,34568,0
0,34544,0
75,34572,0
422,34558,0
891,34556,0
1412,34553,0
1907,34581,0
2373,34585,0
2613,34562,0
2736,34574,0
2624,34565,0
2298,34555,0
1840,34565,0
1248,34576,0
585,34547,0
0,34583,0
0,34599,0
0,34572,0
0,34563,0
0,34557,0
0,34598,0
0,34593,0
140,34577,0
504,34577,0
998,34570,0
1504,34607,0
1972,34579,0
2424,34586,0
2676,34571,0
2792,34613,0
2677,34596,0
2336,34582,0
1848,34578,0
1225,34605,0
549,34609,0
0,34589,0
0,34598,0
0,34595,0
0,34601,0
0,34587,0
0,34589,0
0,34580,0
209,34620,0
602,34592,0
1112,34615,0
1640,34579,0
2136,34602,0
2530,34604,0
2796,34602,0
2824,34621,0
2686,34600,0
2332,34609,0
1820,34590,0
1201,34625,0
522,34594,0
0,34603,0
0,34598,0
0,34620,0
0,34631,0
0,34598,0
0,34617,0
0,34598,0
256,34631,0
675,34626,0
1208,34611,0
1754,34615,0
2260,34621,0
2661,34642,0
2884,34612,0
2896,34617,0
2732,34624,0
2348,34645,0
1808,34608,0
1164,34616,0
472,34608,0
0,34603,0
0,34626,0
0,34638,0
0,34621,0
0,34621,0
0,34637,0
0,34624,0
300,34625,0
725,34606,0
1244,34647,0
1784,34632,0
2272,34627,0
2648,34620,0
2848,34649,0
2872,34663,0
2665,34621,0
2276,34630,0
1724,34621,0
1080,34653,0
389,34634,0
0,34632,0
0,34627,0
0,34653,0
0,34657,0
0,34631,0
0,34629,0
46,34653,0
352,34651,0
848,34636,0
1378,34643,0
2388,34678,0
0,34665,0
0,34675,0
0,34675,0
134,34675,0
520,34675,0
1026,34675,0
1592,34675,0
2152,34675,0
2624,34651,0
2952,34651,0
3104,34651,0
3032,34651,0
2752,34651,0
2277,34651,0
1667,34651,0
971,34659,0
269,34659,0
0,34659,0
0,34659,0
0,34659,0
0,34659,0
0,34659,0
0,34558,0
177,34654,0
597,34654,0
1123,34654,0
1698,34654,0
2232,34654,0
2700,34654,0
3000,34578,0
3116,34681,0
3064,34681,0
2720,34572,0
2232,34581,0
1618,34584,0
940,34550,0
275,34539,0
0,34536,0
0,34560,0
0,34533,0
0,34528,0
0,34522,0
7,34544,0
305,34540,0
780,34495,0
1296,34502,0
1892,34475,0
2436,34515,0
2880,34480,0
3168,34470,0
3264,34463,0
3200,34488,0
2860,34487,0
2340,34454,0
1688,34454,0
970,34432,0
269,34454,0
0,34426,0
0,34421,0
836,34416,0
1406,34427,0
1994,34406,0
2540,34373,0
2976,34394,0
3248,34379,0
3320,34387,0
3168,34396,0
2816,34373,0
2289,34368,0
1637,34361,0
932,34379,0
244,34372,0
0,34346,0
0,34338,0
0,34316,0
0,34348,0
0,34327,0
65,34311,0
437,34310,0
948,34334,0
1545,34322,0
2160,34300,0
2712,34304,0
3140,34291,0
3392,34308,0
3442,34285,0
3232,34275,0
2841,34274,0
2284,34294,0
1612,34286,0
880,34257,0
188,34288,0
0,34250,0
0,34280,0
0,34275,0
0,34250,0
0,34226,0
118,34260,0
490,34245,0
1000,34235,0
1584,34226,0
2174,34250,0
2704,34260,0
3116,34227,0
3328,34218,0
3360,34205,0
3162,34243,0
2746,34236,0
2180,34223,0
1508,34210,0
790,34234,0
100,34240,0
0,34215,0
0,34209,0
0,34186,0
0,34234,0
0,34223,0
155,34222,0
572,34215,0
1082,34216,0
1722,34223,0
2313,34204,0
2872,34205,0
3212,34231,0
3410,34210,0
3400,34224,0
3164,34223,0
2728,34207,0
2152,34228,0
1456,34208,0
728,34212,0
60,34210,0
0,34226,0
0,34234,0
0,34209,0
0,34210,0
0,34199,0
212,34235,0
642,34222,0
1184,34212,0
1784,34218,0
2386,34240,0
2944,34253,0
3316,34221,0
3504,34220,0
3466,34205,0
3202,34236,0
2760,34233,0
2145,34217,0
1432,34231,0
706,34221,0
37,34248,0
0,34225,0
0,34227,0
0,34223,0
0,34242,0
0,34255,0
295,34268,0
754,34224,0
1325,34253,0
1928,34264,0
2536,34250,0
3064,34247,0
3392,34243,0
3536,34227,0
3476,34260,0
3200,34234,0
2716,34237,0
2096,34219,0
1380,34263,0
652,34257,0
9,34248,0
0,34246,0
0,34272,0
0,34262,0
0,34240,0
2,34248,0
332,34241,0
825,34262,0
1416,34259,0
2056,34250,0
2668,34249,0
3152,34262,0
3484,34287,0
3624,34248,0
3540,34261,0
3272,34234,0
2720,34266,0
2084,34259,0
1372,34261,0
648,34281,0
0,34296,0
0,34274,0
0,34253,0
0,34263,0
0,34235,0
84,34279,0
441,34277,0
964,34262,0
1572,34263,0
2232,34283,0
2804,34295,0
3288,34273,0
3600,34278,0
3704,34258,0
3608,34285,0
3312,34279,0
2778,34275,0
2106,34275,0
1357,34296,0
624,34308,0
0,34284,0
0,34291,0
0,34291,0
0,34315,0
0,34281,0
132,34303,0
512,34280,0
1050,34310,0
1680,34289,0
2312,34301,0
2904,34308,0
3376,34293,0
3664,34282,0
3752,34331,0
3616,34308,0
3260,34300,0
2712,34296,0
2046,34325,0
1294,34331,0
582,34293,0
0,34311,0
0,34290,0
0,34325,0
0,34313,0
0,34307,0
183,34310,0
600,34338,0
1168,34342,0
1827,34311,0
2480,34324,0
3076,34311,0
3524,34344,0
3808,34325,0
3866,34324,0
3688,34324,0
3264,34340,0
2704,34353,0
2008,34327,0
1258,34331,0
0,34366,0
0,34327,0
0,34337,0
0,34331,0
0,34344,0
243,34342,0
700,34328,0
1273,34351,0
1928,34365,0
2568,34337,0
3148,34344,0
3580,34320,0
3820,34360,0
3848,34339,0
3648,34336,0
3232,34338,0
2640,34372,0
1944,34376,0
1188,34350,0
466,34359,0
0,34336,0
0,34364,0
0,34350,0
0,34355,0
0,34346,0
286,34368,0
770,34380,0
1384,34349,0
2046,34360,0
2716,34339,0
3280,34381,0
3736,34367,0
3896,34366,0
3908,34362,0
3688,34347,0
3240,34362,0
2624,34382,0
1914,34370,0
1154,34356,0
436,34352,0
0,34383,0
0,34360,0
0,34361,0
0,34349,0
5,34382,0
336,34375,0
842,34356,0
1456,34365,0
2116,34346,0
2768,34367,0
3320,34352,0
3792,34353,0
3988,34347,0
3970,34376,0
3716,34378,0
3252,34359,0
2618,34353,0
1876,34341,0
1112,34369,0
408,34354,0
0,34353,0
0,34347,0
0,34370,0
0,34375,0
74,34349,0
437,34361,0
949,34349,0
1560,34359,0
2256,34326,0
2896,34370,0
3448,34347,0
3832,34348,0
3986,34340,0
3960,34368,0
3680,34366,0
3188,34342,0
2556,34347,0
1820,34333,0
1060,34372,0
380,34337,0
0,34339,0
0,34322,0
0,34369,0
0,34367,0
91,34337,0
499,34350,0
1064,34330,0
1738,34358,0
2422,34335,0
3072,34336,0
3610,34340,0
3936,34341,0
4064,34358,0
3996,34333,0
3689,34333,0
3208,34317,0
2506,34320,0
1754,34351,0
1004,34338,0
315,34337,0
0,34360,0
0,34329,0
0,34351,0
0,34346,0
158,34326,0
586,34333,0
1150,34317,0
1824,34349,0
2489,34325,0
3124,34331,0
3648,34326,0
3984,34333,0
4068,34346,0
3976,34320,0
3712,34329,0
3148,34312,0
2520,34344,0
1770,34348,0
994,34316,0
318,34318,0
0,34338,0
0,34340,0
0,34319,0
0,34324,0
204,34310,0
682,34345,0
1274,34335,0
1968,34320,0
2626,34337,0
3264,34320,0
3768,34335,0
4048,34321,0
4064,34324,0
4016,34318,0
3656,34302,0
3136,34344,0
2448,34327,0
1716,34321,0
979,34311,0
336,34348,0
0,34337,0
0,34320,0
0,34323,0
0,34330,0
307,34346,0
807,34319,0
1432,34318,0
2152,34322,0
2852,34348,0
3488,34340,0
3970,34328,0
4095,34320,0
4095,34340,0
4033,34344,0
3658,34317,0
3073,34333,0
2386,34313,0
1654,34344,0
910,34333,0
258,34324,0
0,34348,0
0,34344,0
0,34343,0
23,34331,0
356,34325,0
864,34336,0
1500,34331,0
2220,34314,0
2928,34351,0
3488,34344,0
3948,34341,0
4056,34339,0
4052,34353,0
3936,34363,0
3552,34337,0
2996,34336,0
2304,34324,0
1557,34365,0
824,34344,0
229,34347,0
0,34343,0
0,34371,0
0,34377,0
41,34343,0
422,34354,0
970,34336,0
1628,34373,0
2337,34361,0
3020,34356,0
3640,34345,0
4058,34376,0
4095,34389,0
4052,34373,0
3924,34366,0
3528,34377,0
2964,34337,0
2268,34390,0
1522,34383,0
809,34379,0
210,34371,0
0,34371,0
0,34368,0
0,34390,0
80,34381,0
488,34378,0
1041,34367,0
1704,34401,0
2408,34396,0
3096,34378,0
3672,34380,0
4056,34359,0
4095,34399,0
4095,34386,0
3952,34377,0
3522,34389,0
2928,34399,0
2213,34407,0
1456,34387,0
737,34393,0
152,34376,0
0,34401,0
0,34394,0
0,34385,0
128,34389,0
570,34415,0
1148,34387,0
1832,34407,0
2540,34388,0
3232,34389,0
3792,34399,0
4056,34375,0
4056,34421,0
4056,34418,0
3888,34396,0
3424,34397,0
2856,34380,0
2104,34408,0
1364,34403,0
664,34402,0
80,34399,0
0,34420,0
0,34422,0
0,34404,0
214,34405,0
662,34380,0
1284,34417,0
2008,34425,0
2778,34404,0
3476,34405,0
4064,34400,0
4095,34433,0
4084,34403,0
4085,34406,0
3988,34392,0
3620,34426,0
3152,34432,0
2497,34426,0
1856,34417,0
1284,34407,0
835,34407,0
588,34409,0
547,34416,0
764,34406,0
1308,34411,0
1829,34442,0
2552,34409,0
3364,34400,0
4064,34407,0
4072,34429,0
4072,34441,0
4072,34407,0
4072,34411,0
4080,34396,0
4064,34436,0
4052,34416,0
3920,34419,0
3608,34424,0
3104,34418,0
2560,34444,0
2060,34425,0
1668,34417,0
1428,34397,0
1388,34452,0
1524,34443,0
1840,34426,0
2291,34426,0
2800,34430,0
3808,34457,0
4064,34439,0
4080,34444,0
4056,34413,0
3984,34423,0
3656,34430,0
3144,34455,0
2512,34468,0
1785,34433,0
1100,34433,0
445,34434,0
0,34462,0
0,34447,0
0,34435,0
0,34438,0
320,34470,0
816,34475,0
1436,34451,0
2128,34455,0
2816,34434,0
3488,34471,0
3968,34457,0
4095,34451,0
4095,34454,0
4034,34447,0
3664,34471,0
3104,34458,0
2384,34452,0
1614,34435,0
893,34472,0
234,34459,0
0,34449,0
0,34457,0
0,34450,0
0,34464,0
288,34455,0
768,34478,0
1384,34452,0
2072,34461,0
2756,34457,0
3388,34481,0
3858,34460,0
4052,34458,0
4048,34437,0
3952,34474,0
3583,34476,0
3040,34464,0
2360,34460,0
1608,34467,0
873,34489,0
249,34457,0
0,34454,0
0,34438,0
0,34483,0
5,34474,0
359,34460,0
888,34472,0
1540,34461,0
2264,34484,0
2944,34460,0
3557,34456,0
4012,34445,0
4081,34475,0
4095,34479,0
3952,34466,0
3552,34485,0
3016,34460,0
2332,34472,0
1588,34460,0
875,34457,0
264,34469,0
0,34439,0
0,34478,0
0,34480,0
91,34461,0
472,34460,0
1028,34459,0
1688,34483,0
2400,34474,0
3127,34460,0
3728,34452,0
4095,34481,0
4060,34483,0
4095,34466,0
4024,34463,0
3632,34471,0
3056,34489,0
2374,34462,0
1620,34467,0
916,34444,0
312,34483,0
0,34465,0
0,34475,0
0,34466,0
160,34483,0
585,34494,0
1184,34454,0
1872,34459,0
2592,34473,0
3280,34492,0
3864,34463,0
4040,34462,0
4072,34475,0
4058,34455,0
3936,34485,0
3592,34472,0
2992,34458,0
2340,34463,0
1592,34469,0
908,34488,0
346,34455,0
0,34453,0
0,34439,0
0,34487,0
250,34461,0
716,34463,0
1352,34459,0
2072,34467,0
2828,34481,0
3528,34451,0
4088,34460,0
4095,34437,0
4095,34475,0
4080,34475,0
3972,34453,0
3584,34465,0
3020,34461,0
2368,34473,0
1620,34452,0
940,34465,0
391,34454,0
19,34451,0
0,34456,0
0,34468,0
291,34453,0
786,34452,0
1416,34447,0
2144,34472,0
2880,34483,0
3548,34458,0
4048,34459,0
4064,34434,0
4068,34467,0
4056,34470,0
3920,34458,0
3552,34445,0
2940,34453,0
2288,34475,0
1580,34443,0
904,34454,0
360,34432,0
14,34471,0
0,34474,0
16,34455,0
367,34451,0
898,34437,0
1536,34475,0
2296,34458,0
3041,34450,0
3760,34452,0
4056,34459,0
4095,34450,0
4056,34465,0
4056,34425,0
3904,34477,0
3500,34464,0
2932,34446,0
2249,34486,0
1556,34463,0
916,34468,0
406,34456,0
80,34481,0
0,34488,0
112,34459,0
478,34466,0
1012,34447,0
1688,34489,0
2416,34479,0
3156,34461,0
3808,34459,0
4095,34468,0
4095,34478,0
4095,34467,0
4095,34466,0
3952,34463,0
3522,34474,0
2944,34478,0
2228,34454,0
1524,34449,0
904,34430,0
400,34468,0
88,34445,0
38,34457,0
194,34448,0
576,34447,0
1125,34441,0
1808,34436,0
2536,34418,0
3272,34427,0
3904,34434,0
4095,34443,0
4060,34404,0
4064,34413,0
4056,34398,0
3864,34421,0
3424,34422,0
2850,34392,0
2186,34388,0
1500,34397,0
892,34409,0
428,34377,0
164,34374,0
102,34362,0
291,34376,0
713,34386,0
1296,34349,0
1994,34342,0
2764,34330,0
3496,34356,0
4064,34349,0
4090,34321,0
4082,34325,0
4094,34316,0
4095,34331,0
3856,34310,0
3428,34333,0
2848,34316,0
2180,34293,0
1510,34304,0
922,34287,0
472,34280,0
228,34257,0
205,34290,0
410,34282,0
829,34261,0
1408,34257,0
2096,34241,0
2824,34262,0
3536,34237,0
4080,34231,0
4064,34230,0
4064,34224,0
4064,34243,0
4048,34220,0
3880,34205,0
3408,34182,0
2816,34217,0
2128,34199,0
1452,34180,0
866,34179,0
424,34192,0
219,34195,0
208,34171,0
463,34168,0
900,34152,0
1505,34174,0
2172,34148,0
2912,34143,0
3600,34148,0
4058,34135,0
4068,34129,0
4064,34140,0
4056,34113,0
4040,34148,0
3768,34127,0
3296,34118,0
2704,34117,0
2028,34125,0
1356,34133,0
792,34094,0
402,34104,0
204,34080,0
238,34110,0
499,34098,0
960,34088,0
1572,34086,0
2312,34104,0
3060,34110,0
3761,34087,0
4095,34075,0
4095,34060,0
4095,34092,0
4095,34081,0
4072,34066,0
3777,34060,0
3304,34083,0
2688,34093,0
1356,34044,0
819,34080,0
440,34086,0
261,34057,0
316,34068,0
598,34042,0
1066,34075,0
1688,34082,0
2392,34054,0
3113,34052,0
3792,34041,0
4092,34065,0
4072,34040,0
4064,34045,0
4060,34042,0
4032,34064,0
3716,34069,0
3240,34051,0
2682,34053,0
1980,34034,0
1356,34063,0
823,34043,0
467,34042,0
322,34038,0
406,34048,0
716,34071,0
1218,34036,0
1853,34047,0
2576,34025,0
3292,34073,0
3952,34064,0
4095,34035,0
4080,34066,0
4084,34051,0
4064,34052,0
4012,34051,0
3696,34050,0
3198,34040,0
2592,34026,0
1944,34066,0
1324,34047,0
820,34034,0
504,34038,0
379,34046,0
488,34062,0
812,34038,0
1328,34042,0
1968,34029,0
2672,34048,0
3388,34062,0
4016,34039,0
4072,34053,0
4095,34038,0
4095,34071,0
4095,34043,0
4072,34058,0
3744,34040,0
3248,34062,0
2632,34068,0
1968,34050,0
1346,34057,0
887,34044,0
580,34074,0
481,34068,0
618,34066,0
948,34055,0
1488,34078,0
2108,34065,0
2816,34097,0
3520,34069,0
4064,34065,0
4072,34067,0
4068,34089,0
4064,34093,0
4072,34065,0
3984,34071,0
3652,34055,0
3152,34089,0
2552,34069,0
1920,34065,0
1328,34063,0
878,34092,0
597,34095,0
544,34079,0
678,34087,0
1064,34062,0
1604,34100,0
2268,34078,0
2992,34079,0
3712,34089,0
4095,34101,0
4095,34122,0
4095,34091,0
4095,34089,0
4088,34079,0
4052,34121,0
3644,34100,0
3156,34111,0
2536,34110,0
1908,34115,0
1338,34101,0
899,34127,0
644,34107,0
602,34101,0
765,34100,0
1136,34124,0
1700,34100,0
2336,34109,0
3044,34107,0
3732,34120,0
4064,34144,0
4072,34119,0
4095,34124,0
4064,34108,0
4095,34139,0
3944,34151,0
3664,34112,0
3120,34122,0
2488,34129,0
1856,34147,0
1286,34122,0
860,34125,0
622,34113,0
620,34152,0
806,34153,0
1257,34132,0
1808,34138,0
2496,34135,0
3164,34148,0
3832,34144,0
4064,34144,0
4058,34141,0
4084,34164,0
4068,34132,0
4056,34166,0
3936,34151,0
3560,34146,0
3048,34146,0
2468,34141,0
1820,34165,0
1285,34144,0
882,34138,0
674,34142,0
684,34167,0
906,34177,0
1324,34149,0
1896,34162,0
2564,34138,0
3316,34180,0
3992,34170,0
4095,34157,0
4095,34161,0
4095,34146,0
4095,34179,0
4095,34161,0
3952,34153,0
3552,34147,0
3036,34174,0
2424,34183,0
1828,34150,0
1288,34185,0
873,34163,0
732,34173,0
757,34164,0
996,34163,0
1432,34153,0
2017,34145,0
2684,34182,0
3376,34168,0
4012,34157,0
4072,34154,0
4064,34167,0
4068,34181,0
4064,34163,0
4048,34158,0
3900,34142,0
3498,34181,0
2968,34180,0
2368,34153,0
1778,34169,0
1266,34158,0
916,34172,0
750,34156,0
810,34158,0
1088,34144,0
1556,34175,0
2154,34183,0
2824,34145,0
3520,34151,0
4088,34129,0
4093,34170,0
4095,34158,0
4064,34151,0
4095,34125,0
4056,34151,0
3872,34172,0
3464,34147,0
2932,34155,0
2332,34148,0
1740,34136,0
1252,34162,0
914,34138,0
790,34140,0
870,34132,0
1161,34154,0
1636,34161,0
2224,34142,0
2904,34128,0
3612,34118,0
4064,34155,0
4072,34146,0
4072,34129,0
4095,34133,0
4095,34136,0
4095,34148,0
3912,34119,0
3490,34125,0
2944,34100,0
2336,34143,0
1741,34120,0
1228,34119,0
948,34113,0
834,34134,0
932,34138,0
1240,34123,0
1720,34103,0
2336,34119,0
3000,34120,0
3680,34145,0
4064,34120,0
4072,34137,0
4064,34111,0
4072,34113,0
4064,34104,0
4032,34127,0
3816,34122,0
3392,34096,0
2848,34103,0
2248,34092,0
1696,34127,0
1230,34115,0
944,34113,0
858,34096,0
986,34093,0
1328,34112,0
1840,34097,0
2480,34102,0
3184,34086,0
3872,34121,0
4095,34129,0
4095,34103,0
4095,34103,0
4095,34086,0
4085,34128,0
4069,34112,0
3880,34111,0
3384,34110,0
2848,34119,0
2256,34120,0
1737,34112,0
1278,34122,0
1017,34108,0
960,34110,0
1108,34097,0
1457,34124,0
1972,34134,0
2600,34103,0
3284,34111,0
3936,34081,0
4064,34137,0
4068,34134,0
4064,34107,0
4064,34114,0
4064,34099,0
4028,34136,0
3768,34111,0
3324,34108,0
2816,34106,0
2216,34127,0
1660,34144,0
1232,34113,0
978,34107,0
932,34090,0
1112,34128,0
1464,34135,0
2016,34107,0
2641,34118,0
3964,34162,0
4064,34122,0
4072,34097,0
4066,34114,0
4064,34129,0
4095,34141,0
4008,34100,0
3752,34123,0
3256,34104,0
2726,34146,0
2105,34137,0
1588,34130,0
1180,34122,0
957,34115,0
938,34148,0
1138,34125,0
1524,34120,0
2072,34130,0
2712,34134,0
3400,34152,0
4095,34134,0
4095,34134,0
4095,34120,0
4095,34158,0
4095,34157,0
4095,34132,0
4068,34139,0
3712,34130,0
3232,34160,0
2664,34144,0
2060,34140,0
1544,34125,0
1152,34162,0
952,34142,0
964,34169,0
1182,34156,0
1592,34145,0
2148,34148,0
2800,34170,0
3468,34184,0
4052,34147,0
4068,34161,0
4080,34141,0
4064,34183,0
4068,34175,0
4056,34154,0
3956,34169,0
3604,34153,0
3120,34189,0
2540,34163,0
1960,34165,0
1444,34159,0
1088,34196,0
916,34190,0
951,34171,0
1208,34177,0
1650,34175,0
2244,34195,0
2924,34173,0
3592,34163,0
4088,34172,0
4095,34194,0
4092,34200,0
4095,34182,0
4064,34166,0
4094,34188,0
3928,34201,0
3604,34190,0
3070,34195,0
2484,34187,0
1896,34181,0
1388,34209,0
1037,34218,0
880,34192,0
932,34185,0
1200,34170,0
1656,34212,0
2252,34207,0
2948,34193,0
3652,34201,0
4068,34189,0
4072,34226,0
4072,34199,0
4072,34205,0
4064,34202,0
4095,34221,0
4058,34221,0
3754,34201,0
3296,34209,0
2776,34189,0
2256,34228,0
1828,34230,0
1552,34201,0
1536,34206,0
1675,34225,0
2073,34240,0
2592,34205,0
3276,34197,0
4008,34223,0
4072,34231,0
4080,34227,0
4074,34218,0
4072,34222,0
4072,34192,0
4080,34237,0
4072,34219,0
4068,34214,0
4056,34217,0
4056,34238,0
3976,34239,0
3760,34220,0
3512,34220,0
3300,34208,0
3152,34241,0
3128,34235,0
3248,34226,0
3460,34229,0
3840,34225,0
4095,34245,0
4095,34223,0
4095,34223,0
4095,34220,0
4095,34245,0
4094,34252,0
4080,34228,0
3998,34225,0
3672,34219,0
3224,34250,0
2592,34230,0
1992,34223,0
1405,34247,0
968,34240,0
692,34234,0
629,34234,0
758,34235,0
1110,34219,0
1609,34254,0
2240,34248,0
2924,34238,0
3615,34239,0
4060,34233,0
4095,34253,0
4064,34232,0
4094,34247,0
4060,34240,0
3960,34247,0
3532,34249,0
2984,34243,0
2356,34245,0
1722,34230,0
1120,34264,0
654,34266,0
384,34235,0
336,34244,0
525,34226,0
925,34263,0
1486,34262,0
2180,34247,0
2906,34257,0
3656,34238,0
4072,34271,0
4072,34291,0
4072,34240,0
4064,34256,0
4048,34250,0
3936,34281,0
3548,34258,0
3008,34257,0
2380,34239,0
1732,34273,0
1164,34264,0
734,34261,0
498,34274,0
474,34254,0
676,34278,0
1080,34262,0
1652,34263,0
2324,34259,0
3048,34277,0
3736,34288,0
4095,34272,0
4095,34266,0
4095,34248,0
4095,34294,0
4095,34275,0
4024,34270,0
3641,34264,0
3096,34292,0
2480,34299,0
1865,34273,0
1321,34285,0
880,34265,0
664,34301,0
660,34281,0
889,34307,0
1298,34273,0
1860,34276,0
2532,34273,0
3240,34283,0
3920,34297,0
4072,34287,0
4064,34277,0
4062,34260,0
4064,34304,0
4052,34298,0
3928,34278,0
3548,34276,0
3032,34268,0
2422,34311,0
1824,34282,0
1290,34275,0
917,34276,0
728,34304,0
752,34300,0
1009,34281,0
1440,34284,0
2048,34264,0
2738,34313,0
3464,34296,0
4064,34277,0
4095,34283,0
4092,34292,0
4092,34312,0
4095,34289,0
4056,34308,0
3924,34295,0
3544,34291,0
3040,34312,0
2424,34296,0
1844,34291,0
1320,34288,0
972,34309,0
802,34290,0
852,34292,0
1116,34293,0
1557,34307,0
2152,34321,0
2824,34299,0
3520,34290,0
4064,34282,0
4095,34317,0
4072,34321,0
4095,34293,0
4056,34298,0
4095,34293,0
3984,34318,0
3600,34302,0
3082,34307,0
2480,34295,0
1869,34318,0
1366,34324,0
1036,34305,0
856,34303,0
951,34284,0
1244,34326,0
1708,34313,0
2282,34299,0
2952,34308,0
3648,34311,0
4064,34318,0
4064,34313,0
4076,34334,0
4064,34314,0
4056,34311,0
4052,34298,0
3912,34324,0
3524,34328,0
3004,34312,0
2428,34309,0
1846,34306,0
1378,34334,0
1066,34319,0
944,34313,0
1048,34303,0
1328,34327,0
1800,34339,0
2410,34312,0
3128,34318,0
3824,34301,0
4095,34336,0
4095,34343,0
4095,34320,0
4095,34323,0
4089,34310,0
4057,34348,0
3908,34324,0
3512,34325,0
2400,34310,0
1837,34323,0
1388,34339,0
1096,34336,0
992,34312,0
1106,34327,0
1424,34319,0
1912,34321,0
2522,34328,0
3196,34349,0
3864,34331,0
4064,34323,0
4072,34312,0
4064,34344,0
4068,34343,0
4064,34320,0
4048,34329,0
3840,34304,0
3440,34340,0
2912,34344,0
2360,34327,0
1808,34322,0
1350,34313,0
1072,34333,0
1006,34321,0
1156,34316,0
1505,34308,0
2004,34301,0
2634,34320,0
3316,34297,0
3968,34299,0
4095,34277,0
4064,34310,0
4056,34310,0
4068,34290,0
4060,34308,0
4032,34282,0
3872,34270,0
3404,34295,0
2888,34309,0
2288,34268,0
1760,34269,0
1328,34243,0
1082,34280,0
1040,34267,0
1204,34255,0
1528,34246,0
2066,34247,0
2708,34258,0
3396,34221,0
4024,34234,0
4072,34218,0
4072,34239,0
4095,34249,0
4095,34209,0
4095,34211,0
4095,34185,0
3880,34224,0
3480,34199,0
2884,34186,0
2320,34180,0
1796,34162,0
1394,34191,0
1152,34169,0
1124,34175,0
1318,34162,0
1680,34153,0
2202,34161,0
2820,34133,0
3504,34131,0
4052,34108,0
4060,34145,0
4064,34129,0
4064,34112,0
4072,34109,0
4095,34091,0
4024,34113,0
3792,34081,0
3316,34085,0
2800,34074,0
2208,34083,0
1704,34101,0
1312,34065,0
1112,34057,0
1100,34034,0
1324,34064,0
1723,34059,0
2277,34035,0
2944,34037,0
3624,34018,0
4095,34043,0
4095,34034,0
4095,34013,0
4095,34016,0
4094,34004,0
4095,34020,0
4008,34003,0
3700,33990,0
3248,33991,0
2706,33993,0
2136,33981,0
1628,33996,0
1270,33994,0
1088,33972,0
1106,33965,0
1345,33940,0
1762,33974,0
2338,33963,0
2972,33949,0
3696,33959,0
4056,33954,0
4095,33965,0
4068,33944,0
4095,33934,0
4064,33935,0
4068,33952,0
3992,33961,0
3736,33929,0
3248,33944,0
2688,33923,0
2130,33955,0
1626,33943,0
1272,33934,0
1110,33936,0
1136,33908,0
1421,33945,0
1845,33937,0
2432,33929,0
3064,33921,0
3728,33930,0
4072,33931,0
4064,33952,0
4068,33933,0
4064,33953,0
4068,33926,0
4052,33928,0
3952,33906,0
3632,33946,0
3152,33924,0
2607,33917,0
2040,33924,0
1570,33949,0
1242,33947,0
1093,33920,0
1162,33926,0
1441,33899,0
1904,33953,0
2480,33934,0
3136,33924,0
3872,33927,0
4095,33914,0
4095,33951,0
4095,33934,0
4095,33926,0
4095,33929,0
4080,33950,0
3980,33959,0
3648,33935,0
3137,33929,0
2592,33914,0
2020,33919,0
1569,33935,0
1260,33960,0
1158,33943,0
1242,33964,0
1539,33935,0
1996,33937,0
2584,33934,0
3252,33964,0
3900,33938,0
4056,33947,0
4095,33929,0
4072,33968,0
4095,33961,0
4072,33940,0
4092,33952,0
3928,33937,0
3600,33963,0
3064,33952,0
2504,33949,0
1970,33941,0
1540,33974,0
1248,33968,0
1156,33945,0
1275,33944,0
1602,33938,0
2092,33989,0
2688,33954,0
3352,33957,0
4009,33962,0
4095,33985,0
4095,33987,0
4080,33980,0
4064,33955,0
4068,33990,0
4056,33981,0
3880,33982,0
3496,33974,0
3000,33976,0
2440,33997,0
1900,33965,0
1488,33986,0
1226,33957,0
1162,33995,0
1300,33987,0
1658,33982,0
2152,33985,0
2788,33976,0
3412,34005,0
4072,33983,0
4072,33990,0
4064,33983,0
4068,34012,0
4095,34023,0
4095,33984,0
4095,34004,0
3912,33988,0
3494,34015,0
2948,33999,0
2368,34012,0
1819,34012,0
1436,34016,0
1202,34038,0
1160,34013,0
1330,34016,0
1681,34021,0
2202,34035,0
2824,34027,0
3504,34034,0
4056,34021,0
4064,34019,0
4072,34039,0
4072,34044,0
4068,34038,0
4056,34036,0
4049,34025,0
3808,34056,0
3441,34037,0
2868,34032,0
2328,34027,0
1796,34054,0
1412,34075,0
1189,34040,0
1168,34051,0
1354,34035,0
1754,34067,0
2298,34055,0
2944,34059,0
3620,34047,0
4095,34054,0
4095,34080,0
4092,34056,0
4080,34052,0
4095,34036,0
4085,34081,0
4092,34081,0
3784,34055,0
3360,34061,0
2824,34068,0
2276,34043,0
1769,34050,0
1406,34083,0
1204,34071,0
1212,34068,0
1424,34058,0
1824,34103,0
2356,34098,0
3020,34070,0
3672,34074,0
4095,34054,0
4064,34088,0
4095,34073,0
4048,34075,0
4095,34078,0
4057,34090,0
4024,34101,0
3760,34072,0
3384,34076,0
2836,34067,0
2280,34095,0
1793,34077,0
1428,34076,0
1248,34072,0
1280,34100,0
1513,34104,0
1940,34083,0
2483,34080,0
3772,34090,0
4064,34086,0
4072,34093,0
4072,34088,0
4080,34085,0
4064,34097,0
4064,34084,0
4016,34082,0
3720,34084,0
3272,34108,0
2740,34084,0
2212,34096,0
1732,34072,0
1412,34102,0
1252,34103,0
1304,34079,0
1556,34080,0
1984,34058,0
2546,34109,0
3192,34090,0
3908,34082,0
4095,34084,0
4095,34089,0
4095,34102,0
4095,34073,0
4095,34084,0
4095,34062,0
4010,34095,0
3692,34079,0
3226,34081,0
2682,34069,0
2160,34088,0
1666,34090,0
1356,34075,0
1230,34053,0
1304,34069,0
1578,34082,0
2028,34079,0
2608,34090,0
3256,34061,0
3908,34068,0
4064,34045,0
4072,34087,0
4095,34063,0
4064,34057,0
4095,34066,0
4056,34069,0
4000,34094,0
3604,34067,0
3144,34068,0
2576,34058,0
2064,34080,0
1588,34089,0
1304,34064,0
1203,34068,0
1300,34047,0
1616,34088,0
2096,34066,0
2700,34069,0
3328,34069,0
3984,34084,0
4088,34087,0
4095,34068,0
4095,34066,0
4072,34092,0
4060,34083,0
4048,34063,0
3916,34060,0
3544,34081,0
3041,34072,0
2482,34071,0
1948,34087,0
1528,34099,0
1258,34076,0
1172,34076,0
1311,34058,0
1628,34090,0
2132,34076,0
2704,34055,0
3408,34072,0
4004,34063,0
4095,34097,0
4080,34066,0
4072,34083,0
4072,34059,0
4095,34089,0
4095,34096,0
3924,34076,0
3528,34079,0
3000,34067,0
2432,34094,0
1884,34081,0
1445,34084,0
1233,34068,0
1164,34101,0
1308,34101,0
1660,34078,0
2160,34093,0
2784,34082,0
3440,34070,0
4040,34079,0
4068,34110,0
4072,34085,0
4064,34091,0
4068,34058,0
4060,34096,0
4048,34086,0
3884,34078,0
3456,34085,0
2992,34098,0
2408,34108,0
1904,34083,0
1504,34079,0
1284,34061,0
1245,34103,0
1424,34110,0
1784,34089,0
2320,34092,0
2952,34084,0
3624,34099,0
4095,34091,0
4095,34088,0
4095,34074,0
4092,34090,0
4095,34107,0
4089,34088,0
4064,34093,0
3848,34079,0
3360,34097,0
2818,34097,0
2248,34085,0
1746,34104,0
1361,34106,0
1152,34085,0
1134,34109,0
1338,34121,0
1716,34095,0
2245,34098,0
2868,34076,0
3564,34120,0
4064,34124,0
4095,34097,0
4072,34102,0
4095,34096,0
4064,34130,0
4092,34108,0
4016,34106,0
3706,34100,0
3242,34134,0
2732,34140,0
2154,34108,0
1634,34115,0
1264,34096,0
1080,34135,0
1080,34115,0
1320,34117,0
1737,34120,0
2292,34130,0
2938,34142,0
3656,34121,0
4064,34139,0
4068,34124,0
4072,34138,0
4068,34138,0
4064,34152,0
4060,34130,0
3988,34124,0
3672,34128,0
3188,34146,0
2620,34161,0
2056,34133,0
1566,34123,0
1220,34127,0
1052,34156,0
1096,34141,0
1340,34140,0
1772,34124,0
2372,34163,0
2984,34145,0
3656,34137,0
4056,34145,0
4095,34155,0
4095,34164,0
4095,34144,0
4095,34152,0
4095,34128,0
4032,34167,0
3648,34166,0
3157,34156,0
2597,34151,0
2027,34165,0
1544,34175,0
1192,34177,0
1014,34168,0
1096,34161,0
1370,34170,0
1808,34171,0
2372,34195,0
3028,34173,0
3706,34164,0
4064,34167,0
4064,34185,0
4072,34192,0
4089,34171,0
4064,34175,0
4095,34183,0
3880,34201,0
3536,34174,0
2984,34179,0
2416,34161,0
1828,34192,0
1352,34205,0
1029,34185,0
905,34185,0
1000,34159,0
1296,34209,0
1805,34199,0
2425,34191,0
3130,34180,0
3808,34212,0
4088,34210,0
4095,34188,0
4095,34196,0
4095,34186,0
4080,34214,0
4056,34217,0
4000,34201,0
3676,34222,0
3242,34210,0
2734,34218,0
2256,34226,0
1876,34200,0
1653,34198,0
1648,34197,0
1856,34226,0
2268,34210,0
2820,34205,0
3572,34215,0
4080,34231,0
4076,34232,0
4080,34212,0
4072,34220,0
4076,34196,0
4072,34247,0
4072,34230,0
4095,34224,0
4095,34236,0
4095,34209,0
4095,34246,0
4095,34212,0
3988,34233,0
3760,34209,0
3592,34240,0
3514,34255,0
3480,34225,0
3624,34232,0
3760,34230,0
4000,34233,0
4064,34245,0
4064,34227,0
4072,34229,0
4064,34220,0
4068,34241,0
4072,34241,0
4040,34226,0
3834,34234,0
3424,34213,0
2901,34246,0
2264,34241,0
1649,34230,0
1084,34227,0
660,34233,0
445,34246,0
425,34233,0
617,34233,0
1023,34217,0
1584,34259,0
2268,34258,0
2980,34226,0
3674,34232,0
4095,34232,0
4095,34251,0
4095,34228,0
4084,34238,0
4084,34224,0
3838,34255,0
3380,34263,0
2104,34274,0
1448,34247,0
868,34249,0
444,34248,0
228,34261,0
220,34272,0
456,34231,0
887,34254,0
1474,34220,0
2164,34256,0
2828,34256,0
3608,34249,0
4058,34248,0
4072,34237,0
4066,34265,0
4064,34250,0
4048,34244,0
3812,34230,0
3380,34264,0
2792,34272,0
2192,34254,0
1490,34251,0
916,34245,0
507,34270,0
291,34242,0
312,34260,0
564,34237,0
1016,34269,0
1596,34267,0
2308,34252,0
3056,34259,0
3784,34271,0
4068,34274,0
4076,34264,0
4048,34291,0
4056,34285,0
4052,34255,0
3824,34270,0
3360,34264,0
2772,34257,0
2124,34289,0
1481,34284,0
944,34272,0
569,34267,0
386,34255,0
446,34299,0
712,34269,0
1170,34268,0
1784,34265,0
2472,34286,0
3208,34298,0
3876,34276,0
4095,34279,0
4095,34256,0
4095,34294,0
4095,34295,0
4095,34276,0
3872,34275,0
3420,34273,0
2816,34299,0
2176,34280,0
1555,34277,0
1036,34267,0
672,34302,0
520,34279,0
592,34266,0
869,34272,0
1339,34301,0
1952,34287,0
2640,34305,0
3348,34281,0
3992,34277,0
4072,34271,0
4064,34298,0
4064,34305,0
4056,34280,0
4042,34282,0
3800,34280,0
3354,34295,0
2792,34286,0
2160,34287,0
1552,34278,0
1050,34305,0
725,34314,0
580,34285,0
674,34288,0
984,34272,0
1472,34298,0
2112,34295,0
2816,34295,0
3541,34281,0
4082,34280,0
4095,34309,0
4090,34292,0
4095,34286,0
4095,34278,0
4032,34286,0
3768,34300,0
3320,34309,0
2744,34297,0
2120,34318,0
1528,34302,0
1044,34283,0
744,34287,0
636,34287,0
731,34305,0
1076,34283,0
1576,34285,0
2196,34283,0
2900,34311,0
3635,34314,0
4064,34288,0
4080,34290,0
4072,34271,0
4068,34309,0
4064,34285,0
4095,34289,0
3809,34290,0
3336,34311,0
2756,34315,0
2113,34290,0
1524,34292,0
1062,34283,0
772,34318,0
695,34311,0
840,34287,0
1176,34295,0
1698,34302,0
2300,34296,0
3000,34307,0
3688,34317,0
4064,34301,0
4064,34294,0
4064,34304,0
4064,34285,0
4064,34318,0
4016,34323,0
3708,34298,0
3232,34301,0
2640,34282,0
2047,34330,0
1456,34326,0
1018,34305,0
762,34294,0
700,34311,0
866,34325,0
1224,34299,0
1752,34297,0
2432,34301,0
3136,34321,0
3824,34320,0
4095,34286,0
4095,34296,0
4095,34279,0
4095,34308,0
4088,34291,0
4016,34292,0
3680,34276,0
3186,34302,0
2616,34303,0
1972,34265,0
1416,34295,0
981,34294,0
749,34280,0
718,34260,0
910,34259,0
1288,34267,0
1840,34249,0
2488,34281,0
3180,34252,0
3852,34247,0
4072,34241,0
4068,34247,0
4076,34245,0
4072,34209,0
4064,34220,0
3964,34195,0
3616,34225,0
3112,34207,0
2520,34194,0
1904,34189,0
1372,34213,0
968,34216,0
758,34174,0
742,34172,0
963,34142,0
1386,34180,0
1954,34164,0
2624,34158,0
3348,34143,0
3984,34158,0
4095,34155,0
4072,34121,0
4068,34113,0
4068,34145,0
4056,34122,0
3964,34105,0
3600,34102,0
3104,34092,0
2528,34087,0
1912,34101,0
1420,34100,0
1022,34065,0
826,34062,0
858,34032,0
1077,34072,0
1505,34055,0
2072,34039,0
2729,34043,0
3432,34033,0
4048,34041,0
4064,34015,0
4095,34020,0
4095,33999,0
4095,34024,0
4095,34017,0
4000,33984,0
3610,34002,0
3104,33981,0
2468,33999,0
1862,33974,0
1364,33972,0
993,33950,0
812,33983,0
853,33957,0
1104,33960,0
1538,33946,0
2104,33914,0
2772,33946,0
3456,33934,0
4048,33915,0
4095,33940,0
4064,33910,0
4064,33906,0
4064,33903,0
4048,33909,0
3864,33933,0
3460,33892,0
2920,33903,0
2320,33869,0
1728,33908,0
1225,33888,0
886,33879,0
736,33883,0
800,33859,0
1096,33889,0
1568,33870,0
2176,33856,0
2869,33854,0
3568,33855,0
4095,33876,0
4095,33855,0
4095,33848,0
4088,33832,0
4088,33857,0
4095,33863,0
3824,33847,0
3392,33832,0
2836,33855,0
2225,33839,0
1632,33837,0
1144,33804,0
816,33842,0
692,33862,0
788,33834,0
1084,33835,0
1564,33828,0
2178,33849,0
2848,33819,0
3544,33827,0
4060,33815,0
4064,33855,0
4064,33853,0
4064,33828,0
4064,33830,0
4032,33800,0
3764,33853,0
3368,33835,0
2784,33822,0
2144,33830,0
1541,33831,0
1062,33849,0
764,33820,0
665,33821,0
770,33810,0
1132,33844,0
1613,33863,0
2924,33896,0
3600,33848,0
4064,33838,0
4064,33827,0
4068,33807,0
4068,33820,0
4064,33854,0
4016,33855,0
3704,33843,0
3218,33843,0
2628,33823,0
2012,33868,0
1433,33840,0
972,33839,0
700,33849,0
628,33867,0
778,33867,0
1130,33843,0
1656,33847,0
2288,33855,0
3028,33871,0
3736,33880,0
4095,33857,0
4095,33858,0
4095,33843,0
4095,33876,0
4095,33881,0
4016,33861,0
3668,33872,0
3188,33842,0
2576,33884,0
1962,33871,0
1373,33896,0
936,33873,0
681,33870,0
642,33895,0
811,33884,0
1180,33879,0
1720,33871,0
2362,33865,0
3064,33866,0
3760,33865,0
4072,33892,0
4064,33876,0
4072,33877,0
4056,33877,0
4056,33885,0
3968,33906,0
3608,33881,0
3100,33889,0
2494,33876,0
1866,33902,0
1302,33912,0
896,33888,0
667,33891,0
642,33891,0
848,33916,0
1260,33901,0
1825,33891,0
2476,33890,0
3188,33903,0
3864,33918,0
4095,33893,0
4095,33903,0
4064,33919,0
4095,33895,0
4056,33892,0
3928,33900,0
3544,33909,0
3008,33916,0
2388,33905,0
1764,33896,0
1218,33912,0
820,33930,0
616,33907,0
618,33905,0
842,33904,0
1256,33941,0
1824,33940,0
2496,33909,0
3200,33918,0
3864,33909,0
4072,33939,0
4064,33944,0
4095,33916,0
4095,33920,0
4095,33919,0
3946,33949,0
3529,33930,0
2976,33937,0
2340,33918,0
1697,33957,0
1134,33972,0
776,33934,0
586,33937,0
616,33930,0
862,33940,0
1297,33940,0
1882,33934,0
2558,33944,0
3252,33927,0
3908,33950,0
4064,33938,0
4064,33966,0
4072,33962,0
4068,33953,0
4052,33952,0
3828,33968,0
3396,33979,0
2832,33958,0
2188,33964,0
1588,33944,0
1056,33979,0
706,33991,0
548,33963,0
608,33966,0
874,33951,0
1349,33988,0
1961,33976,0
2660,33970,0
3392,33961,0
4053,33954,0
4095,33988,0
4088,33976,0
4095,33979,0
4084,33966,0
4064,33987,0
3872,33992,0
3364,33943,0
2800,33970,0
2176,33974,0
1548,33977,0
1056,33997,0
720,33996,0
576,33973,0
654,33974,0
964,33969,0
1448,33995,0
2056,33992,0
2737,33983,0
3444,33986,0
4040,33995,0
4068,34012,0
4064,33984,0
4068,33989,0
4072,33972,0
4034,34011,0
3792,34003,0
3308,33984,0
2752,33989,0
2112,34000,0
1512,34019,0
1005,33981,0
690,33999,0
568,33975,0
691,34002,0
998,34006,0
1523,33984,0
2132,33993,0
2848,33976,0
3506,33997,0
4056,33988,0
4072,34002,0
4064,33991,0
4072,33989,0
4064,33979,0
4040,33980,0
3716,33963,0
3252,33999,0
2624,33982,0
2008,33981,0
1398,33975,0
936,34000,0
645,34001,0
562,33980,0
696,33977,0
1034,33955,0
1554,33990,0
2186,33983,0
2898,33969,0
3664,33969,0
4095,33981,0
4095,33989,0
4095,33973,0
4095,33963,0
4095,33956,0
4056,33993,0
3680,33991,0
3186,33968,0
2576,33967,0
1937,33960,0
1360,33985,0
898,33937,0
632,33977,0
568,33996,0
730,33970,0
1098,33977,0
1633,33966,0
2280,33965,0
2970,33995,0
3668,33968,0
4064,33981,0
4064,33955,0
4068,33986,0
4064,33993,0
4056,33974,0
3956,33969,0
3592,33952,0
3068,33995,0
2452,33982,0
1818,33972,0
1248,33972,0
820,33977,0
562,34001,0
533,33977,0
726,33984,0
1118,33973,0
1676,33998,0
2357,34008,0
3056,33983,0
3729,33987,0
4095,33972,0
4095,34003,0
4095,34000,0
4048,33966,0
4064,33987,0
3920,33990,0
3540,33995,0
3008,33998,0
2392,33983,0
1769,33987,0
1218,33976,0
818,34006,0
597,34006,0
595,33985,0
806,33987,0
1218,33975,0
1784,34004,0
2468,33987,0
3148,33992,0
3816,33985,0
4068,33984,0
4088,34009,0
4072,33989,0
4095,33992,0
4095,33988,0
3956,34010,0
3560,34015,0
2988,33992,0
2370,33989,0
1692,33982,0
1140,34010,0
748,33998,0
558,33994,0
552,33990,0
792,34004,0
1220,34023,0
1800,33989,0
2464,33989,0
3168,34011,0
3832,34002,0
4095,33998,0
4072,33977,0
4072,34022,0
4064,34014,0
4024,33991,0
3816,33994,0
3384,33980,0
2800,34019,0
2156,33997,0
1534,34001,0
998,33998,0
629,33999,0
452,34020,0
500,34001,0
762,33991,0
1221,33989,0
1828,34019,0
2530,34033,0
3256,34006,0
3936,34015,0
4095,33992,0
4095,34036,0
4092,34013,0
4095,34012,0
4068,34004,0
3802,34027,0
3376,34036,0
2728,34062,0
2092,34030,0
1458,34023,0
930,34009,0
578,34021,0
432,34017,0
496,34018,0
780,34009,0
1258,34043,0
1858,34053,0
2552,34027,0
3260,34031,0
3912,34009,0
4080,34056,0
4058,34048,0
4072,34025,0
4068,34036,0
4004,34025,0
3706,34052,0
3224,34029,0
2620,34041,0
1992,34025,0
1352,34060,0
860,34057,0
504,34036,0
387,34041,0
492,34018,0
819,34068,0
1290,34051,0
1942,34039,0
2640,34049,0
3392,34051,0
3968,34062,0
4072,34036,0
4064,34048,0
4064,34063,0
4060,34069,0
3992,34071,0
3648,34071,0
3140,34045,0
2524,34047,0
1864,34060,0
1244,34073,0
749,34052,0
439,34061,0
336,34047,0
469,34067,0
790,34085,0
1297,34056,0
1932,34068,0
2628,34032,0
3345,34077,0
4048,34054,0
4095,34070,0
4095,34056,0
4095,34084,0
4095,34093,0
4080,34061,0
3768,34074,0
3248,34053,0
2664,34094,0
2064,34068,0
1482,34071,0
1044,34070,0
792,34085,0
767,34103,0
968,34084,0
1396,34069,0
1996,34079,0
2730,34087,0
3540,34067,0
4095,34106,0
4068,34079,0
4072,34079,0
4072,34093,0
4080,34099,0
4080,34107,0
4068,34089,0
4058,34096,0
4064,34078,0
4012,34115,0
3816,34099,0
3544,34089,0
3296,34092,0
3112,34104,0
3048,34126,0
3104,34100,0
3268,34099,0
3536,34084,0
3880,34110,0
4095,34118,0
4094,34106,0
4095,34096,0
4092,34084,0
4092,34112,0
4095,34120,0
4040,34111,0
3800,34121,0
3356,34089,0
2772,34118,0
2120,34104,0
1462,34118,0
876,34122,0
454,34101,0
200,34105,0
171,34087,0
363,34116,0
749,34104,0
1288,34099,0
1936,34096,0
2624,34094,0
3292,34118,0
3856,34094,0
4056,34109,0
4064,34097,0
4052,34121,0
3944,34133,0
3624,34102,0
3056,34112,0
2348,34087,0
1601,34127,0
882,34130,0
280,34104,0
0,34119,0
0,34075,0
0,34123,0
123,34118,0
513,34096,0
1097,34116,0
1752,34120,0
2472,34105,0
3156,34129,0
3748,34101,0
4064,34100,0
4064,34115,0
4048,34102,0
3936,34127,0
3544,34132,0
2972,34104,0
2288,34117,0
1556,34089,0
860,34142,0
289,34114,0
0,34116,0
0,34111,0
0,34108,0
185,34140,0
617,34111,0
1209,34120,0
1914,34113,0
2644,34096,0
3349,34134,0
3944,34122,0
4095,34106,0
4095,34121,0
4084,34093,0
3950,34136,0
3560,34121,0
2984,34118,0
2320,34113,0
1564,34142,0
889,34118,0
333,34136,0
0,34121,0
0,34132,0
0,34111,0
262,34107,0
730,34139,0
1344,34105,0
2060,34113,0
2778,34119,0
3468,34146,0
4016,34145,0
4064,34124,0
4064,34126,0
4056,34103,0
3928,34141,0
3592,34138,0
2968,34127,0
2324,34128,0
1600,34120,0
936,34149,0
384,34123,0
25,34130,0
0,34111,0
21,34149,0
348,34151,0
864,34124,0
1482,34126,0
2252,34123,0
2986,34156,0
3712,34132,0
4068,34168,0
71,34171,0
215,34174,0
585,34151,0
1128,34142,0
1802,34126,0
2538,34176,0
3282,34148,0
3928,34153,0
4095,34151,0
4016,34148,0
4095,34169,0
4095,34146,0
3928,34154,0
3524,34131,0
2944,34172,0
2248,34176,0
1560,34151,0
935,34153,0
464,34166,0
172,34178,0
115,34154,0
278,34151,0
667,34156,0
1232,34178,0
1920,34184,0
2666,34159,0
3384,34162,0
3984,34132,0
4089,34179,0
4094,34182,0
4094,34155,0
4095,34154,0
3839,34172,0
3416,34172,0
2832,34172,0
2164,34172,0
1482,34172,0
882,34172,0
428,34136,0
178,34156,0
147,34156,0
337,34156,0
738,34156,0
1300,34156,0
2000,34156,0
2728,34112,0
3400,34152,0
4016,34152,0
4072,34152,0
4056,34152,0
4064,34152,0
4036,34152,0
3872,34152,0
3416,34157,0
2800,34157,0
2116,34157,0
1432,34157,0
826,34157,0
389,34157,0
153,34157,0
137,34157,0
391,34157,0
804,34157,0
2064,34097,0
2786,34099,0
3496,34063,0
4048,34099,0
4040,34079,0
4064,34065,0
4064,34063,0
4040,34067,0
3776,34081,0
3312,34055,0
2704,34041,0
2056,34030,0
1373,34066,0
786,34060,0
393,34021,0
187,34019,0
200,33993,0
452,34018,0
906,34007,0
1482,33991,0
2194,33987,0
2948,33976,0
3656,33979,0
4095,33962,0
4095,33955,0
4095,33955,0
4095,33961,0
1345,33943,0
809,33933,0
426,33945,0
258,33920,0
318,33923,0
604,33906,0
1068,33903,0
1680,33892,0
2376,33899,0
3088,33872,0
3772,33858,0
4060,33857,0
4064,33866,0
4064,33874,0
4060,33833,0
4020,33838,0
3720,33815,0
3296,33842,0
2672,33836,0
1988,33808,0
1337,33803,0
785,33780,0
430,33804,0
268,33772,0
337,33783,0
631,33770,0
1116,33777,0
1730,33795,0
2434,33756,0
3148,33745,0
3808,33725,0
4095,33760,0
4060,33733,0
4094,33760,0
4056,33727,0
3992,33711,0
3652,33702,0
3140,33708,0
2516,33688,0
1840,33710,0
1218,33696,0
694,33695,0
359,33679,0
232,33661,0
328,33688,0
644,33675,0
1144,33673,0
1762,33656,0
2474,33680,0
3198,33683,0
3838,33665,0
4058,33650,0
4095,33641,0
4095,33674,0
4095,33668,0
4034,33638,0
3680,33637,0
3138,33627,0
2489,33650,0
1796,33635,0
1154,33636,0
677,33631,0
362,33641,0
245,33651,0
388,33635,0
728,33622,0
1232,33618,0
1900,33633,0
2588,33631,0
3288,33638,0
3936,33631,0
4068,33621,0
4064,33615,0
4048,33618,0
4050,33640,0
3952,33610,0
3572,33619,0
3040,33611,0
2400,33633,0
1732,33632,0
1136,33611,0
658,33621,0
377,33602,0
296,33638,0
436,33632,0
805,33624,0
1344,33615,0
2013,33611,0
2746,33635,0
3472,33618,0
4076,33621,0
4095,33601,0
4095,33641,0
4095,33640,0
4080,33616,0
3992,33623,0
3544,33622,0
3016,33626,0
2356,33623,0
1704,33644,0
1104,33636,0
650,33619,0
394,33618,0
331,33624,0
508,33644,0
898,33629,0
1436,33635,0
2072,33627,0
2796,33646,0
3496,33658,0
4088,33633,0
4066,33637,0
4068,33605,0
4048,33649,0
4056,33651,0
3896,33632,0
3536,33636,0
2969,33637,0
2320,33666,0
1666,33639,0
1061,33635,0
628,33633,0
380,33657,0
366,33669,0
561,33637,0
988,33637,0
1546,33628,0
2226,33666,0
2920,33638,0
3612,33623,0
4056,33634,0
4064,33665,0
4072,33654,0
4064,33676,0
4056,33660,0
3872,33654,0
3452,33652,0
2888,33656,0
2244,33678,0
1600,33648,0
1033,33653,0
620,33643,0
408,33676,0
412,33672,0
632,33662,0
1058,33662,0
1624,33641,0
2296,33668,0
3056,33655,0
3748,33655,0
4095,33665,0
4095,33675,0
4095,33692,0
4095,33658,0
4095,33654,0
3856,33646,0
3424,33682,0
2820,33673,0
2184,33665,0
1545,33673,0
984,33676,0
595,33682,0
404,33676,0
434,33682,0
680,33680,0
1118,33675,0
1698,33658,0
2388,33687,0
3100,33700,0
3768,33678,0
4068,33686,0
4072,33666,0
4068,33697,0
4064,33699,0
4040,33691,0
3792,33700,0
3344,33679,0
2764,33725,0
2104,33706,0
1473,33695,0
944,33687,0
568,33716,0
393,33722,0
449,33698,0
720,33714,0
1186,33689,0
1792,33734,0
2474,33734,0
3192,33705,0
3880,33718,0
4092,33695,0
4095,33724,0
4064,33721,0
4064,33687,0
4032,33709,0
3744,33740,0
3268,33725,0
2672,33733,0
2020,33721,0
1394,33721,0
880,33701,0
536,33744,0
397,33740,0
475,33709,0
769,33720,0
1248,33722,0
1861,33748,0
2552,33739,0
3260,33727,0
3908,33734,0
4064,33719,0
4064,33756,0
4095,33729,0
4095,33728,0
4081,33720,0
3752,33755,0
3252,33747,0
2640,33738,0
1969,33736,0
1344,33732,0
810,33751,0
508,33731,0
394,33742,0
480,33730,0
810,33748,0
1296,33732,0
1916,33737,0
2608,33743,0
3312,33730,0
4000,33744,0
4072,33720,0
4072,33746,0
4064,33737,0
4072,33744,0
3994,33741,0
3656,33750,0
3136,33758,0
2528,33743,0
1872,33739,0
1278,33718,0
802,33768,0
502,33762,0
410,33738,0
547,33742,0
882,33710,0
1409,33760,0
2060,33749,0
2764,33736,0
3492,33749,0
4095,33738,0
4095,33762,0
4095,33741,0
4089,33736,0
4085,33731,0
3976,33760,0
3064,33722,0
2440,33762,0
1780,33755,0
1192,33751,0
724,33740,0
438,33727,0
394,33739,0
534,33713,0
902,33757,0
1434,33746,0
2080,33735,0
2786,33737,0
3480,33741,0
4048,33765,0
4056,33738,0
4072,33730,0
4060,33728,0
4056,33742,0
3980,33750,0
3544,33736,0
3056,33738,0
2406,33710,0
1741,33751,0
1152,33742,0
692,33730,0
427,33730,0
392,33726,0
578,33749,0
950,33736,0
1524,33726,0
2172,33731,0
2912,33728,0
3536,33722,0
4056,33741,0
4072,33737,0
4072,33747,0
4064,33727,0
4048,33730,0
3872,33726,0
3464,33727,0
2906,33744,0
2244,33720,0
1616,33732,0
1032,33729,0
611,33738,0
376,33751,0
368,33717,0
563,33735,0
984,33719,0
1554,33757,0
2224,33762,0
2936,33731,0
3684,33738,0
4095,33714,0
4095,33759,0
4095,33740,0
4095,33736,0
4095,33736,0
3912,33735,0
3448,33764,0
2876,33737,0
2220,33736,0
1580,33726,0
1005,33758,0
600,33743,0
395,33749,0
421,33736,0
659,33753,0
1078,33753,0
1673,33748,0
2344,33767,0
3052,33744,0
3736,33750,0
4072,33745,0
4068,33763,0
4064,33777,0
4064,33759,0
4048,33749,0
3812,33747,0
3352,33769,0
2774,33772,0
2128,33752,0
1480,33753,0
938,33732,0
534,33773,0
361,33763,0
384,33749,0
641,33747,0
1102,33740,0
1696,33775,0
2384,33757,0
3076,33751,0
3744,33750,0
4095,33746,0
4088,33784,0
4095,33758,0
4048,33765,0
4028,33768,0
3700,33750,0
3236,33785,0
2620,33759,0
1968,33764,0
1324,33753,0
794,33771,0
436,33792,0
282,33771,0
345,33764,0
633,33761,0
1107,33777,0
1724,33798,0
2418,33766,0
3128,33770,0
3800,33758,0
4064,33776,0
4080,33786,0
4072,33766,0
4095,33779,0
4064,33754,0
3738,33780,0
3256,33806,0
2600,33757,0
1922,33773,0
1280,33765,0
756,33786,0
404,33795,0
299,33768,0
385,33777,0
686,33770,0
1180,33781,0
1812,33793,0
2532,33777,0
3216,33788,0
3864,33785,0
4052,33769,0
4068,33804,0
4068,33802,0
4048,33784,0
3984,33795,0
3628,33788,0
3108,33807,0
2484,33785,0
1816,33803,0
1200,33787,0
707,33814,0
397,33821,0
257,33807,0
414,33809,0
742,33789,0
1260,33832,0
1912,33817,0
2609,33809,0
3353,33812,0
4004,33802,0
4095,33840,0
4095,33829,0
4095,33811,0
4082,33827,0
3985,33817,0
3608,33848,0
3104,33821,0
2408,33823,0
1756,33844,0
1149,33831,0
674,33835,0
380,33846,0
293,33834,0
438,33838,0
777,33837,0
1292,33859,0
1940,33857,0
2640,33835,0
3328,33848,0
3948,33836,0
4064,33863,0
4080,33855,0
4072,33843,0
4064,33842,0
3928,33845,0
3546,33868,0
3028,33851,0
2420,33843,0
1796,33849,0
1221,33859,0
794,33867,0
544,33850,0
530,33845,0
739,33834,0
1168,33877,0
1773,33871,0
2502,33851,0
3292,33849,0
4095,33848,0
4068,33873,0
4072,33868,0
4072,33858,0
4072,33863,0
4072,33834,0
4072,33865,0
4068,33869,0
4040,33854,0
3880,33847,0
3576,33869,0
3284,33882,0
3056,33852,0
2876,33857,0
2840,33836,0
2968,33879,0
3224,33880,0
3588,33856,0
4024,33855,0
4072,33857,0
4095,33879,0
4095,33852,0
4095,33858,0
4095,33848,0
4095,33874,0
4095,33880,0
4064,33853,0
3714,33858,0
3178,33837,0
2573,33873,0
1928,33864,0
1326,33851,0
868,33857,0
590,33866,0
512,33868,0
644,33872,0
968,33864,0
1450,33868,0
2034,33857,0
2660,33873,0
3272,33881,0
3808,33846,0
4080,33851,0
4056,33837,0
4082,33871,0
3920,33878,0
3540,33846,0
2948,33850,0
2250,33836,0
1500,33877,0
806,33876,0
238,33851,0
0,33853,0
0,33841,0
0,33878,0
158,33861,0
596,33857,0
1196,33847,0
1883,33835,0
2616,33865,0
3296,33852,0
3852,33845,0
4082,33847,0
4094,33848,0
4095,33872,0
3920,33867,0
3516,33840,0
2940,33821,0
2264,33840,0
1532,33851,0
851,33869,0
293,33877,0
0,33858,0
0,33848,0
0,33856,0
229,33876,0
662,33879,0
1268,33850,0
1952,33860,0
2684,33836,0
3364,33877,0
3940,33879,0
4072,33863,0
4064,33871,0
4052,33850,0
3984,33888,0
3584,33856,0
2992,33868,0
2304,33864,0
1568,33869,0
887,33884,0
340,33860,0
0,33872,0
0,33852,0
8,33892,0
335,33903,0
1442,33894,0
2140,33906,0
2882,33891,0
3560,33902,0
4064,33908,0
4040,33874,0
4072,33882,0
4041,33878,0
3904,33894,0
3520,33906,0
2960,33889,0
2280,33887,0
1584,33867,0
946,33907,0
426,33914,0
104,33894,0
0,33889,0
93,33869,0
437,33909,0
960,33911,0
1624,33879,0
2368,33885,0
3114,33868,0
3800,33918,0
4095,33903,0
4095,33881,0
4095,33888,0
4082,33910,0
3956,33911,0
3544,33889,0
2984,33898,0
2340,33861,0
1608,33894,0
981,33910,0
488,33895,0
186,33889,0
98,33883,0
226,33885,0
576,33916,0
1097,33900,0
1760,33892,0
2468,33901,0
3192,33898,0
3836,33917,0
4064,33892,0
4056,33904,0
4095,33903,0
4048,33907,0
3884,33923,0
3492,33893,0
2896,33900,0
2236,33894,0
1556,33915,0
924,33916,0
448,33898,0
158,33902,0
91,33885,0
267,33924,0
649,33911,0
1210,33900,0
1872,33898,0
2613,33881,0
3312,33920,0
3988,33910,0
4072,33897,0
4095,33908,0
4072,33911,0
4040,33864,0
3848,33903,0
3420,33890,0
2840,33879,0
2168,33913,0
1498,33915,0
884,33896,0
435,33891,0
173,33881,0
118,33925,0
329,33901,0
708,33895,0
1269,33897,0
1936,33916,0
2664,33925,0
3372,33905,0
3968,33895,0
4095,33890,0
4095,33922,0
4095,33927,0
4095,33896,0
3892,33905,0
3440,33891,0
2836,33930,0
2144,33918,0
1448,33907,0
888,33911,0
438,33891,0
186,33933,0
196,33898,0
409,33909,0
808,33922,0
1380,33902,0
2056,33897,0
2792,33899,0
3464,33915,0
4040,33886,0
4064,33928,0
4064,33924,0
4060,33908,0
4040,33910,0
3780,33887,0
3320,33933,0
2720,33923,0
2056,33896,0
1380,33902,0
820,33878,0
401,33921,0
197,33899,0
185,33894,0
434,33902,0
865,33894,0
1472,33906,0
2160,33883,0
2904,33880,0
3600,33853,0
4076,33907,0
4092,33894,0
4094,33867,0
4084,33870,0
4095,33847,0
3744,33846,0
3244,33854,0
2636,33844,0
1970,33831,0
1297,33842,0
749,33820,0
368,33851,0
196,33840,0
224,33808,0
484,33815,0
940,33790,0
1534,33825,0
2228,33811,0
2956,33791,0
3640,33793,0
4064,33768,0
4068,33807,0
4064,33795,0
4056,33773,0
4024,33760,0
3792,33731,0
3284,33769,0
2666,33747,0
1989,33736,0
1329,33733,0
794,33719,0
432,33747,0
285,33715,0
336,33707,0
660,33709,0
1121,33713,0
1736,33713,0
2408,33683,0
3124,33711,0
3784,33678,0
4072,33685,0
4064,33683,0
4072,33665,0
4056,33678,0
4016,33663,0
3704,33646,0
3216,33639,0
2594,33647,0
1940,33656,0
1321,33620,0
812,33630,0
469,33595,0
336,33636,0
422,33623,0
724,33601,0
1212,33599,0
1790,33585,0
2560,33604,0
3280,33592,0
3944,33579,0
4095,33578,0
4095,33566,0
4095,33592,0
4095,33568,0
4004,33560,0
3666,33546,0
3156,33568,0
2523,33569,0
1864,33538,0
1228,33536,0
728,33542,0
413,33533,0
306,33532,0
411,33503,0
737,33544,0
1232,33545,0
1866,33518,0
2548,33515,0
3264,33487,0
3896,33520,0
4068,33518,0
4068,33490,0
4064,33502,0
4056,33475,0
3936,33510,0
3560,33489,0
3024,33473,0
2380,33479,0
1712,33478,0
1097,33492,0
608,33456,0
320,33472,0
238,33466,0
404,33483,0
748,33492,0
1276,33463,0
1932,33471,0
2656,33451,0
3360,33477,0
3984,33476,0
4095,33463,0
4072,33481,0
4092,33475,0
4052,33460,0
3900,33459,0
3498,33480,0
2944,33445,0
2288,33441,0
1636,33453,0
1030,33469,0
570,33477,0
298,33449,0
245,33450,0
409,33425,0
792,33468,0
1330,33476,0
1984,33449,0
2704,33448,0
3400,33442,0
4000,33468,0
4064,33459,0
4095,33451,0
4095,33454,0
4095,33466,0
3941,33484,0
3508,33449,0
2929,33464,0
2264,33440,0
1578,33486,0
980,33489,0
549,33463,0
304,33466,0
251,33460,0
468,33487,0
848,33489,0
1408,33496,0
2072,33466,0
2776,33482,0
3476,33457,0
4044,33499,0
4064,33497,0
4068,33490,0
4068,33477,0
4048,33474,0
3820,33511,0
3376,33488,0
2788,33477,0
2138,33477,0
1476,33511,0
900,33518,0
493,33490,0
260,33500,0
280,33472,0
486,33516,0
906,33509,0
1497,33511,0
2184,33505,0
2920,33494,0
3625,33523,0
4095,33510,0
4088,33501,0
4095,33500,0
4095,33513,0
4048,33527,0
3326,33568,0
2752,33543,0
2066,33517,0
1417,33521,0
860,33537,0
465,33537,0
267,33517,0
294,33522,0
537,33508,0
978,33525,0
1569,33546,0
2244,33513,0
2960,33516,0
3636,33514,0
4064,33536,0
4056,33549,0
4072,33530,0
4060,33537,0
4032,33522,0
3752,33555,0
3328,33560,0
2710,33532,0
2026,33542,0
1369,33518,0
820,33561,0
440,33545,0
263,33546,0
328,33542,0
596,33551,0
1060,33570,0
1652,33543,0
2368,33551,0
3048,33568,0
3712,33549,0
4064,33528,0
4088,33556,0
4064,33574,0
4064,33551,0
4012,33567,0
3700,33590,0
3198,33559,0
2616,33571,0
1930,33557,0
1302,33590,0
776,33590,0
438,33566,0
290,33568,0
361,33559,0
649,33597,0
1122,33602,0
1740,33587,0
2420,33580,0
3184,33560,0
3850,33602,0
4095,33604,0
4095,33592,0
4095,33588,0
4095,33572,0
4068,33600,0
3690,33588,0
3180,33590,0
2557,33589,0
1888,33597,0
1256,33611,0
744,33585,0
375,33607,0
285,33594,0
386,33611,0
684,33609,0
1176,33595,0
1796,33617,0
2476,33609,0
3176,33593,0
3816,33597,0
4060,33590,0
4064,33617,0
4068,33615,0
4056,33603,0
3944,33602,0
3576,33605,0
3042,33626,0
2408,33610,0
1745,33605,0
1121,33596,0
642,33621,0
328,33623,0
230,33604,0
368,33605,0
711,33602,0
1225,33617,0
1881,33635,0
2576,33605,0
3297,33607,0
3954,33602,0
4092,33635,0
4095,33638,0
4068,33603,0
4048,33610,0
3920,33587,0
3528,33608,0
2976,33610,0
2337,33603,0
1668,33630,0
1068,33630,0
597,33609,0
323,33615,0
252,33603,0
413,33642,0
764,33634,0
1300,33615,0
1948,33610,0
2652,33613,0
3352,33639,0
3966,33618,0
4064,33614,0
4062,33610,0
4095,33638,0
4095,33644,0
3944,33608,0
3521,33616,0
2948,33598,0
2290,33640,0
1605,33636,0
1006,33618,0
528,33629,0
298,33597,0
251,33637,0
428,33642,0
816,33637,0
1370,33616,0
2026,33634,0
2736,33634,0
3424,33633,0
4072,33643,0
4060,33611,0
4072,33615,0
4064,33605,0
4034,33638,0
3836,33643,0
3416,33613,0
2808,33617,0
2168,33598,0
1508,33633,0
928,33624,0
508,33621,0
274,33616,0
243,33609,0
464,33646,0
864,33619,0
1440,33608,0
2112,33609,0
2848,33618,0
3536,33645,0
4095,33614,0
4095,33610,0
4095,33604,0
4090,33618,0
4066,33631,0
3808,33598,0
3392,33605,0
2736,33608,0
2072,33608,0
1406,33632,0
846,33619,0
441,33633,0
222,33612,0
250,33599,0
468,33619,0
896,33636,0
1472,33600,0
2129,33611,0
2848,33585,0
3528,33623,0
4064,33635,0
4095,33596,0
