ECG,IR,PCG
1140,36391,0
572,36400,0
169,36396,0
0,36395,0
0,36384,0
195,36404,0
582,36396,0
1114,36429,0
1720,36439,0
2370,36413,0
3012,36412,0
3570,36395,0
3984,36441,0
4095,36439,0
4088,36419,0
3960,36421,0
3580,36407,0
3072,36445,0
2368,36436,0
1680,36428,0
981,36425,0
416,36425,0
10,36446,0
0,36428,0
0,36427,0
139,36426,0
526,36444,0
1046,36457,0
1640,36433,0
2312,36444,0
2940,36421,0
3538,36447,0
3880,36454,0
4095,36452,0
4072,36437,0
3904,36453,0
3504,36454,0
2920,36440,0
2248,36434,0
1544,36464,0
880,36453,0
349,36454,0
0,36461,0
0,36452,0
0,36475,0
186,36454,0
604,36452,0
1101,36447,0
1712,36472,0
2353,36488,0
2976,36460,0
3528,36459,0
3976,36451,0
4095,36493,0
4095,36485,0
3920,36470,0
3496,36461,0
2896,36458,0
2200,36498,0
1464,36474,0
800,36482,0
295,36475,0
0,36482,0
0,36507,0
0,36485,0
220,36492,0
629,36476,0
1162,36474,0
1776,36497,0
2444,36477,0
3024,36517,0
3540,36499,0
3920,36495,0
4068,36496,0
4048,36510,0
3804,36531,0
3352,36499,0
2772,36506,0
2072,36490,0
1357,36517,0
705,36515,0
203,36519,0
0,36510,0
0,36528,0
0,36541,0
240,36509,0
669,36508,0
1218,36509,0
1846,36536,0
2501,36551,0
3120,36521,0
3580,36525,0
3932,36502,0
4076,36553,0
4028,36531,0
3792,36527,0
3252,36532,0
2640,36535,0
1968,36519,0
1272,36548,0
659,36533,0
193,36530,0
0,36514,0
0,36560,0
80,36567,0
418,36539,0
922,36539,0
1544,36530,0
2212,36565,0
2908,36570,0
3556,36539,0
4080,36542,0
4095,36540,0
4095,36568,0
4095,36570,0
4080,36559,0
3968,36554,0
3596,36540,0
3157,36567,0
2625,36553,0
2186,36546,0
1848,36557,0
1680,36572,0
1669,36574,0
1838,36562,0
2221,36559,0
2720,36568,0
3912,36595,0
4095,36580,0
4095,36579,0
4095,36568,0
4095,36577,0
4095,36572,0
4095,36569,0
4095,36571,0
4064,36576,0
3784,36591,0
3328,36571,0
2784,36580,0
2240,36563,0
1756,36595,0
1392,36602,0
1192,36570,0
1152,36576,0
1272,36563,0
1529,36601,0
1908,36600,0
2378,36577,0
2858,36577,0
3298,36568,0
3672,36589,0
3864,36584,0
3928,36576,0
3733,36588,0
3340,36591,0
2838,36605,0
2176,36584,0
1500,36578,0
800,36560,0
243,36595,0
0,36577,0
0,36594,0
0,36601,0
22,36591,0
297,36595,0
724,36565,0
1257,36621,0
1868,36603,0
2453,36599,0
3004,36599,0
3463,36579,0
3692,36619,0
3816,36617,0
3616,36595,0
3300,36600,0
2736,36596,0
2112,36627,0
1396,36597,0
732,36604,0
161,36593,0
0,36621,0
0,36629,0
0,36593,0
0,36600,0
296,36606,0
739,36632,0
1268,36633,0
1852,36608,0
2490,36604,0
3009,36583,0
3488,36624,0
3664,36609,0
3728,36604,0
3572,36628,0
3212,36639,0
2672,36615,0
2032,36640,0
1345,36632,0
692,36620,0
156,36626,0
0,36597,0
0,36638,0
0,36626,0
54,36624,0
369,36619,0
816,36628,0
1361,36649,0
1972,36626,0
2568,36628,0
3096,36614,0
3568,36650,0
3818,36658,0
3848,36620,0
3668,36635,0
3274,36614,0
2720,36654,0
2053,36634,0
1358,36622,0
678,36621,0
136,36651,0
0,36653,0
0,36633,0
0,36637,0
87,36624,0
424,36623,0
884,36638,0
1456,36647,0
2060,36628,0
2672,36652,0
3232,36630,0
3588,36631,0
3818,36641,0
3872,36668,0
3644,36639,0
3244,36640,0
2692,36633,0
2032,36661,0
1330,36678,0
688,36642,0
172,36647,0
0,36640,0
0,36667,0
0,36668,0
124,36649,0
498,36660,0
1011,36644,0
1613,36669,0
2248,36651,0
2880,36658,0
3410,36656,0
3760,36682,0
3954,36681,0
3952,36656,0
3729,36661,0
3336,36650,0
2680,36662,0
2016,36667,0
1292,36698,0
650,36662,0
138,36668,0
0,36669,0
0,36654,0
0,36698,0
177,36667,0
576,36669,0
1090,36665,0
1682,36685,0
2316,36694,0
2924,36670,0
3440,36665,0
3808,36657,0
3976,36691,0
3952,36711,0
3704,36665,0
3252,36659,0
2696,36669,0
1984,36700,0
1261,36699,0
600,36675,0
89,36684,0
0,36677,0
0,36704,0
0,36685,0
203,36692,0
621,36687,0
1157,36719,0
1776,36718,0
2376,36703,0
2977,36697,0
3472,36706,0
3832,36675,0
3984,36708,0
3932,36728,0
3680,36701,0
3216,36707,0
2584,36702,0
1889,36729,0
1182,36738,0
560,36711,0
74,36710,0
0,36698,0
0,36741,0
0,36744,0
243,36727,0
668,36726,0
1209,36697,0
1848,36740,0
2484,36724,0
3088,36722,0
3592,36725,0
3928,36746,0
4064,36757,0
3980,36726,0
3688,36746,0
3160,36717,0
2520,36756,0
1830,36755,0
1122,36731,0
486,36742,0
25,36750,0
0,36743,0
0,36720,0
19,36718,0
297,36729,0
730,36728,0
1274,36705,0
1908,36745,0
2520,36735,0
3104,36709,0
3568,36718,0
3928,36710,0
3984,36730,0
3936,36707,0
3568,36705,0
3088,36696,0
2432,36703,0
1724,36714,0
1017,36691,0
423,36688,0
0,36657,0
0,36698,0
0,36683,0
0,36657,0
298,36657,0
760,36644,0
1321,36670,0
1946,36645,0
2572,36644,0
3162,36630,0
3616,36649,0
3968,36649,0
3992,36612,0
3880,36594,0
3552,36598,0
3034,36623,0
2396,36598,0
1686,36592,0
1012,36607,0
443,36573,0
6,36567,0
0,36556,0
0,36583,0
77,36582,0
417,36548,0
896,36548,0
1481,36519,0
2136,36553,0
2748,36554,0
3360,36514,0
3784,36521,0
4095,36499,0
4095,36524,0
4053,36496,0
3696,36482,0
3140,36486,0
2468,36480,0
1738,36487,0
1048,36474,0
465,36461,0
40,36463,0
0,36468,0
0,36464,0
468,36321,0
968,36429,0
1568,36432,0
2212,36406,0
2856,36416,0
3432,36413,0
3856,36417,0
4080,36405,0
4092,36423,0
3960,36423,0
3582,36385,0
3072,36384,0
2376,36371,0
1668,36394,0
986,36400,0
424,36371,0
38,36369,0
0,36345,0
0,36374,0
131,36380,0
521,36342,0
1058,36344,0
1680,36328,0
2338,36366,0
2984,36341,0
3560,36333,0
3984,36336,0
4095,36336,0
4095,36355,0
3954,36329,0
3556,36321,0
3012,36306,0
2292,36321,0
1580,36325,0
904,36318,0
354,36332,0
0,36310,0
0,36310,0
0,36295,0
169,36335,0
554,36318,0
1084,36306,0
1680,36316,0
2320,36290,0
2944,36326,0
3520,36300,0
3876,36304,0
4095,36299,0
4072,36300,0
3888,36323,0
3472,36303,0
2912,36297,0
2232,36292,0
1510,36323,0
819,36323,0
274,36298,0
0,36292,0
0,36280,0
0,36330,0
193,36308,0
596,36303,0
1137,36302,0
1754,36296,0
2416,36321,0
3000,36318,0
3532,36305,0
3904,36315,0
4095,36309,0
4048,36289,0
3820,36326,0
3392,36305,0
2776,36307,0
2088,36303,0
1378,36336,0
734,36340,0
225,36305,0
0,36321,0
0,36300,0
0,36337,0
223,36325,0
631,36322,0
1176,36328,0
1788,36326,0
2436,36344,0
3120,36329,0
3634,36320,0
4004,36330,0
4095,36352,0
4095,36361,0
3872,36336,0
3402,36339,0
2752,36332,0
2048,36353,0
1344,36363,0
681,36345,0
163,36349,0
0,36344,0
0,36351,0
0,36335,0
248,36351,0
678,36366,0
1228,36354,0
1844,36357,0
2496,36383,0
3138,36359,0
3600,36362,0
3952,36346,0
4076,36378,0
4028,36394,0
3760,36363,0
3276,36376,0
2652,36359,0
1945,36388,0
1231,36385,0
609,36381,0
123,36364,0
0,36369,0
0,36399,0
0,36371,0
274,36390,0
730,36368,0
1300,36397,0
1940,36407,0
2576,36389,0
3178,36397,0
3666,36373,0
4000,36417,0
4095,36417,0
4008,36386,0
3704,36399,0
3220,36401,0
2564,36430,0
1820,36397,0
1154,36393,0
542,36424,0
75,36427,0
0,36408,0
0,36408,0
28,36402,0
327,36431,0
782,36435,0
1344,36407,0
1978,36421,0
2624,36403,0
3212,36442,0
3696,36424,0
3992,36424,0
4068,36425,0
4074,36434,0
3744,36455,0
3224,36430,0
2565,36439,0
1841,36427,0
1128,36472,0
512,36471,0
69,36442,0
0,36449,0
0,36427,0
56,36472,0
362,36471,0
851,36442,0
1427,36473,0
2064,36457,0
2704,36479,0
3288,36472,0
3752,36456,0
4024,36464,0
4080,36491,0
3984,36452,0
3642,36463,0
3122,36462,0
2466,36499,0
1760,36501,0
1070,36472,0
482,36481,0
45,36463,0
0,36492,0
0,36500,0
80,36476,0
417,36481,0
898,36468,0
1496,36505,0
2152,36485,0
2816,36487,0
3408,36494,0
3856,36470,0
4095,36508,0
4095,36492,0
3984,36495,0
3656,36497,0
3093,36486,0
2464,36509,0
1712,36515,0
1026,36496,0
451,36501,0
46,36480,0
0,36512,0
0,36470,0
118,36520,0
477,36518,0
1004,36496,0
1562,36499,0
2232,36484,0
2856,36510,0
3416,36502,0
3892,36494,0
4072,36496,0
4095,36499,0
3928,36513,0
3560,36500,0
3004,36494,0
2340,36500,0
1634,36509,0
949,36526,0
369,36499,0
0,36494,0
0,36475,0
0,36526,0
128,36514,0
530,36494,0
1040,36501,0
1667,36485,0
2314,36513,0
2992,36512,0
3488,36494,0
3896,36465,0
4084,36493,0
4080,36517,0
3896,36498,0
3504,36495,0
2928,36481,0
2252,36524,0
1538,36522,0
862,36494,0
324,36492,0
0,36485,0
0,36505,0
0,36503,0
180,36499,0
569,36499,0
1104,36477,0
1712,36518,0
2352,36508,0
2986,36497,0
3600,36495,0
4008,36490,0
4095,36520,0
4095,36508,0
3968,36492,0
3524,36498,0
2928,36496,0
2216,36525,0
1492,36486,0
827,36504,0
291,36484,0
0,36519,0
0,36500,0
0,36498,0
206,36493,0
614,36495,0
1162,36499,0
1784,36504,0
2428,36498,0
3064,36526,0
3583,36498,0
3964,36499,0
4094,36490,0
4068,36511,0
3839,36528,0
3400,36501,0
2808,36504,0
2116,36488,0
1404,36523,0
756,36517,0
250,36492,0
0,36510,0
0,36485,0
0,36521,0
251,36510,0
693,36498,0
1250,36501,0
1900,36502,0
2560,36521,0
3156,36504,0
3700,36505,0
4040,36502,0
4095,36507,0
3824,36523,0
3376,36490,0
2768,36484,0
2084,36506,0
1392,36485,0
736,36521,0
238,36505,0
0,36503,0
0,36503,0
12,36530,0
296,36539,0
736,36506,0
1300,36511,0
1929,36500,0
2596,36529,0
3184,36541,0
3696,36515,0
4032,36510,0
4092,36489,0
4095,36527,0
3864,36526,0
3392,36511,0
2760,36510,0
2058,36502,0
1340,36528,0
726,36512,0
257,36505,0
0,36500,0
0,36531,0
94,36537,0
422,36522,0
904,36516,0
1524,36523,0
2156,36512,0
2816,36510,0
3424,36500,0
3912,36512,0
4084,36515,0
4095,36518,0
4064,36524,0
3812,36544,0
3332,36520,0
2712,36521,0
2028,36520,0
1324,36539,0
720,36554,0
257,36531,0
0,36532,0
0,36520,0
72,36566,0
382,36558,0
858,36534,0
1464,36540,0
2112,36523,0
2772,36569,0
3376,36537,0
3864,36533,0
4095,36536,0
4095,36547,0
4048,36564,0
3733,36537,0
3228,36540,0
2584,36539,0
1892,36569,0
1172,36555,0
586,36526,0
132,36556,0
0,36563,0
0,36566,0
96,36553,0
425,36539,0
918,36572,0
1508,36569,0
2152,36560,0
2808,36562,0
3384,36564,0
3840,36586,0
4084,36578,0
4092,36574,0
4000,36577,0
3672,36576,0
3154,36599,0
2512,36565,0
1832,36577,0
1144,36566,0
545,36605,0
129,36604,0
0,36574,0
0,36579,0
112,36569,0
480,36609,0
1006,36603,0
1592,36590,0
2260,36593,0
2904,36582,0
3504,36616,0
3872,36609,0
4095,36598,0
4095,36620,0
3976,36607,0
3616,36609,0
3076,36633,0
2420,36609,0
1706,36612,0
1034,36599,0
491,36639,0
64,36639,0
0,36613,0
0,36621,0
149,36595,0
532,36648,0
1050,36639,0
1658,36622,0
2304,36628,0
2940,36615,0
3492,36645,0
4000,36639,0
4095,36632,0
4095,36644,0
4024,36659,0
3632,36665,0
3056,36632,0
2360,36642,0
1620,36639,0
925,36666,0
374,36666,0
0,36648,0
0,36645,0
0,36667,0
189,36654,0
608,36639,0
1128,36658,0
1802,36678,0
2472,36673,0
3152,36650,0
3736,36660,0
4095,36651,0
4095,36682,0
4095,36691,0
4068,36664,0
3832,36672,0
3416,36665,0
2884,36686,0
2308,36700,0
1776,36673,0
1361,36681,0
1120,36662,0
1056,36704,0
1225,36696,0
1564,36685,0
2069,36680,0
2704,36673,0
3396,36709,0
4080,36702,0
4095,36681,0
4095,36693,0
4095,36673,0
4095,36718,0
4095,36714,0
4095,36704,0
4095,36690,0
4064,36728,0
3792,36719,0
3380,36707,0
2896,36728,0
2432,36709,0
2064,36713,0
1800,36696,0
1698,36733,0
1744,36714,0
1932,36703,0
2242,36701,0
2632,36717,0
3044,36746,0
3456,36719,0
3816,36705,0
4028,36720,0
4080,36724,0
3984,36742,0
3704,36721,0
3217,36735,0
2656,36733,0
1952,36750,0
1232,36753,0
589,36736,0
96,36740,0
0,36722,0
0,36763,0
0,36762,0
216,36745,0
618,36737,0
1152,36732,0
1700,36743,0
2360,36768,0
2944,36757,0
3444,36755,0
3776,36761,0
3928,36753,0
3872,36775,0
3594,36782,0
3114,36752,0
2504,36769,0
1784,36744,0
1078,36780,0
438,36780,0
0,36757,0
0,36767,0
0,36749,0
0,36797,0
161,36781,0
545,36768,0
1048,36773,0
1648,36773,0
2290,36793,0
2888,36774,0
3393,36777,0
3738,36777,0
3892,36781,0
3840,36804,0
3520,36783,0
3054,36780,0
2444,36780,0
1737,36803,0
1050,36811,0
421,36789,0
0,36795,0
0,36775,0
0,36784,0
0,36774,0
230,36817,0
638,36792,0
1164,36794,0
1768,36794,0
2388,36787,0
2960,36821,0
3432,36791,0
3752,36808,0
3864,36786,0
3792,36820,0
3488,36831,0
3008,36799,0
2360,36811,0
1665,36779,0
980,36827,0
360,36821,0
0,36814,0
0,36810,0
0,36820,0
0,36829,0
265,36819,0
709,36822,0
1261,36826,0
1872,36810,0
2528,36840,0
3104,36820,0
3856,36846,0
3952,36818,0
3848,36839,0
3560,36826,0
3004,36811,0
2372,36839,0
1650,36816,0
944,36817,0
350,36819,0
0,36843,0
0,36849,0
0,36820,0
32,36820,0
340,36817,0
782,36856,0
1368,36850,0
1985,36827,0
2624,36837,0
3198,36801,0
3728,36851,0
4024,36859,0
4095,36830,0
3992,36838,0
3632,36811,0
3098,36857,0
2432,36835,0
1684,36832,0
979,36828,0
372,36852,0
0,36861,0
0,36839,0
0,36834,0
53,36867,0
384,36858,0
854,36854,0
1426,36829,0
2056,36858,0
2680,36831,0
3288,36866,0
3688,36866,0
3956,36847,0
4056,36850,0
3880,36832,0
3516,36867,0
2976,36849,0
2322,36830,0
1616,36845,0
930,36833,0
361,36867,0
0,36844,0
0,36846,0
0,36839,0
93,36866,0
462,36871,0
962,36847,0
1572,36848,0
2228,36830,0
2872,36869,0
3448,36880,0
3840,36857,0
4084,36858,0
4095,36841,0
3944,36871,0
3584,36852,0
2952,36867,0
2272,36856,0
1556,36872,0
880,36865,0
327,36864,0
0,36851,0
0,36859,0
0,36841,0
131,36876,0
512,36886,0
1016,36858,0
1618,36865,0
2256,36854,0
2892,36890,0
3436,36870,0
3848,36868,0
4064,36870,0
4068,36862,0
3876,36887,0
3472,36880,0
2956,36872,0
2250,36872,0
1512,36873,0
824,36895,0
258,36875,0
0,36876,0
0,36869,0
0,36882,0
162,36909,0
566,36880,0
1089,36879,0
1713,36877,0
2328,36887,0
2976,36868,0
3504,36883,0
3896,36900,0
4072,36898,0
4064,36874,0
3848,36854,0
3432,36888,0
2836,36897,0
2148,36866,0
1432,36865,0
801,36844,0
245,36881,0
0,36881,0
0,36850,0
0,36847,0
240,36839,0
627,36873,0
1168,36854,0
1790,36843,0
2482,36845,0
3106,36824,0
3656,36848,0
4036,36832,0
4095,36834,0
4095,36819,0
3925,36817,0
3440,36834,0
2836,36808,0
2160,36801,0
1434,36786,0
784,36804,0
279,36806,0
0,36796,0
0,36775,0
12,36780,0
292,36791,0
723,36746,0
1282,36785,0
1932,36761,0
2572,36739,0
3184,36737,0
3700,36748,0
4044,36757,0
4092,36727,0
4068,36717,0
3839,36703,0
3396,36731,0
2794,36729,0
2128,36697,0
1416,36693,0
780,36665,0
281,36701,0
0,36678,0
0,36665,0
17,36664,0
328,36659,0
802,36679,0
1393,36641,0
2040,36639,0
2710,36623,0
3340,36638,0
3832,36647,0
4095,36617,0
4095,36619,0
4080,36614,0
3824,36622,0
3360,36601,0
2748,36603,0
2064,36579,0
1362,36591,0
744,36568,0
274,36592,0
0,36594,0
0,36566,0
69,36560,0
385,36532,0
859,36572,0
1448,36568,0
2084,36532,0
2736,36544,0
3344,36517,0
3820,36548,0
4088,36539,0
4095,36512,0
4095,36518,0
3856,36506,0
3336,36531,0
2706,36509,0
1996,36506,0
1281,36491,0
664,36520,0
200,36524,0
0,36481,0
0,36499,0
75,36473,0
434,36508,0
928,36485,0
1526,36468,0
2178,36489,0
2840,36472,0
3424,36466,0
3944,36496,0
4094,36485,0
4095,36471,0
4040,36468,0
3728,36454,0
3336,36488,0
2584,36479,0
1886,36460,0
1221,36463,0
609,36483,0
162,36480,0
0,36462,0
0,36454,0
122,36449,0
458,36464,0
982,36479,0
1596,36451,0
2264,36452,0
2930,36443,0
3544,36468,0
4008,36479,0
4095,36450,0
4095,36450,0
4052,36436,0
3704,36475,0
3224,36468,0
2524,36469,0
1816,36456,0
1120,36447,0
538,36466,0
118,36465,0
0,36476,0
0,36468,0
122,36453,0
492,36461,0
997,36443,0
1596,36489,0
2244,36487,0
2896,36453,0
3472,36460,0
3908,36451,0
4095,36483,0
4088,36482,0
4056,36463,0
3644,36459,0
3152,36446,0
2512,36490,0
1792,36469,0
1088,36461,0
513,36472,0
103,36469,0
0,36496,0
0,36462,0
190,36473,0
535,36478,0
1085,36473,0
1708,36491,0
2392,36478,0
2996,36474,0
3556,36456,0
3988,36473,0
4094,36481,0
4088,36501,0
3972,36500,0
3600,36488,0
3056,36490,0
2392,36478,0
1684,36509,0
1010,36503,0
460,36492,0
72,36492,0
0,36500,0
0,36527,0
179,36488,0
586,36495,0
1122,36499,0
1772,36527,0
2402,36521,0
3096,36498,0
3664,36510,0
4080,36493,0
4095,36524,0
4095,36521,0
4009,36504,0
3624,36520,0
2992,36496,0
2340,36539,0
1633,36523,0
958,36517,0
55,36587,0
0,36530,0
0,36537,0
245,36537,0
666,36531,0
1209,36527,0
1834,36523,0
2520,36558,0
3120,36555,0
3664,36534,0
4040,36535,0
4094,36527,0
4088,36567,0
3904,36573,0
3504,36552,0
2922,36552,0
2258,36527,0
1552,36575,0
902,36577,0
387,36544,0
26,36555,0
0,36551,0
0,36586,0
266,36567,0
719,36566,0
1290,36567,0
1946,36579,0
2600,36590,0
3248,36569,0
3760,36565,0
4095,36568,0
4095,36593,0
4080,36587,0
3872,36573,0
3452,36603,0
2856,36589,0
2172,36582,0
1468,36592,0
832,36571,0
341,36612,0
11,36608,0
0,36594,0
33,36597,0
330,36594,0
776,36624,0
1352,36616,0
1986,36611,0
2648,36605,0
3272,36625,0
3780,36624,0
4088,36613,0
4088,36623,0
4095,36613,0
3921,36628,0
3472,36644,0
2860,36618,0
2164,36621,0
1442,36615,0
806,36645,0
312,36649,0
11,36620,0
0,36638,0
59,36617,0
352,36650,0
822,36625,0
1404,36648,0
2046,36629,0
2696,36659,0
3308,36642,0
3808,36632,0
4088,36643,0
4095,36639,0
4072,36671,0
3804,36640,0
3344,36634,0
2736,36647,0
2047,36645,0
1348,36665,0
728,36640,0
259,36649,0
0,36644,0
0,36664,0
68,36671,0
385,36650,0
864,36650,0
1464,36651,0
2124,36668,0
2797,36683,0
3416,36650,0
3922,36657,0
4095,36637,0
4095,36671,0
4082,36665,0
3808,36642,0
3316,36651,0
2712,36637,0
1976,36670,0
1290,36661,0
677,36657,0
228,36647,0
0,36629,0
0,36642,0
96,36667,0
424,36651,0
936,36643,0
1535,36652,0
2192,36631,0
2848,36673,0
3452,36663,0
3920,36651,0
4092,36653,0
4092,36658,0
4052,36671,0
3800,36652,0
3264,36657,0
2666,36651,0
1976,36657,0
1272,36683,0
676,36655,0
226,36662,0
0,36655,0
0,36659,0
141,36678,0
526,36661,0
1029,36657,0
1673,36660,0
2324,36673,0
3024,36688,0
3544,36667,0
4000,36672,0
4095,36681,0
4092,36655,0
4032,36676,0
3708,36644,0
3204,36687,0
2558,36663,0
1876,36665,0
1194,36660,0
630,36670,0
216,36685,0
0,36656,0
0,36665,0
198,36652,0
584,36671,0
1109,36675,0
1736,36653,0
2396,36670,0
3056,36658,0
3712,36683,0
4095,36686,0
4095,36659,0
4095,36660,0
4095,36665,0
3816,36676,0
3320,36686,0
2656,36652,0
1977,36666,0
1332,36644,0
778,36686,0
366,36681,0
180,36664,0
187,36661,0
408,36664,0
796,36678,0
1324,36664,0
1934,36665,0
2616,36664,0
3260,36663,0
3824,36662,0
4088,36682,0
4092,36657,0
4094,36661,0
4056,36651,0
3696,36673,0
3184,36684,0
2556,36667,0
1890,36659,0
1242,36648,0
693,36674,0
317,36687,0
109,36657,0
147,36661,0
373,36656,0
790,36675,0
1337,36681,0
1958,36656,0
2632,36662,0
3240,36658,0
3789,36695,0
4095,36681,0
4095,36662,0
4095,36663,0
3984,36677,0
3616,36658,0
3080,36663,0
2436,36650,0
1760,36684,0
1122,36677,0
608,36673,0
256,36658,0
109,36688,0
160,36693,0
425,36681,0
836,36668,0
1392,36672,0
2024,36704,0
2682,36708,0
3312,36671,0
3848,36677,0
4095,36660,0
4095,36703,0
4095,36709,0
4048,36692,0
3668,36681,0
3112,36673,0
2448,36705,0
1760,36708,0
1112,36681,0
597,36695,0
260,36688,0
115,36715,0
200,36696,0
470,36696,0
902,36690,0
1457,36670,0
2084,36694,0
2736,36696,0
3352,36689,0
3872,36696,0
4094,36700,0
4095,36679,0
4088,36717,0
3952,36702,0
3544,36700,0
2994,36702,0
2344,36715,0
1668,36734,0
1060,36705,0
556,36709,0
241,36695,0
130,36727,0
207,36729,0
505,36717,0
965,36710,0
1536,36693,0
2198,36733,0
2848,36725,0
3477,36708,0
3978,36721,0
4095,36698,0
4095,36743,0
4095,36723,0
3908,36715,0
3474,36720,0
2892,36734,0
2252,36748,0
1544,36727,0
984,36726,0
518,36727,0
250,36710,0
198,36755,0
353,36735,0
709,36739,0
1220,36734,0
1842,36740,0
2552,36753,0
3224,36735,0
3864,36735,0
4095,36736,0
4095,36751,0
4095,36764,0
4095,36748,0
4095,36743,0
3964,36744,0
3657,36758,0
3196,36769,0
2784,36744,0
2344,36752,0
2008,36745,0
1842,36767,0
1856,36780,0
2032,36748,0
2384,36761,0
2848,36749,0
3412,36778,0
4010,36786,0
4095,36765,0
4095,36805,0
4095,36793,0
4095,36754,0
4095,36774,0
4095,36771,0
4095,36773,0
3912,36792,0
3536,36764,0
3068,36767,0
2572,36773,0
2152,36783,0
1828,36780,0
1672,36783,0
1648,36790,0
1791,36762,0
2064,36804,0
2424,36811,0
2856,36776,0
3360,36778,0
3720,36764,0
4095,36813,0
4095,36805,0
4095,36792,0
4032,36793,0
3680,36774,0
3144,36819,0
2496,36812,0
1792,36795,0
1116,36807,0
572,36776,0
157,36826,0
0,36820,0
0,36805,0
161,36804,0
533,36798,0
1046,36814,0
1672,36825,0
2288,36825,0
2932,36806,0
3536,36808,0
3936,36798,0
4088,36832,0
4088,36823,0
4021,36817,0
3636,36825,0
3156,36810,0
2448,36846,0
1748,36824,0
1056,36823,0
472,36821,0
65,36815,0
0,36849,0
0,36828,0
108,36819,0
482,36827,0
1008,36822,0
1625,36848,0
2296,36846,0
2949,36831,0
3496,36838,0
3932,36845,0
4095,36863,0
4095,36832,0
4048,36839,0
3608,36858,0
3064,36847,0
2416,36865,0
1700,36839,0
1022,36869,0
460,36846,0
61,36834,0
0,36869,0
0,36857,0
152,36848,0
540,36856,0
1066,36835,0
1668,36875,0
2320,36868,0
2964,36852,0
3528,36856,0
3952,36845,0
4092,36884,0
4088,36861,0
3964,36852,0
3656,36862,0
3092,36887,0
2424,36893,0
1714,36865,0
1042,36868,0
492,36846,0
111,36877,0
0,36884,0
17,36877,0
251,36866,0
674,36867,0
1232,36888,0
1860,36890,0
2512,36874,0
3160,36869,0
3696,36879,0
4072,36868,0
4092,36885,0
4092,36887,0
3952,36873,0
3572,36875,0
3008,36858,0
2353,36891,0
1662,36892,0
998,36871,0
484,36878,0
140,36866,0
0,36895,0
43,36910,0
296,36877,0
712,36872,0
1304,36862,0
1930,36893,0
2618,36902,0
3264,36885,0
3818,36876,0
4095,36879,0
4095,36905,0
4095,36910,0
3972,36876,0
3586,36886,0
3028,36866,0
2354,36906,0
1664,36910,0
1002,36889,0
499,36912,0
156,36906,0
28,36908,0
104,36885,0
383,36912,0
820,36897,0
1384,36882,0
2020,36893,0
2676,36878,0
3312,36909,0
3816,36897,0
4092,36894,0
4094,36893,0
4088,36863,0
3904,36914,0
3492,36917,0
2916,36887,0
2260,36882,0
1560,36872,0
940,36910,0
440,36899,0
141,36890,0
25,36891,0
132,36896,0
422,36916,0
906,36904,0
1476,36893,0
2118,36898,0
2796,36885,0
3416,36915,0
3976,36912,0
4095,36903,0
4095,36909,0
4084,36905,0
3888,36915,0
3454,36911,0
2884,36925,0
2216,36928,0
1533,36907,0
924,36908,0
474,36891,0
185,36932,0
79,36930,0
188,36913,0
510,36909,0
984,36902,0
1568,36937,0
2200,36931,0
2864,36908,0
3480,36909,0
3936,36896,0
4095,36936,0
4095,36946,0
4095,36913,0
3922,36913,0
3473,36896,0
2876,36939,0
2193,36939,0
1488,36918,0
882,36917,0
451,36888,0
163,36937,0
82,36945,0
246,36923,0
581,36897,0
1058,36917,0
1622,36920,0
2281,36941,0
2964,36917,0
3528,36913,0
3980,36905,0
4095,36924,0
4095,36937,0
4072,36901,0
3812,36913,0
3348,36902,0
2752,36913,0
2092,36927,0
1404,36899,0
816,36899,0
381,36889,0
156,36905,0
82,36913,0
234,36885,0
592,36880,0
1101,36865,0
1722,36899,0
2388,36898,0
3072,36871,0
3668,36871,0
4080,36841,0
4095,36876,0
4095,36869,0
4094,36851,0
3872,36849,0
3328,36852,0
2752,36816,0
2058,36831,0
1392,36853,0
816,36838,0
418,36851,0
208,36821,0
177,36810,0
358,36796,0
725,36824,0
1242,36824,0
1864,36795,0
2536,36782,0
3168,36784,0
3760,36786,0
4084,36805,0
4092,36761,0
4094,36762,0
4064,36740,0
3812,36775,0
3416,36773,0
2800,36739,0
2132,36732,0
1466,36711,0
904,36746,0
489,36743,0
281,36715,0
279,36714,0
464,36692,0
858,36716,0
1389,36712,0
2596,36559,0
3244,36696,0
3800,36695,0
4095,36681,0
4095,36665,0
4095,36682,0
4056,36672,0
3768,36649,0
3296,36648,0
2692,36625,0
2041,36655,0
1412,36647,0
874,36628,0
502,36618,0
320,36599,0
332,36632,0
550,36635,0
944,36600,0
1460,36597,0
2066,36577,0
2756,36618,0
3396,36613,0
3944,36582,0
4095,36584,0
4095,36562,0
4095,36597,0
4095,36583,0
3736,36567,0
3266,36564,0
2624,36546,0
1958,36579,0
1328,36556,0
800,36559,0
446,36576,0
286,36542,0
321,36569,0
553,36559,0
973,36549,0
1496,36518,0
2109,36556,0
2760,36562,0
3376,36533,0
3912,36534,0
4095,36520,0
4095,36548,0
4095,36553,0
4008,36530,0
3696,36525,0
3152,36512,0
2532,36556,0
1872,36528,0
1244,36524,0
724,36534,0
378,36501,0
224,36544,0
290,36526,0
553,36517,0
984,36525,0
1548,36512,0
2164,36546,0
2820,36514,0
3440,36517,0
3968,36518,0
4095,36520,0
4095,36521,0
4084,36544,0
3966,36531,0
3600,36550,0
3104,36536,0
2440,36551,0
1780,36558,0
1161,36539,0
676,36535,0
348,36523,0
232,36554,0
311,36557,0
600,36538,0
1036,36544,0
1594,36520,0
2216,36564,0
2868,36558,0
3476,36547,0
4008,36544,0
4095,36528,0
4095,36564,0
4095,36575,0
4032,36534,0
3634,36546,0
3076,36535,0
2441,36569,0
1748,36584,0
1120,36552,0
620,36566,0
339,36545,0
238,36582,0
325,36587,0
634,36564,0
1090,36584,0
1658,36572,0
2296,36561,0
2936,36557,0
3600,36591,0
4024,36564,0
4095,36576,0
4094,36564,0
4084,36585,0
3928,36584,0
3524,36570,0
2968,36577,0
2320,36580,0
1660,36596,0
1064,36605,0
598,36576,0
322,36588,0
229,36573,0
357,36595,0
664,36609,0
1134,36585,0
1728,36593,0
2372,36582,0
3040,36608,0
3648,36620,0
4095,36587,0
4095,36599,0
4095,36598,0
4095,36599,0
3920,36624,0
3540,36609,0
2916,36600,0
2248,36608,0
1596,36628,0
1012,36614,0
562,36628,0
307,36630,0
243,36613,0
384,36618,0
717,36598,0
1202,36638,0
1777,36619,0
2424,36623,0
3057,36620,0
3632,36630,0
4072,36655,0
4095,36636,0
4092,36634,0
4088,36632,0
3904,36645,0
3400,36661,0
2896,36638,0
2192,36636,0
1513,36644,0
928,36646,0
492,36672,0
247,36652,0
210,36650,0
392,36656,0
741,36657,0
1260,36677,0
1845,36655,0
2520,36662,0
3116,36682,0
3680,36670,0
4092,36687,0
4095,36673,0
4095,36669,0
4072,36701,0
3808,36673,0
3352,36679,0
2752,36660,0
2106,36698,0
1433,36694,0
878,36677,0
466,36679,0
245,36666,0
226,36703,0
406,36690,0
770,36681,0
1278,36683,0
1888,36671,0
2520,36705,0
3216,36694,0
3785,36687,0
4095,36691,0
4095,36675,0
4095,36717,0
4095,36699,0
3828,36694,0
3300,36703,0
2688,36672,0
2028,36716,0
1362,36705,0
808,36688,0
419,36698,0
219,36718,0
224,36682,0
431,36670,0
802,36695,0
1336,36682,0
1930,36696,0
2584,36706,0
3200,36718,0
3752,36697,0
4092,36695,0
4095,36685,0
4094,36694,0
4036,36715,0
3720,36693,0
3224,36693,0
2604,36697,0
1940,36709,0
1308,36721,0
776,36691,0
388,36695,0
208,36690,0
242,36703,0
478,36716,0
890,36693,0
1432,36692,0
2060,36696,0
2704,36679,0
3340,36713,0
3896,36694,0
4095,36695,0
4095,36688,0
4092,36709,0
4040,36688,0
3716,36698,0
3220,36701,0
2600,36686,0
1944,36670,0
1308,36704,0
788,36715,0
439,36682,0
270,36693,0
310,36672,0
496,36714,0
952,36716,0
1492,36673,0
2088,36686,0
2732,36680,0
3352,36690,0
3872,36710,0
4095,36677,0
4094,36680,0
4095,36682,0
4080,36694,0
3720,36691,0
3180,36668,0
2538,36682,0
1856,36667,0
1203,36702,0
690,36702,0
336,36669,0
221,36676,0
284,36676,0
532,36695,0
973,36698,0
1528,36675,0
2156,36662,0
2816,36669,0
3436,36674,0
3960,36697,0
4095,36662,0
4095,36662,0
4092,36661,0
4008,36670,0
3672,36680,0
3160,36668,0
2552,36669,0
1912,36670,0
1320,36688,0
833,36692,0
525,36659,0
408,36650,0
490,36652,0
764,36682,0
1200,36684,0
1766,36655,0
2392,36664,0
3048,36655,0
3652,36678,0
4095,36680,0
4095,36658,0
4095,36652,0
4095,36655,0
3984,36688,0
3601,36684,0
2392,36669,0
1740,36688,0
1136,36675,0
664,36671,0
365,36674,0
258,36664,0
374,36656,0
656,36649,0
1110,36683,0
1676,36676,0
2284,36657,0
2920,36663,0
3520,36637,0
3984,36682,0
4094,36685,0
4092,36656,0
4095,36658,0
3896,36645,0
3528,36684,0
2912,36685,0
2304,36653,0
1609,36658,0
1020,36656,0
558,36670,0
268,36675,0
195,36658,0
336,36654,0
664,36656,0
1126,36676,0
1730,36698,0
2360,36661,0
3048,36662,0
3580,36669,0
4040,36685,0
4095,36674,0
4095,36696,0
4080,36671,0
3856,36651,0
3416,36695,0
2850,36686,0
2192,36661,0
1524,36670,0
936,36647,0
502,36695,0
252,36700,0
193,36670,0
341,36670,0
672,36660,0
1156,36696,0
1748,36695,0
2384,36672,0
3024,36671,0
3688,36674,0
4095,36684,0
4095,36696,0
4095,36674,0
4095,36675,0
3896,36684,0
3444,36674,0
2808,36697,0
2141,36684,0
1485,36672,0
906,36680,0
473,36687,0
242,36692,0
206,36707,0
375,36692,0
728,36693,0
1218,36692,0
1816,36667,0
2442,36705,0
3080,36712,0
3640,36696,0
4064,36680,0
4095,36677,0
4095,36711,0
4040,36721,0
3736,36689,0
3252,36698,0
2644,36695,0
1985,36714,0
1344,36726,0
810,36697,0
434,36698,0
238,36695,0
288,36726,0
519,36730,0
950,36696,0
1512,36712,0
2170,36705,0
2888,36713,0
3544,36735,0
4095,36711,0
4095,36711,0
4095,36699,0
4095,36726,0
4095,36716,0
4095,36707,0
3936,36693,0
3624,36709,0
3208,36743,0
2788,36734,0
2424,36701,0
2168,36716,0
2076,36701,0
2152,36727,0
2385,36744,0
2768,36715,0
3272,36718,0
3844,36714,0
4095,36743,0
4095,36743,0
4095,36720,0
4095,36724,0
4095,36708,0
4095,36736,0
4095,36758,0
4095,36730,0
4095,36730,0
3938,36720,0
3536,36753,0
3060,36758,0
2565,36738,0
2144,36738,0
1849,36723,0
1720,36767,0
1732,36761,0
1900,36740,0
2148,36758,0
2512,36743,0
2928,36718,0
3336,36751,0
3700,36770,0
3964,36752,0
4056,36748,0
4000,36770,0
3756,36766,0
3304,36750,0
2732,36761,0
2084,36742,0
1388,36773,0
763,36786,0
276,36760,0
0,36766,0
0,36772,0
0,36782,0
254,36792,0
674,36773,0
1220,36773,0
1858,36765,0
2512,36775,0
3144,36789,0
3680,36783,0
4048,36780,0
4095,36780,0
4095,36785,0
3892,36798,0
3428,36787,0
2824,36781,0
2152,36774,0
1393,36790,0
744,36794,0
217,36798,0
0,36798,0
0,36760,0
0,36784,0
212,36785,0
613,36813,0
1146,36805,0
1749,36779,0
2392,36794,0
3008,36772,0
3536,36815,0
3904,36813,0
4072,36789,0
4048,36793,0
3816,36784,0
3408,36807,0
2760,36820,0
2092,36800,0
1370,36804,0
714,36786,0
201,36832,0
0,36829,0
0,36799,0
0,36810,0
244,36782,0
680,36827,0
1230,36821,0
1883,36806,0
2517,36810,0
3172,36797,0
3624,36803,0
4024,36818,0
4084,36805,0
4052,36819,0
3792,36819,0
3340,36793,0
2728,36830,0
2036,36833,0
1344,36809,0
721,36817,0
232,36786,0
0,36832,0
0,36843,0
20,36803,0
336,36823,0
786,36809,0
1364,36830,0
2008,36841,0
2650,36813,0
3256,36807,0
3832,36815,0
4095,36832,0
4095,36839,0
4095,36827,0
3872,36826,0
3392,36835,0
2768,36826,0
2036,36856,0
1336,36833,0
732,36828,0
259,36840,0
0,36847,0
0,36818,0
65,36835,0
397,36841,0
877,36841,0
1468,36841,0
2104,36828,0
2764,36867,0
3364,36855,0
3856,36849,0
4095,36845,0
4095,36824,0
4068,36871,0
3776,36867,0
3290,36842,0
2676,36854,0
1990,36831,0
1308,36884,0
710,36874,0
252,36850,0
0,36855,0
0,36845,0
97,36878,0
470,36880,0
976,36857,0
1597,36855,0
2272,36854,0
2944,36885,0
3512,36888,0
3984,36866,0
4095,36863,0
4095,36856,0
3748,36896,0
3272,36860,0
2644,36866,0
1960,36855,0
1296,36849,0
698,36846,0
266,36895,0
37,36889,0
2,36864,0
174,36875,0
532,36863,0
1034,36896,0
1644,36897,0
2292,36869,0
2932,36879,0
3512,36866,0
3952,36900,0
4094,36889,0
4095,36879,0
4095,36878,0
3760,36863,0
3248,36899,0
2596,36902,0
1884,36884,0
1200,36885,0
621,36867,0
202,36918,0
0,36908,0
0,36883,0
206,36889,0
588,36874,0
1112,36909,0
1720,36896,0
2373,36899,0
3016,36911,0
3578,36912,0
4008,36903,0
4095,36905,0
4094,36909,0
3864,36894,0
3656,36899,0
3132,36887,0
2488,36909,0
1788,36923,0
1122,36890,0
564,36894,0
176,36897,0
0,36903,0
0,36920,0
213,36896,0
616,36884,0
1136,36889,0
1781,36869,0
2444,36907,0
3098,36900,0
3674,36872,0
4088,36887,0
4095,36878,0
4095,36899,0
3992,36864,0
3612,36867,0
3080,36871,0
2424,36870,0
1736,36880,0
1056,36850,0
488,36858,0
149,36848,0
0,36865,0
0,36851,0
241,36833,0
652,36826,0
1208,36827,0
1832,36825,0
2496,36845,0
3140,36808,0
3700,36810,0
4072,36802,0
4095,36792,0
4092,36812,0
3968,36781,0
3600,36791,0
3048,36781,0
2400,36803,0
1714,36782,0
1076,36770,0
550,36761,0
201,36742,0
49,36766,0
123,36764,0
386,36734,0
836,36733,0
1400,36721,0
2026,36731,0
2714,36724,0
3336,36702,0
3936,36704,0
4092,36686,0
4095,36670,0
4092,36672,0
3976,36684,0
3616,36677,0
3088,36678,0
2440,36663,0
1764,36648,0
1140,36667,0
636,36666,0
296,36625,0
178,36625,0
254,36607,0
553,36643,0
960,36629,0
1521,36594,0
2144,36598,0
2800,36587,0
3400,36604,0
3908,36609,0
4095,36573,0
4095,36566,0
4095,36572,0
4024,36575,0
3626,36590,0
3072,36557,0
2396,36552,0
1704,36558,0
1073,36537,0
606,36557,0
294,36533,0
168,36537,0
286,36542,0
570,36529,0
1012,36542,0
1580,36531,0
2208,36528,0
2848,36531,0
3448,36514,0
3936,36515,0
4095,36490,0
4095,36518,0
4092,36511,0
3908,36498,0
3472,36499,0
2904,36481,0
2256,36515,0
1574,36501,0
972,36491,0
510,36492,0
218,36468,0
139,36504,0
238,36499,0
563,36469,0
1033,36485,0
1627,36453,0
2277,36497,0
2932,36485,0
3552,36471,0
3984,36477,0
4095,36446,0
4095,36481,0
4095,36490,0
3936,36464,0
3420,36470,0
2856,36477,0
2176,36461,0
1505,36476,0
905,36453,0
450,36480,0
184,36459,0
122,36453,0
260,36443,0
596,36478,0
1072,36476,0
1665,36453,0
2304,36454,0
2944,36438,0
3536,36486,0
4012,36473,0
4094,36457,0
4094,36460,0
4080,36450,0
3824,36478,0
3456,36485,0
2834,36455,0
2162,36457,0
1478,36440,0
872,36481,0
423,36475,0
165,36456,0
133,36464,0
285,36458,0
672,36487,0
1145,36485,0
1744,36459,0
2360,36474,0
3016,36471,0
3592,36484,0
4040,36473,0
4095,36498,0
4095,36486,0
4084,36482,0
3784,36469,0
3312,36471,0
2722,36461,0
2042,36494,0
1396,36504,0
798,36480,0
404,36483,0
168,36476,0
148,36486,0
312,36514,0
690,36476,0
1186,36479,0
1788,36485,0
2464,36488,0
3120,36515,0
3712,36496,0
4095,36497,0
4095,36495,0
4095,36523,0
4095,36526,0
3784,36506,0
3296,36505,0
2680,36502,0
2000,36516,0
1352,36537,0
784,36509,0
380,36497,0
172,36500,0
176,36498,0
365,36510,0
742,36536,0
1260,36543,0
1860,36526,0
2504,36524,0
3132,36528,0
3696,36545,0
4080,36551,0
4095,36529,0
4095,36533,0
4024,36539,0
3720,36554,0
3208,36573,0
2596,36545,0
1919,36537,0
1269,36537,0
730,36572,0
341,36579,0
156,36546,0
180,36555,0
414,36544,0
806,36573,0
1354,36575,0
1960,36558,0
2608,36553,0
3256,36544,0
3785,36585,0
4095,36578,0
4095,36585,0
4088,36557,0
4000,36583,0
3644,36569,0
3120,36578,0
2480,36551,0
1802,36591,0
1157,36593,0
626,36578,0
288,36584,0
118,36564,0
173,36603,0
416,36605,0
828,36584,0
1368,36584,0
1996,36583,0
2640,36595,0
3280,36610,0
3816,36589,0
4095,36587,0
4095,36585,0
4095,36598,0
4057,36618,0
3682,36593,0
3136,36598,0
2474,36597,0
1785,36614,0
1130,36620,0
594,36605,0
278,36608,0
116,36602,0
426,36639,0
846,36607,0
1404,36621,0
2012,36623,0
2656,36631,0
3328,36642,0
3808,36614,0
4095,36627,0
4095,36620,0
4094,36643,0
3932,36646,0
3556,36612,0
3136,36628,0
2352,36626,0
1664,36641,0
1048,36650,0
552,36630,0
222,36628,0
96,36623,0
176,36633,0
453,36645,0
899,36627,0
1473,36638,0
2113,36635,0
2786,36620,0
3408,36653,0
3938,36658,0
4095,36644,0
4095,36649,0
4095,36629,0
3965,36659,0
3600,36658,0
2976,36639,0
2344,36637,0
1634,36652,0
1022,36649,0
536,36630,0
227,36662,0
132,36662,0
216,36651,0
510,36642,0
965,36641,0
1533,36639,0
2168,36662,0
2848,36637,0
3416,36637,0
3912,36638,0
4095,36633,0
4095,36658,0
4080,36649,0
3892,36637,0
3472,36638,0
2960,36646,0
2272,36663,0
1688,36633,0
968,36629,0
480,36638,0
191,36617,0
106,36655,0
242,36632,0
552,36635,0
1033,36635,0
1612,36621,0
2264,36651,0
2872,36636,0
3464,36605,0
3944,36641,0
4095,36638,0
4095,36647,0
4072,36634,0
3836,36611,0
3392,36648,0
2804,36643,0
2136,36624,0
1470,36633,0
889,36607,0
444,36641,0
192,36639,0
150,36634,0
308,36634,0
650,36614,0
1141,36647,0
1748,36639,0
2402,36620,0
3112,36638,0
3720,36617,0
4095,36652,0
4095,36646,0
4095,36626,0
4095,36626,0
3940,36614,0
3460,36660,0
2876,36658,0
2232,36628,0
1570,36637,0
988,36621,0
556,36629,0
312,36641,0
256,36637,0
426,36650,0
736,36621,0
1221,36625,0
1786,36630,0
2440,36623,0
3028,36651,0
3600,36658,0
4024,36625,0
4094,36639,0
4092,36634,0
4040,36634,0
3728,36664,0
3240,36633,0
2624,36635,0
1952,36636,0
1302,36611,0
725,36655,0
305,36658,0
93,36640,0
92,36633,0
290,36633,0
663,36650,0
1200,36662,0
1814,36636,0
2456,36645,0
3096,36641,0
3682,36626,0
4088,36654,0
4095,36640,0
4095,36664,0
4040,36641,0
3720,36650,0
3228,36657,0
2596,36642,0
1916,36663,0
1264,36652,0
705,36627,0
310,36645,0
110,36631,0
108,36668,0
317,36669,0
710,36639,0
1216,36652,0
1828,36631,0
2497,36647,0
3106,36664,0
3704,36640,0
4064,36646,0
4095,36639,0
4095,36637,0
4082,36669,0
3745,36645,0
3209,36642,0
2560,36649,0
1852,36633,0
1192,36669,0
640,36650,0
246,36643,0
84,36656,0
107,36638,0
320,36667,0
740,36651,0
1270,36653,0
1888,36667,0
2532,36657,0
3156,36642,0
3704,36652,0
4080,36652,0
4095,36661,0
4095,36679,0
3972,36658,0
3616,36650,0
3080,36663,0
2432,36659,0
1744,36679,0
1100,36662,0
564,36661,0
208,36660,0
44,36658,0
62,36684,0
302,36664,0
708,36673,0
1264,36668,0
1908,36658,0
2584,36695,0
3248,36678,0
3826,36664,0
4095,36679,0
4095,36659,0
4095,36705,0
4072,36680,0
3764,36668,0
3316,36676,0
2684,36699,0
2070,36676,0
1488,36711,0
1045,36676,0
776,36680,0
704,36714,0
853,36679,0
1208,36684,0
1728,36689,0
2407,36702,0
3104,36720,0
3860,36693,0
4095,36697,0
4095,36686,0
4095,36712,0
4095,36718,0
4095,36694,0
4095,36696,0
4095,36683,0
4095,36719,0
4095,36727,0
3948,36695,0
3666,36703,0
3381,36690,0
3140,36715,0
2976,36736,0
2936,36705,0
2964,36709,0
3130,36704,0
3376,36730,0
3682,36742,0
4048,36717,0
4095,36706,0
4095,36732,0
4095,36725,0
4095,36713,0
4056,36747,0
3808,36712,0
3368,36724,0
2808,36711,0
2168,36746,0
1520,36724,0
928,36724,0
472,36734,0
212,36709,0
96,36750,0
198,36752,0
480,36724,0
904,36741,0
1440,36714,0
2044,36750,0
2656,36749,0
3208,36727,0
3744,36742,0
4040,36718,0
4095,36766,0
4040,36760,0
3712,36742,0
3188,36746,0
2504,36721,0
1773,36759,0
1084,36753,0
450,36737,0
0,36769,0
0,36752,0
0,36749,0
260,36746,0
678,36752,0
1216,36775,0
1826,36751,0
2448,36753,0
3040,36736,0
3512,36762,0
3828,36778,0
3944,36755,0
3864,36761,0
3568,36752,0
3056,36774,0
2432,36790,0
1721,36772,0
1033,36763,0
424,36746,0
0,36772,0
0,36788,0
0,36756,0
0,36760,0
286,36754,0
737,36766,0
1307,36794,0
1938,36756,0
2552,36754,0
3128,36767,0
3588,36759,0
3880,36791,0
4032,36773,0
3838,36769,0
3504,36757,0
3000,36759,0
2360,36754,0
1652,36751,0
972,36794,0
384,36763,0
0,36773,0
0,36753,0
0,36801,0
54,36796,0
375,36773,0
836,36771,0
1408,36769,0
2024,36785,0
2648,36797,0
3232,36777,0
3680,36773,0
3944,36778,0
4032,36791,0
3984,36811,0
3616,36781,0
3080,36786,0
2400,36786,0
1689,36781,0
989,36805,0
396,36793,0
0,36796,0
0,36792,0
0,36770,0
89,36816,0
425,36804,0
921,36797,0
1516,36799,0
2148,36781,0
2778,36794,0
3344,36775,0
3776,36815,0
4040,36798,0
4095,36805,0
3928,36786,0
3568,36818,0
3020,36822,0
2352,36807,0
1648,36802,0
968,36797,0
412,36833,0
9,36830,0
0,36805,0
0,36808,0
128,36797,0
492,36835,0
1008,36834,0
1621,36816,0
2283,36819,0
2936,36815,0
3506,36822,0
3930,36835,0
4095,36812,0
4095,36821,0
3960,36809,0
3584,36820,0
3016,36831,0
2368,36818,0
1628,36815,0
960,36786,0
420,36812,0
43,36832,0
0,36834,0
0,36815,0
194,36817,0
588,36803,0
1120,36837,0
1728,36828,0
2392,36805,0
3000,36820,0
3544,36804,0
3984,36851,0
4092,36842,0
4095,36821,0
3904,36822,0
3504,36808,0
2928,36849,0
2256,36841,0
1560,36820,0
880,36823,0
338,36800,0
0,36844,0
0,36844,0
0,36828,0
201,36834,0
628,36818,0
1158,36855,0
1806,36868,0
2454,36839,0
3112,36844,0
3600,36851,0
4008,36849,0
4080,36845,0
4072,36845,0
3880,36832,0
3452,36847,0
2872,36834,0
2184,36862,0
1480,36855,0
834,36840,0
312,36844,0
0,36841,0
0,36850,0
0,36871,0
241,36851,0
673,36850,0
1228,36839,0
1848,36835,0
2488,36867,0
3116,36861,0
3712,36846,0
4080,36843,0
4095,36835,0
4095,36855,0
3920,36852,0
3472,36824,0
2864,36841,0
2144,36819,0
1422,36857,0
796,36858,0
283,36826,0
0,36820,0
0,36834,0
3,36816,0
282,36823,0
712,36818,0
1266,36822,0
1896,36819,0
2536,36821,0
3148,36800,0
3664,36800,0
4004,36788,0
4084,36793,0
4060,36810,0
3808,36788,0
3340,36777,0
2740,36771,0
2052,36768,0
1360,36794,0
742,36764,0
258,36755,0
0,36749,0
0,36730,0
32,36767,0
343,36744,0
828,36727,0
1408,36722,0
2065,36700,0
2738,36743,0
3320,36725,0
3808,36711,0
4095,36697,0
4095,36679,0
4095,36710,0
3816,36677,0
3352,36682,0
2756,36662,0
2088,36658,0
1405,36688,0
798,36682,0
328,36648,0
64,36637,0
0,36639,0
149,36610,0
475,36651,0
986,36624,0
1568,36609,0
2208,36616,0
2860,36584,0
3464,36626,0
3992,36607,0
4095,36578,0
4095,36583,0
4080,36554,0
3892,36596,0
3416,36586,0
2802,36557,0
2116,36555,0
1419,36543,0
820,36561,0
370,36542,0
118,36528,0
64,36529,0
234,36521,0
576,36542,0
1065,36515,0
1652,36523,0
2288,36521,0
2936,36522,0
3512,36503,0
3968,36546,0
4094,36516,0
4095,36484,0
4056,36489,0
3772,36462,0
3280,36505,0
2668,36500,0
1988,36484,0
1312,36476,0
737,36450,0
313,36484,0
94,36491,0
62,36455,0
228,36466,0
616,36445,0
1120,36481,0
1748,36479,0
2417,36449,0
3064,36453,0
3664,36427,0
4095,36467,0
4095,36463,0
4095,36442,0
4068,36436,0
3746,36431,0
3250,36457,0
2620,36467,0
1944,36433,0
1248,36438,0
688,36411,0
281,36424,0
57,36441,0
49,36433,0
256,36432,0
618,36428,0
1140,36428,0
1748,36460,0
2400,36427,0
3032,36432,0
3604,36433,0
4044,36412,0
4095,36440,0
4092,36452,0
4024,36418,0
3688,36432,0
3184,36403,0
2552,36448,0
1868,36441,0
1216,36427,0
650,36434,0
249,36419,0
49,36454,0
63,36435,0
278,36430,0
680,36434,0
1212,36413,0
1812,36454,0
2490,36438,0
3124,36434,0
4064,36469,0
4095,36442,0
4092,36444,0
3992,36447,0
3660,36451,0
3096,36428,0
2472,36453,0
1760,36472,0
1112,36442,0
582,36447,0
202,36435,0
52,36459,0
89,36472,0
326,36441,0
728,36456,0
1280,36454,0
1884,36448,0
2536,36475,0
3168,36463,0
3776,36453,0
4095,36445,0
4095,36442,0
4095,36483,0
4032,36470,0
3648,36455,0
3088,36452,0
2416,36446,0
1708,36492,0
1051,36494,0
545,36459,0
202,36471,0
36,36469,0
124,36469,0
380,36491,0
805,36502,0
1360,36469,0
1984,36465,0
2640,36456,0
3260,36499,0
3792,36502,0
4094,36480,0
4095,36492,0
4088,36471,0
3928,36510,0
3536,36515,0
2972,36494,0
2300,36495,0
1620,36473,0
992,36521,0
502,36526,0
165,36490,0
36,36497,0
119,36491,0
400,36530,0
853,36526,0
1440,36500,0
2088,36507,0
2758,36494,0
3384,36533,0
3872,36542,0
4095,36510,0
4095,36522,0
4095,36502,0
3968,36534,0
3480,36515,0
2912,36501,0
2248,36525,0
1568,36491,0
941,36540,0
456,36521,0
156,36550,0
50,36555,0
149,36531,0
448,36539,0
904,36539,0
1472,36556,0
2100,36570,0
2684,36545,0
3368,36544,0
3868,36544,0
4095,36555,0
4094,36567,0
4080,36551,0
3866,36552,0
3504,36542,0
2900,36549,0
2218,36566,0
1512,36556,0
896,36552,0
418,36561,0
123,36535,0
60,36567,0
174,36573,0
517,36558,0
974,36560,0
1572,36545,0
2192,36592,0
2848,36566,0
3448,36590,0
3936,36568,0
4095,36584,0
4088,36563,0
4095,36566,0
3832,36560,0
3424,36590,0
2784,36574,0
2116,36572,0
1440,36575,0
841,36552,0
383,36598,0
120,36577,0
66,36579,0
211,36574,0
529,36565,0
1020,36595,0
1594,36590,0
2264,36567,0
2952,36582,0
3540,36557,0
4020,36602,0
4095,36593,0
4095,36573,0
4095,36573,0
3832,36557,0
3362,36605,0
2748,36611,0
2068,36577,0
1396,36589,0
804,36580,0
340,36575,0
115,36578,0
78,36580,0
231,36582,0
582,36605,0
1066,36574,0
1678,36577,0
2312,36578,0
2964,36592,0
3540,36608,0
3988,36585,0
4095,36585,0
4095,36583,0
4095,36574,0
3760,36602,0
3328,36581,0
2668,36581,0
2004,36598,0
1322,36571,0
749,36605,0
320,36587,0
96,36578,0
69,36580,0
260,36569,0
630,36597,0
1146,36602,0
1736,36580,0
2395,36581,0
3029,36559,0
3592,36602,0
4088,36600,0
4094,36583,0
4094,36596,0
4048,36581,0
3696,36602,0
3070,36596,0
2561,36598,0
1880,36576,0
1232,36578,0
672,36577,0
259,36578,0
56,36605,0
66,36581,0
260,36566,0
648,36578,0
1172,36565,0
1794,36600,0
2432,36585,0
3080,36578,0
3640,36580,0
4064,36551,0
4095,36586,0
4095,36586,0
4095,36569,0
3776,36578,0
3265,36558,0
2629,36605,0
1948,36580,0
1296,36567,0
754,36570,0
401,36556,0
222,36589,0
242,36601,0
485,36590,0
886,36585,0
1418,36565,0
2021,36594,0
2672,36588,0
3332,36564,0
3824,36581,0
4095,36592,0
4095,36564,0
4094,36569,0
4016,36568,0
3660,36569,0
3128,36594,0
2504,36577,0
1820,36577,0
1180,36574,0
640,36555,0
284,36592,0
112,36578,0
151,36564,0
362,36573,0
780,36551,0
1338,36595,0
1964,36575,0
2624,36567,0
3252,36574,0
3802,36548,0
4095,36592,0
4095,36601,0
4095,36574,0
3981,36569,0
3636,36560,0
3008,36572,0
2384,36573,0
1688,36597,0
1044,36567,0
536,36574,0
197,36572,0
53,36575,0
132,36565,0
390,36599,0
832,36584,0
1368,36583,0
2005,36574,0
2664,36550,0
3280,36586,0
3800,36593,0
4095,36563,0
4095,36584,0
4080,36556,0
3936,36588,0
3540,36590,0
3044,36577,0
2362,36577,0
1666,36569,0
1024,36601,0
510,36605,0
186,36575,0
68,36576,0
169,36573,0
444,36588,0
904,36607,0
1452,36577,0
2728,36615,0
3330,36588,0
3836,36581,0
4095,36583,0
4095,36555,0
4080,36583,0
3896,36593,0
3476,36615,0
2914,36587,0
2256,36592,0
1592,36575,0
974,36612,0
482,36625,0
200,36583,0
90,36594,0
206,36581,0
496,36618,0
958,36619,0
1526,36595,0
2196,36602,0
2848,36603,0
3472,36599,0
3984,36614,0
4095,36610,0
4095,36610,0
4095,36600,0
3904,36594,0
3404,36635,0
2817,36615,0
2145,36603,0
1450,36608,0
859,36610,0
412,36640,0
167,36621,0
128,36619,0
298,36602,0
649,36635,0
1177,36619,0
1800,36593,0
2512,36638,0
3176,36641,0
3816,36616,0
4095,36619,0
4095,36604,0
4095,36642,0
4095,36647,0
4094,36618,0
3940,36624,0
3624,36600,0
3212,36634,0
2760,36645,0
2360,36618,0
2112,36632,0
1968,36610,0
2016,36647,0
2225,36646,0
2608,36621,0
3112,36631,0
3700,36620,0
4095,36657,0
4095,36653,0
4095,36634,0
4095,36637,0
4095,36637,0
4095,36640,0
4095,36642,0
4095,36668,0
4095,36639,0
4024,36664,0
3720,36630,0
3296,36664,0
2848,36659,0
2428,36637,0
2096,36647,0
1892,36625,0
1836,36669,0
1918,36668,0
2128,36644,0
2430,36656,0
2804,36627,0
3196,36673,0
3556,36672,0
3988,36646,0
3996,36667,0
3984,36644,0
3872,36678,0
3480,36688,0
2944,36658,0
2288,36650,0
1600,36657,0
944,36667,0
403,36692,0
20,36665,0
0,36683,0
0,36682,0
141,36655,0
533,36677,0
1036,36667,0
1628,36697,0
2264,36673,0
2888,36670,0
3432,36672,0
3856,36675,0
4072,36699,0
4088,36681,0
3920,36674,0
3544,36678,0
3016,36665,0
2320,36684,0
1621,36693,0
920,36672,0
342,36674,0
0,36665,0
0,36703,0
0,36681,0
109,36673,0
451,36687,0
964,36666,0
1554,36702,0
2213,36698,0
2848,36686,0
3412,36686,0
3842,36671,0
4040,36697,0
4095,36705,0
3897,36690,0
3500,36684,0
2964,36675,0
2256,36680,0
1534,36681,0
877,36679,0
330,36718,0
0,36692,0
0,36689,0
0,36670,0
137,36709,0
532,36718,0
1042,36687,0
1645,36700,0
2288,36697,0
2912,36683,0
3456,36726,0
3864,36698,0
4064,36698,0
4080,36695,0
3892,36684,0
3490,36716,0
2920,36726,0
2298,36696,0
1560,36695,0
887,36689,0
344,36721,0
0,36725,0
0,36695,0
0,36703,0
215,36702,0
608,36725,0
1174,36732,0
1798,36703,0
2480,36711,0
3048,36716,0
3583,36713,0
3992,36726,0
4092,36703,0
4080,36733,0
3880,36714,0
3464,36713,0
2880,36731,0
2210,36740,0
1490,36720,0
862,36712,0
341,36718,0
8,36695,0
0,36743,0
0,36726,0
272,36713,0
702,36724,0
1250,36700,0
1892,36732,0
2545,36731,0
3232,36713,0
3764,36723,0
4095,36701,0
4095,36741,0
4095,36748,0
3968,36714,0
3520,36717,0
2888,36713,0
2204,36735,0
1516,36745,0
872,36716,0
358,36722,0
52,36718,0
0,36742,0
40,36730,0
312,36726,0
792,36734,0
1364,36726,0
1992,36716,0
2648,36738,0
3296,36736,0
3776,36728,0
4092,36732,0
4094,36720,0
4080,36747,0
3848,36744,0
3416,36726,0
2824,36735,0
2148,36707,0
1455,36751,0
836,36756,0
354,36731,0
38,36729,0
0,36726,0
75,36752,0
391,36760,0
878,36727,0
1464,36731,0
2130,36740,0
2768,36735,0
3381,36758,0
3872,36742,0
4095,36737,0
4095,36741,0
4080,36751,0
3832,36767,0
3408,36741,0
2780,36731,0
2108,36747,0
1432,36743,0
824,36776,0
356,36749,0
76,36757,0
12,36743,0
145,36736,0
478,36773,0
976,36753,0
1544,36754,0
2176,36758,0
2840,36729,0
3472,36776,0
3904,36772,0
4095,36754,0
4094,36762,0
4095,36756,0
3856,36758,0
3372,36772,0
2744,36745,0
2056,36759,0
1346,36751,0
736,36763,0
292,36775,0
28,36756,0
0,36747,0
156,36758,0
494,36742,0
964,36743,0
1594,36753,0
2248,36759,0
2896,36746,0
3480,36748,0
3940,36719,0
4088,36746,0
4092,36751,0
4048,36730,0
3744,36720,0
3256,36699,0
2632,36746,0
1957,36734,0
1284,36710,0
705,36714,0
289,36684,0
62,36722,0
37,36722,0
226,36692,0
580,36693,0
1090,36666,0
1713,36703,0
2370,36698,0
3034,36665,0
3616,36651,0
4068,36652,0
4095,36660,0
4095,36668,0
4057,36652,0
3740,36653,0
3244,36630,0
1948,36479,0
1272,36619,0
726,36624,0
336,36618,0
134,36626,0
122,36617,0
344,36608,0
733,36582,0
1258,36590,0
1872,36557,0
2528,36599,0
3160,36594,0
3728,36568,0
4092,36557,0
4092,36556,0
4095,36556,0
4052,36565,0
3744,36533,0
3256,36532,0
2644,36522,0
2004,36538,0
1350,36530,0
800,36505,0
417,36506,0
239,36497,0
253,36501,0
478,36508,0
878,36474,0
1406,36474,0
2020,36469,0
2672,36452,0
3344,36477,0
3816,36479,0
4095,36457,0
4095,36463,0
4095,36450,0
4028,36427,0
3704,36418,0
3216,36450,0
2600,36454,0
1936,36423,0
1312,36427,0
794,36396,0
436,36432,0
263,36441,0
308,36413,0
518,36407,0
940,36398,0
1452,36402,0
2060,36412,0
2696,36396,0
3312,36380,0
3904,36391,0
4095,36372,0
4095,36405,0
4095,36397,0
4072,36371,0
3712,36373,0
3178,36353,0
2508,36390,0
1820,36388,0
1209,36359,0
707,36363,0
340,36348,0
210,36365,0
281,36366,0
532,36370,0
956,36366,0
1490,36351,0
2112,36355,0
2752,36351,0
3360,36345,0
3880,36359,0
4095,36362,0
4095,36334,0
4094,36338,0
3972,36348,0
3608,36332,0
3070,36366,0
2432,36363,0
1768,36334,0
1160,36346,0
648,36315,0
333,36361,0
192,36362,0
280,36338,0
556,36337,0
1002,36339,0
1568,36359,0
2204,36362,0
2868,36339,0
3444,36338,0
3952,36341,0
4095,36339,0
4095,36363,0
4095,36350,0
3928,36338,0
3536,36323,0
2984,36348,0
2340,36364,0
1676,36347,0
1068,36375,0
592,36352,0
298,36346,0
195,36356,0
298,36351,0
600,36379,0
1064,36359,0
1624,36356,0
2240,36351,0
2884,36345,0
3488,36370,0
3980,36378,0
4095,36357,0
4095,36361,0
4092,36342,0
3968,36369,0
3536,36388,0
2960,36359,0
2304,36358,0
1609,36328,0
1016,36383,0
550,36388,0
276,36356,0
194,36358,0
336,36348,0
656,36386,0
1124,36385,0
1692,36373,0
2316,36381,0
2956,36385,0
3536,36397,0
4008,36377,0
4095,36353,0
4095,36388,0
4080,36390,0
3856,36369,0
3424,36376,0
2852,36361,0
2184,36391,0
1528,36396,0
944,36372,0
504,36389,0
238,36381,0
188,36363,0
338,36396,0
668,36395,0
1156,36384,0
1756,36381,0
2408,36368,0
3072,36411,0
3652,36416,0
4095,36375,0
4095,36392,0
4095,36394,0
4095,36401,0
3860,36418,0
3409,36401,0
2810,36399,0
2176,36404,0
1472,36429,0
901,36419,0
474,36400,0
236,36431,0
192,36405,0
359,36434,0
698,36408,0
1192,36418,0
1749,36413,0
2408,36406,0
3040,36434,0
3604,36426,0
4032,36420,0
4095,36410,0
4092,36407,0
4056,36449,0
3762,36453,0
3296,36428,0
2720,36434,0
2024,36423,0
1392,36438,0
816,36451,0
389,36431,0
172,36437,0
165,36439,0
344,36427,0
725,36469,0
1248,36464,0
1828,36448,0
2497,36438,0
3132,36438,0
3736,36468,0
4068,36454,0
4095,36466,0
4095,36464,0
4040,36469,0
3736,36462,0
3248,36456,0
2640,36455,0
1972,36456,0
1330,36478,0
778,36464,0
388,36467,0
193,36468,0
221,36450,0
396,36487,0
784,36463,0
1296,36470,0
1896,36467,0
2538,36452,0
3160,36493,0
3704,36499,0
4095,36479,0
4095,36478,0
4095,36462,0
4095,36489,0
3764,36499,0
3248,36469,0
2614,36469,0
1908,36483,0
1240,36475,0
722,36495,0
350,36474,0
154,36473,0
198,36484,0
420,36491,0
825,36491,0
1354,36493,0
1960,36522,0
2520,36498,0
3224,36481,0
3764,36482,0
4088,36466,0
4095,36496,0
4095,36508,0
3996,36480,0
3632,36485,0
3120,36480,0
2500,36485,0
1816,36502,0
1184,36490,0
674,36483,0
313,36495,0
165,36474,0
200,36515,0
454,36516,0
868,36481,0
1432,36487,0
2050,36473,0
2728,36510,0
3360,36511,0
3848,36485,0
4095,36495,0
4095,36496,0
4095,36503,0
4064,36512,0
3608,36499,0
3068,36493,0
2440,36512,0
1764,36511,0
1152,36494,0
638,36494,0
304,36495,0
168,36497,0
236,36509,0
512,36497,0
924,36494,0
1458,36500,0
2076,36472,0
2720,36513,0
3324,36518,0
3824,36481,0
4094,36495,0
4095,36481,0
4088,36521,0
3928,36525,0
3608,36491,0
3044,36489,0
2372,36484,0
1700,36482,0
1073,36520,0
600,36503,0
290,36501,0
197,36499,0
303,36479,0
612,36525,0
1076,36521,0
2272,36515,0
2924,36510,0
3528,36493,0
4030,36517,0
4095,36502,0
4095,36499,0
4088,36493,0
3960,36500,0
3568,36480,0
3034,36523,0
2402,36523,0
1740,36495,0
1142,36502,0
666,36483,0
364,36507,0
258,36520,0
350,36497,0
638,36498,0
1068,36482,0
1626,36514,0
2264,36530,0
2896,36501,0
3496,36501,0
3972,36488,0
4095,36518,0
4095,36528,0
4095,36504,0
3864,36506,0
3424,36503,0
2844,36504,0
2172,36517,0
1506,36502,0
900,36515,0
453,36527,0
186,36497,0
127,36530,0
278,36510,0
581,36499,0
1056,36508,0
1638,36505,0
2264,36494,0
2924,36528,0
3504,36516,0
3972,36502,0
4094,36515,0
4092,36491,0
4082,36531,0
3832,36511,0
3384,36506,0
2794,36502,0
2172,36515,0
1466,36536,0
886,36510,0
435,36510,0
175,36511,0
108,36509,0
268,36540,0
604,36515,0
1112,36512,0
1680,36508,0
2321,36499,0
2992,36533,0
3560,36526,0
4064,36508,0
4095,36518,0
4094,36523,0
4056,36515,0
3776,36518,0
3312,36511,0
2704,36529,0
2037,36536,0
1377,36522,0
810,36519,0
381,36523,0
151,36519,0
122,36548,0
293,36535,0
650,36529,0
1155,36524,0
1744,36500,0
2368,36554,0
3024,36549,0
3580,36523,0
4024,36532,0
4095,36511,0
4095,36544,0
4095,36566,0
3792,36532,0
3296,36543,0
2645,36537,0
1946,36529,0
1252,36560,0
664,36561,0
274,36542,0
38,36543,0
14,36541,0
238,36542,0
611,36569,0
1128,36550,0
1760,36556,0
2430,36553,0
3144,36549,0
3696,36546,0
4088,36555,0
4095,36572,0
4095,36554,0
4088,36554,0
3888,36561,0
3472,36553,0
2944,36582,0
2364,36548,0
1800,36549,0
1352,36566,0
1064,36541,0
960,36581,0
1080,36582,0
1402,36561,0
1922,36560,0
2560,36550,0
3268,36587,0
4016,36584,0
4095,36573,0
4095,36577,0
4095,36557,0
4095,36595,0
4095,36597,0
4095,36582,0
4095,36567,0
4095,36599,0
4095,36572,0
3944,36565,0
3672,36588,0
3344,36568,0
3048,36605,0
2810,36577,0
2680,36588,0
2664,36577,0
2768,36603,0
2960,36614,0
3224,36595,0
3528,36587,0
3834,36587,0
4080,36591,0
4095,36603,0
4092,36595,0
4024,36589,0
3744,36591,0
3320,36577,0
2740,36616,0
2128,36620,0
1449,36603,0
821,36602,0
333,36591,0
26,36625,0
0,36626,0
33,36605,0
292,36612,0
752,36609,0
1296,36614,0
1936,36634,0
2536,36620,0
3132,36638,0
3624,36611,0
3968,36616,0
4088,36568,0
4058,36643,0
3800,36640,0
3344,36628,0
2736,36630,0
2028,36609,0
1320,36647,0
654,36656,0
137,36625,0
0,36632,0
0,36619,0
0,36657,0
191,36660,0
582,36630,0
1097,36629,0
1704,36638,0
2360,36659,0
2992,36672,0
3504,36638,0
3880,36642,0
4064,36637,0
4032,36638,0
3777,36665,0
3284,36656,0
2674,36644,0
1993,36649,0
1269,36647,0
618,36675,0
138,36663,0
0,36667,0
0,36662,0
0,36664,0
240,36678,0
664,36662,0
1190,36677,0
1808,36654,0
2420,36662,0
3028,36664,0
3512,36656,0
3848,36683,0
4000,36669,0
3952,36658,0
3680,36664,0
3208,36655,0
2584,36681,0
1906,36681,0
1184,36660,0
549,36671,0
90,36653,0
0,36673,0
0,36702,0
0,36663,0
277,36672,0
726,36659,0
1296,36685,0
1926,36694,0
2564,36679,0
3180,36680,0
3657,36672,0
4040,36675,0
4092,36687,0
4008,36679,0
3708,36698,0
3218,36684,0
2576,36680,0
1892,36684,0
1192,36698,0
580,36705,0
117,36702,0
0,36689,0
0,36699,0
44,36667,0
344,36708,0
802,36719,0
1376,36691,0
2008,36710,0
2648,36681,0
3236,36713,0
3696,36723,0
4024,36691,0
4095,36694,0
4072,36697,0
3760,36721,0
3250,36721,0
2592,36700,0
1878,36710,0
1170,36718,0
573,36703,0
124,36729,0
0,36732,0
0,36708,0
427,36743,0
918,36708,0
1497,36720,0
2146,36715,0
2784,36718,0
3360,36711,0
3856,36751,0
4084,36739,0
4080,36726,0
3986,36728,0
3672,36722,0
3164,36743,0
2516,36756,0
1804,36724,0
1138,36734,0
562,36721,0
153,36733,0
0,36749,0
0,36737,0
126,36732,0
508,36731,0
1114,36713,0
1644,36753,0
2316,36764,0
2970,36730,0
3556,36740,0
4008,36722,0
4095,36765,0
4095,36764,0
4032,36729,0
3692,36732,0
3200,36733,0
2496,36764,0
1816,36742,0
1120,36731,0
549,36746,0
152,36749,0
0,36748,0
0,36729,0
180,36764,0
553,36773,0
1076,36740,0
1676,36743,0
2316,36748,0
2960,36760,0
3528,36772,0
3936,36742,0
4095,36743,0
4092,36746,0
3976,36755,0
3616,36785,0
3080,36764,0
2464,36757,0
1749,36763,0
1056,36758,0
487,36785,0
93,36762,0
0,36767,0
0,36768,0
188,36737,0
576,36772,0
1120,36782,0
1731,36764,0
2404,36763,0
3008,36764,0
3554,36771,0
3952,36771,0
4088,36766,0
4080,36767,0
3928,36750,0
3544,36763,0
2984,36760,0
2312,36778,0
1624,36759,0
974,36748,0
430,36756,0
78,36735,0
0,36757,0
0,36760,0
229,36743,0
642,36746,0
1186,36720,0
1824,36763,0
2480,36762,0
3152,36736,0
3712,36733,0
4084,36728,0
4095,36725,0
4095,36740,0
3984,36712,0
3560,36706,0
2944,36715,0
2273,36686,0
1580,36719,0
936,36727,0
381,36692,0
64,36690,0
0,36673,0
16,36665,0
292,36690,0
732,36699,0
1296,36676,0
1921,36677,0
2604,36651,0
3226,36679,0
3760,36684,0
4095,36650,0
4095,36646,0
4088,36633,0
3932,36668,0
3520,36663,0
2960,36634,0
2304,36631,0
1626,36633,0
996,36602,0
496,36636,0
168,36612,0
57,36614,0
147,36596,0
433,36584,0
890,36617,0
1465,36609,0
2114,36593,0
2748,36585,0
3386,36573,0
3872,36595,0
4095,36593,0
4095,36569,0
4088,36595,0
3888,36558,0
3496,36535,0
2896,36545,0
2240,36553,0
1557,36558,0
939,36560,0
464,36532,0
176,36533,0
70,36540,0
184,36517,0
482,36549,0
938,36537,0
1520,36519,0
2148,36525,0
2804,36495,0
3392,36524,0
3904,36518,0
4088,36507,0
4095,36498,0
4095,36478,0
3940,36519,0
3488,36526,0
2900,36491,0
2216,36502,0
1505,36480,0
898,36497,0
422,36512,0
139,36491,0
64,36485,0
196,36475,0
504,36479,0
996,36491,0
1568,36476,0
2200,36494,0
2848,36474,0
3440,36478,0
3912,36467,0
4094,36462,0
4092,36491,0
4095,36479,0
3800,36466,0
3344,36463,0
2728,36449,0
2060,36479,0
1378,36474,0
796,36447,0
349,36454,0
94,36439,0
53,36480,0
205,36477,0
552,36456,0
1052,36458,0
1648,36451,0
2312,36469,0
2969,36482,0
3568,36456,0
4040,36454,0
4095,36465,0
4095,36457,0
4093,36480,0
3816,36467,0
3320,36460,0
2736,36463,0
2008,36472,0
1344,36469,0
764,36455,0
341,36462,0
119,36473,0
69,36452,0
268,36469,0
603,36454,0
1110,36495,0
1698,36488,0
2352,36466,0
2992,36468,0
3560,36458,0
3992,36491,0
4095,36496,0
4095,36474,0
4048,36472,0
3728,36473,0
3224,36482,0
2600,36504,0
1945,36476,0
1261,36483,0
688,36478,0
276,36480,0
72,36504,0
52,36479,0
267,36482,0
656,36496,0
1164,36479,0
1787,36504,0
2438,36494,0
3124,36491,0
3632,36474,0
4040,36497,0
4095,36513,0
4095,36500,0
4020,36513,0
3688,36511,0
3172,36514,0
2544,36499,0
1868,36495,0
1184,36525,0
656,36523,0
267,36503,0
60,36509,0
78,36489,0
298,36531,0
688,36540,0
1226,36515,0
1816,36511,0
2464,36513,0
3092,36518,0
3736,36536,0
4095,36526,0
4095,36516,0
4095,36524,0
4064,36517,0
3712,36557,0
3176,36547,0
2492,36529,0
1786,36535,0
1156,36516,0
611,36559,0
212,36555,0
54,36541,0
103,36546,0
333,36564,0
722,36537,0
1276,36540,0
1898,36543,0
2548,36563,0
3176,36575,0
3728,36551,0
4080,36552,0
4095,36559,0
4092,36545,0
3956,36584,0
3580,36573,0
3048,36541,0
2396,36559,0
1716,36553,0
1068,36590,0
558,36592,0
199,36559,0
30,36570,0
93,36566,0
360,36572,0
789,36593,0
1348,36582,0
1992,36579,0
2657,36580,0
3256,36562,0
3784,36601,0
4095,36607,0
4095,36584,0
3928,36612,0
3528,36595,0
2968,36595,0
2320,36593,0
1648,36616,0
1001,36575,0
541,36604,0
170,36613,0
40,36598,0
128,36592,0
396,36602,0
840,36587,0
1400,36626,0
2028,36634,0
2680,36601,0
3288,36610,0
3812,36607,0
4095,36616,0
4095,36637,0
4095,36605,0
3984,36611,0
3552,36614,0
2976,36613,0
2296,36634,0
1596,36602,0
952,36617,0
449,36618,0
137,36624,0
19,36639,0
130,36620,0
424,36615,0
873,36610,0
1464,36612,0
2074,36629,0
2736,36622,0
3344,36616,0
3848,36625,0
4094,36625,0
4095,36623,0
4080,36622,0
3856,36628,0
3428,36661,0
2864,36628,0
2152,36627,0
1480,36639,0
853,36619,0
376,36640,0
88,36637,0
16,36623,0
123,36627,0
445,36615,0
916,36650,0
1512,36669,0
2160,36631,0
2832,36628,0
3472,36627,0
3937,36630,0
4095,36651,0
4095,36624,0
4095,36625,0
3843,36628,0
3392,36619,0
2772,36657,0
2112,36642,0
1376,36623,0
796,36636,0
349,36624,0
78,36623,0
26,36632,0
179,36632,0
513,36613,0
1010,36643,0
1597,36655,0
2234,36627,0
2884,36621,0
3464,36628,0
3932,36627,0
4095,36647,0
4095,36637,0
4056,36625,0
3776,36627,0
3296,36595,0
2688,36659,0
2008,36653,0
1348,36621,0
752,36618,0
328,36626,0
80,36635,0
53,36651,0
239,36630,0
615,36621,0
1142,36624,0
1748,36626,0
2428,36645,0
3072,36641,0
3712,36622,0
4072,36619,0
4095,36606,0
4092,36630,0
4066,36637,0
3833,36608,0
3328,36628,0
2756,36608,0
2064,36657,0
1404,36660,0
824,36630,0
400,36631,0
157,36613,0
131,36657,0
297,36658,0
644,36631,0
1146,36637,0
1732,36630,0
2360,36647,0
3000,36664,0
3556,36614,0
4056,36630,0
4095,36633,0
4095,36628,0
4084,36654,0
3760,36631,0
3232,36635,0
2580,36632,0
1865,36617,0
1184,36663,0
638,36659,0
232,36641,0
11,36640,0
38,36647,0
251,36652,0
634,36646,0
1164,36649,0
1768,36654,0
2408,36640,0
3056,36644,0
3616,36628,0
4032,36655,0
4095,36661,0
4095,36639,0
4000,36642,0
3644,36639,0
3124,36646,0
2480,36664,0
1790,36645,0
1136,36644,0
565,36651,0
199,36638,0
24,36660,0
28,36642,0
264,36653,0
670,36652,0
1228,36627,0
1864,36671,0
2528,36675,0
3168,36647,0
3684,36651,0
4086,36643,0
4095,36646,0
4095,36666,0
4056,36655,0
3608,36634,0
3068,36631,0
2416,36640,0
1736,36672,0
1092,36647,0
560,36669,0
201,36643,0
41,36644,0
90,36655,0
342,36645,0
760,36663,0
1308,36657,0
1936,36648,0
2584,36660,0
3208,36620,0
3736,36677,0
4084,36675,0
4095,36651,0
4094,36660,0
3944,36643,0
3624,36678,0
3036,36688,0
2368,36662,0
1656,36657,0
980,36662,0
442,36652,0
99,36687,0
0,36674,0
13,36669,0
283,36664,0
717,36651,0
1288,36688,0
1928,36675,0
2604,36654,0
3252,36666,0
3806,36665,0
4095,36671,0
4095,36656,0
4095,36676,0
4028,36662,0
3744,36703,0
3220,36678,0
2644,36675,0
2032,36681,0
1480,36661,0
1058,36693,0
822,36705,0
796,36674,0
976,36683,0
1349,36677,0
1897,36677,0
2548,36703,0
3328,36684,0
4052,36689,0
4095,36690,0
4095,36672,0
4095,36711,0
4095,36696,0
4095,36689,0
4095,36698,0
4095,36674,0
4095,36714,0
3952,36720,0
3684,36694,0
3224,36701,0
2864,36703,0
2568,36676,0
2384,36704,0
2336,36739,0
2408,36717,0
2608,36694,0
2900,36700,0
3248,36687,0
3664,36723,0
3976,36734,0
4095,36708,0
4088,36717,0
4092,36701,0
4024,36718,0
3752,36726,0
3296,36718,0
2708,36703,0
2056,36723,0
1400,36693,0
825,36731,0
371,36714,0
99,36709,0
34,36717,0
166,36686,0
488,36742,0
960,36743,0
1516,36713,0
2121,36722,0
2756,36705,0
3304,36725,0
3816,36742,0
4016,36724,0
4064,36720,0
3956,36737,0
3618,36731,0
3104,36699,0
2452,36738,0
1728,36744,0
1014,36716,0
410,36729,0
0,36699,0
0,36738,0
0,36746,0
16,36713,0
296,36715,0
742,36720,0
1288,36721,0
1896,36752,0
2520,36732,0
3096,36732,0
3554,36730,0
3928,36709,0
4032,36754,0
3912,36746,0
3584,36730,0
3056,36738,0
2402,36718,0
1696,36758,0
982,36752,0
375,36727,0
0,36746,0
0,36743,0
44,36766,0
366,36742,0
822,36767,0
1385,36745,0
2001,36746,0
2656,36757,0
3200,36771,0
3632,36752,0
3904,36747,0
3976,36755,0
3836,36729,0
3528,36774,0
2960,36771,0
2336,36745,0
1610,36746,0
940,36741,0
368,36772,0
0,36777,0
0,36747,0
0,36756,0
77,36748,0
434,36755,0
932,36781,0
1527,36768,0
2165,36768,0
2824,36766,0
3384,36759,0
3776,36788,0
4041,36790,0
4095,36760,0
3936,36767,0
3600,36760,0
2988,36766,0
2320,36756,0
1620,36766,0
942,36790,0
382,36776,0
0,36785,0
0,36760,0
0,36781,0
130,36759,0
497,36798,0
998,36791,0
1594,36761,0
2196,36765,0
2856,36766,0
3400,36769,0
3824,36790,0
4048,36773,0
4080,36774,0
3888,36773,0
3508,36761,0
2992,36794,0
2315,36785,0
1589,36779,0
912,36767,0
340,36758,0
0,36794,0
0,36808,0
0,36776,0
170,36779,0
582,36759,0
1112,36802,0
1744,36798,0
2360,36770,0
2992,36792,0
3524,36771,0
3928,36779,0
4080,36789,0
4080,36764,0
3896,36799,0
3504,36784,0
2916,36784,0
2288,36787,0
1552,36757,0
900,36804,0
372,36789,0
12,36775,0
0,36772,0
0,36765,0
232,36804,0
652,36810,0
1205,36776,0
1856,36785,0
2520,36779,0
3168,36802,0
3712,36796,0
4092,36784,0
4095,36785,0
4095,36792,0
3960,36784,0
3496,36813,0
2916,36787,0
2241,36790,0
1532,36789,0
880,36773,0
374,36814,0
37,36811,0
0,36805,0
19,36810,0
291,36803,0
729,36797,0
1285,36798,0
1928,36805,0
2568,36833,0
3184,36802,0
3696,36801,0
4048,36809,0
4094,36799,0
4080,36832,0
3864,36824,0
3436,36808,0
2852,36823,0
2178,36796,0
1482,36836,0
850,36842,0
352,36804,0
47,36826,0
0,36817,0
51,36813,0
360,36834,0
824,36828,0
1412,36817,0
2050,36823,0
2705,36790,0
3320,36836,0
3820,36853,0
4095,36818,0
4095,36810,0
4072,36823,0
3856,36822,0
3380,36822,0
2772,36815,0
2092,36847,0
1394,36812,0
785,36818,0
308,36804,0
23,36809,0
0,36831,0
74,36807,0
396,36802,0
860,36812,0
1441,36782,0
2081,36819,0
2732,36832,0
3326,36800,0
3812,36795,0
4080,36777,0
4095,36800,0
4095,36815,0
3857,36784,0
3380,36785,0
2752,36779,0
2058,36761,0
1362,36788,0
738,36796,0
273,36765,0
27,36766,0
0,36747,0
103,36781,0
456,36746,0
954,36753,0
1546,36760,0
2200,36749,0
2848,36742,0
3448,36736,0
3928,36708,0
4094,36743,0
4095,36747,0
4064,36712,0
3808,36711,0
3344,36688,0
2736,36724,0
2064,36725,0
1396,36689,0
812,36699,0
376,36691,0
129,36681,0
84,36706,0
218,36686,0
580,36669,0
1090,36676,0
1696,36647,0
2352,36675,0
3008,36687,0
3609,36650,0
4064,36641,0
4095,36638,0
4095,36656,0
4088,36661,0
3804,36622,0
3368,36619,0
2696,36635,0
2040,36619,0
1352,36626,0
785,36640,0
370,36627,0
140,36611,0
117,36585,0
301,36620,0
664,36612,0
1172,36589,0
1762,36586,0
2400,36576,0
3036,36599,0
3600,36609,0
4036,36574,0
4095,36577,0
4095,36574,0
4032,36561,0
3716,36597,0
3216,36567,0
2634,36555,0
1936,36565,0
1268,36538,0
694,36568,0
292,36565,0
80,36541,0
86,36551,0
306,36522,0
677,36565,0
1221,36567,0
1828,36535,0
2496,36535,0
3088,36528,0
3648,36531,0
4048,36514,0
4095,36528,0
4094,36525,0
4004,36523,0
3668,36527,0
3144,36513,0
2520,36549,0
1833,36551,0
1181,36519,0
638,36516,0
259,36506,0
74,36533,0
94,36543,0
338,36516,0
717,36512,0
1254,36512,0
1856,36515,0
2496,36537,0
3184,36515,0
3744,36513,0
4095,36519,0
4095,36516,0
4095,36528,0
4064,36517,0
3684,36511,0
3104,36521,0
2448,36497,0
1766,36533,0
1112,36522,0
562,36513,0
213,36517,0
61,36521,0
100,36518,0
348,36495,0
768,36542,0
1300,36523,0
1932,36515,0
2600,36514,0
3200,36499,0
3732,36542,0
4095,36543,0
4095,36514,0
4092,36522,0
3956,36521,0
3580,36533,0
3036,36549,0
2388,36532,0
1704,36526,0
1076,36529,0
562,36517,0
210,36550,0
66,36548,0
138,36529,0
404,36538,0
854,36517,0
1405,36560,0
2050,36564,0
2680,36534,0
3304,36528,0
3840,36540,0
4095,36549,0
4092,36585,0
3920,36541,0
3512,36550,0
2952,36543,0
2294,36549,0
1616,36567,0
996,36548,0
496,36547,0
188,36556,0
76,36534,0
173,36584,0
456,36582,0
906,36553,0
1472,36566,0
2096,36559,0
2748,36577,0
3384,36584,0
3912,36570,0
4095,36564,0
4095,36566,0
4095,36544,0
3984,36594,0
3552,36591,0
2968,36572,0
2284,36570,0
1604,36572,0
978,36595,0
496,36602,0
212,36574,0
118,36571,0
228,36575,0
519,36588,0
984,36585,0
1554,36600,0
2184,36593,0
2856,36593,0
3416,36616,0
3892,36597,0
4094,36617,0
4095,36589,0
4095,36597,0
3848,36595,0
3408,36585,0
2824,36621,0
2152,36629,0
1480,36604,0
884,36610,0
422,36603,0
150,36631,0
69,36637,0
209,36615,0
522,36619,0
1000,36618,0
1601,36602,0
2245,36649,0
2900,36644,0
3512,36622,0
3992,36621,0
4095,36614,0
4095,36639,0
4095,36660,0
3856,36624,0
3400,36624,0
2858,36627,0
2124,36649,0
1476,36620,0
864,36640,0
420,36634,0
171,36627,0
102,36637,0
269,36641,0
596,36646,0
1078,36622,0
1670,36656,0
2300,36662,0
2936,36645,0
3520,36640,0
3968,36640,0
4088,36673,0
4095,36672,0
4064,36645,0
3784,36645,0
3312,36651,0
2704,36628,0
2068,36680,0
1376,36687,0
789,36654,0
353,36654,0
115,36657,0
82,36677,0
265,36684,0
630,36656,0
1118,36656,0
1742,36664,0
2376,36644,0
3056,36691,0
3576,36653,0
4016,36672,0
4092,36677,0
4095,36672,0
4095,36694,0
3748,36666,0
3272,36649,0
2660,36689,0
1984,36696,0
1329,36671,0
765,36678,0
347,36662,0
144,36677,0
146,36706,0
322,36677,0
706,36675,0
1208,36678,0
1816,36664,0
2442,36694,0
3106,36709,0
3728,36673,0
4095,36672,0
4095,36660,0
4095,36685,0
4090,36705,0
3760,36674,0
3248,36668,0
2576,36681,0
1880,36663,0
1240,36702,0
687,36687,0
290,36675,0
120,36660,0
125,36675,0
347,36667,0
736,36686,0
1268,36687,0
1880,36696,0
2528,36694,0
3168,36680,0
3720,36676,0
4080,36672,0
4095,36686,0
4094,36708,0
4028,36675,0
3720,36680,0
3228,36671,0
2628,36668,0
1978,36688,0
1346,36699,0
820,36678,0
474,36679,0
290,36669,0
327,36684,0
555,36705,0
986,36676,0
1517,36670,0
2122,36685,0
2776,36673,0
3360,36700,0
3884,36699,0
4095,36679,0
4095,36670,0
4095,36669,0
3984,36686,0
3616,36688,0
3088,36674,0
2450,36676,0
1776,36703,0
1138,36679,0
618,36680,0
278,36708,0
127,36698,0
190,36682,0
435,36697,0
858,36673,0
1393,36705,0
2020,36713,0
2656,36679,0
3272,36682,0
3788,36680,0
4084,36709,0
4088,36716,0
4088,36685,0
4024,36692,0
3618,36691,0
3056,36683,0
2388,36713,0
1688,36702,0
1048,36697,0
542,36698,0
212,36674,0
82,36710,0
168,36723,0
428,36692,0
872,36700,0
1424,36703,0
2047,36704,0
2684,36718,0
3314,36711,0
3800,36718,0
4080,36723,0
4095,36705,0
4084,36696,0
3884,36698,0
3472,36690,0
2890,36733,0
2228,36721,0
1540,36700,0
941,36695,0
458,36700,0
165,36708,0
56,36726,0
158,36700,0
460,36705,0
908,36706,0
1488,36691,0
2136,36722,0
2788,36726,0
3402,36707,0
3920,36708,0
4095,36704,0
4095,36718,0
4095,36729,0
3882,36699,0
3456,36718,0
2852,36709,0
2208,36717,0
1488,36719,0
893,36714,0
428,36728,0
160,36705,0
74,36729,0
203,36718,0
526,36722,0
983,36703,0
1556,36737,0
2192,36745,0
2808,36718,0
3388,36711,0
3856,36720,0
4084,36708,0
4088,36739,0
4048,36737,0
3776,36718,0
3312,36718,0
2712,36707,0
2044,36744,0
1384,36742,0
804,36713,0
354,36723,0
116,36716,0
103,36734,0
291,36744,0
678,36745,0
1224,36731,0
1848,36725,0
2565,36713,0
3248,36749,0
3952,36755,0
4095,36745,0
4095,36731,0
4095,36739,0
4095,36744,0
4095,36721,0
3932,36756,0
3624,36759,0
3144,36735,0
2704,36731,0
2252,36724,0
1952,36752,0
1784,36762,0
1784,36734,0
1960,36745,0
2296,36728,0
2756,36747,0
3296,36763,0
3864,36747,0
4095,36743,0
4095,36742,0
4095,36736,0
4095,36767,0
4095,36759,0
4095,36737,0
4095,36751,0
4002,36740,0
3621,36770,0
3066,36774,0
2508,36754,0
1995,36746,0
1564,36738,0
1160,36782,0
1217,36757,0
1440,36761,0
1776,36759,0
2224,36783,0
2708,36765,0
3200,36790,0
3632,36772,0
3952,36766,0
4084,36757,0
4080,36737,0
3904,36785,0
3480,36800,0
2968,36760,0
2264,36768,0
1569,36745,0
900,36787,0
349,36790,0
0,36758,0
0,36761,0
0,36770,0
113,36753,0
485,36792,0
990,36787,0
1592,36766,0
2228,36775,0
2873,36760,0
3396,36784,0
3812,36801,0
4052,36769,0
4076,36772,0
3936,36778,0
3476,36782,0
2904,36775,0
2228,36790,0
1512,36802,0
838,36775,0
279,36779,0
0,36760,0
0,36794,0
0,36802,0
128,36784,0
470,36784,0
964,36765,0
1556,36795,0
2185,36801,0
2800,36778,0
3352,36782,0
3736,36794,0
3952,36788,0
3966,36810,0
3776,36790,0
3432,36780,0
2842,36778,0
2160,36779,0
1440,36807,0
768,36796,0
216,36794,0
0,36785,0
0,36774,0
0,36814,0
167,36802,0
559,36782,0
1068,36795,0
1684,36788,0
2312,36789,0
2928,36817,0
3460,36788,0
3888,36813,0
4024,36799,0
4056,36790,0
3808,36819,0
3384,36829,0
2814,36797,0
2108,36811,0
1436,36794,0
736,36813,0
208,36826,0
0,36804,0
0,36806,0
0,36806,0
197,36793,0
605,36832,0
1142,36836,0
1768,36804,0
2424,36813,0
3049,36806,0
3586,36829,0
3960,36843,0
4095,36809,0
4095,36824,0
3824,36816,0
3384,36818,0
2780,36840,0
2080,36827,0
1376,36824,0
736,36821,0
232,36820,0
0,36823,0
93,36828,0
8,36813,0
276,36824,0
716,36827,0
1268,36818,0
1897,36830,0
2528,36842,0
3138,36845,0
3628,36815,0
3992,36837,0
4088,36816,0
4064,36836,0
3824,36847,0
3352,36822,0
2756,36821,0
2046,36824,0
1360,36807,0
729,36845,0
240,36858,0
0,36826,0
0,36830,0
22,36830,0
331,36819,0
797,36834,0
1377,36836,0
2020,36827,0
2668,36826,0
3268,36804,0
3812,36846,0
4064,36815,0
4092,36846,0
4052,36827,0
3760,36842,0
3304,36817,0
2684,36849,0
2000,36823,0
1312,36830,0
704,36847,0
250,36812,0
0,36851,0
0,36861,0
79,36833,0
408,36837,0
884,36811,0
1470,36850,0
2108,36848,0
2746,36839,0
3336,36847,0
3820,36838,0
4095,36826,0
4095,36867,0
4095,36854,0
3796,36844,0
3300,36840,0
2668,36835,0
1956,36869,0
1256,36865,0
620,36848,0
214,36848,0
0,36840,0
0,36869,0
96,36861,0
447,36852,0
932,36884,0
1532,36868,0
2168,36879,0
2848,36846,0
3384,36878,0
3852,36898,0
4095,36869,0
4092,36874,0
4020,36873,0
3704,36855,0
3196,36887,0
2568,36890,0
1864,36863,0
1182,36871,0
602,36859,0
165,36881,0
0,36903,0
0,36872,0
115,36867,0
472,36875,0
977,36847,0
1596,36883,0
2256,36893,0
2912,36858,0
3504,36860,0
3904,36864,0
4095,36849,0
4095,36880,0
4036,36875,0
3744,36859,0
3160,36882,0
2512,36856,0
1828,36864,0
1154,36848,0
584,36850,0
183,36862,0
0,36881,0
0,36831,0
170,36847,0
546,36836,0
1065,36855,0
1672,36857,0
2320,36829,0
3000,36823,0
3520,36833,0
3952,36804,0
4095,36847,0
4094,36841,0
3992,36800,0
3652,36813,0
3184,36808,0
2524,36810,0
1832,36825,0
1168,36798,0
616,36791,0
217,36776,0
34,36766,0
72,36809,0
294,36806,0
719,36763,0
1248,36767,0
1881,36768,0
2512,36772,0
3136,36758,0
3692,36754,0
4095,36745,0
4095,36784,0
4095,36745,0
4000,36746,0
3632,36735,0
3120,36738,0
2468,36751,0
1790,36727,0
1150,36732,0
628,36722,0
274,36696,0
121,36735,0
148,36733,0
392,36703,0
796,36691,0
1336,36687,0
1960,36692,0
2641,36704,0
3284,36694,0
3818,36678,0
4095,36675,0
4095,36663,0
4095,36687,0
4040,36686,0
3610,36658,0
3060,36663,0
2412,36649,0
1714,36636,0
1081,36671,0
552,36674,0
220,36647,0
84,36655,0
155,36640,0
424,36637,0
859,36623,0
1392,36641,0
2028,36642,0
2656,36615,0
3280,36612,0
3788,36616,0
4088,36603,0
4095,36633,0
4088,36613,0
3924,36606,0
3528,36604,0
2968,36591,0
2412,36621,0
1641,36629,0
1004,36591,0
501,36588,0
178,36578,0
58,36589,0
139,36612,0
430,36588,0
870,36582,0
1448,36579,0
2064,36559,0
2724,36603,0
3332,36588,0
3834,36570,0
4095,36569,0
4084,36592,0
3880,36582,0
3464,36576,0
2888,36555,0
2228,36587,0
1552,36580,0
945,36560,0
467,36568,0
173,36549,0
84,36576,0
205,36583,0
490,36562,0
952,36553,0
1526,36557,0
2154,36581,0
2800,36578,0
3408,36560,0
3880,36555,0
4095,36559,0
4095,36561,0
4095,36584,0
3921,36563,0
3472,36549,0
2864,36553,0
2186,36560,0
1498,36573,0
882,36584,0
408,36555,0
161,36569,0
72,36558,0
185,36546,0
524,36569,0
1001,36572,0
1580,36559,0
2216,36580,0
2888,36579,0
3456,36542,0
3920,36588,0
4095,36597,0
4095,36558,0
4072,36568,0
3816,36567,0
3360,36556,0
2752,36592,0
2084,36594,0
1408,36569,0
813,36573,0
374,36564,0
116,36603,0
55,36611,0
202,36581,0
536,36580,0
1036,36579,0
1644,36564,0
2294,36606,0
2948,36604,0
3552,36584,0
4032,36597,0
4095,36585,0
4095,36601,0
4095,36610,0
3808,36589,0
3384,36584,0
2740,36584,0
2047,36593,0
1380,36579,0
796,36585,0
369,36609,0
116,36591,0
98,36591,0
256,36576,0
616,36613,0
1120,36617,0
1729,36600,0
2352,36602,0
3048,36591,0
3556,36604,0
3992,36630,0
4095,36594,0
4095,36611,0
4040,36614,0
3744,36593,0
3288,36636,0
2676,36625,0
1984,36604,0
1304,36611,0
729,36602,0
310,36643,0
91,36652,0
72,36622,0
286,36624,0
642,36629,0
1172,36610,0
1780,36647,0
2448,36635,0
3040,36641,0
3596,36634,0
4020,36611,0
4095,36640,0
4094,36644,0
4024,36640,0
3684,36625,0
3184,36657,0
2552,36665,0
1880,36645,0
1228,36643,0
674,36643,0
276,36637,0
97,36664,0
99,36671,0
318,36634,0
712,36649,0
1233,36648,0
1840,36670,0
2480,36680,0
3172,36657,0
3760,36664,0
4095,36664,0
4095,36657,0
4095,36685,0
4072,36664,0
3720,36656,0
3148,36662,0
2508,36655,0
1829,36689,0
1174,36677,0
630,36668,0
265,36641,0
91,36660,0
121,36681,0
362,36672,0
760,36677,0
1284,36650,0
1896,36691,0
2564,36700,0
3160,36667,0
3696,36670,0
4084,36676,0
4095,36663,0
4094,36687,0
3968,36684,0
3592,36680,0
3056,36675,0
2408,36663,0
1728,36702,0
1100,36708,0
580,36676,0
217,36678,0
64,36666,0
128,36682,0
393,36699,0
820,36685,0
1384,36683,0
2016,36682,0
2644,36658,0
3264,36697,0
3788,36700,0
4095,36675,0
4095,36672,0
4092,36684,0
3924,36654,0
3528,36674,0
2980,36698,0
2308,36678,0
1632,36699,0
1000,36680,0
504,36673,0
174,36664,0
52,36685,0
126,36691,0
412,36681,0
840,36666,0
1402,36674,0
2036,36658,0
2684,36694,0
3296,36687,0
3856,36667,0
4088,36680,0
4095,36659,0
4095,36685,0
3992,36696,0
3584,36670,0
3000,36667,0
2338,36665,0
1649,36657,0
1029,36684,0
540,36707,0
231,36668,0
150,36670,0
267,36665,0
566,36681,0
1032,36674,0
1592,36674,0
2236,36658,0
2884,36682,0
3488,36670,0
3984,36675,0
4095,36665,0
4095,36686,0
4092,36690,0
3920,36667,0
3546,36664,0
2964,36667,0
2352,36655,0
1656,36684,0
1050,36687,0
580,36662,0
278,36663,0
190,36657,0
293,36682,0
600,36685,0
1033,36668,0
1600,36668,0
2228,36673,0
2872,36646,0
3466,36692,0
3956,36686,0
4095,36651,0
4095,36673,0
4095,36656,0
3864,36674,0
3408,36685,0
2840,36657,0
2124,36666,0
1456,36649,0
856,36646,0
410,36667,0
155,36653,0
89,36677,0
230,36645,0
561,36679,0
1036,36696,0
1628,36657,0
2256,36662,0
2888,36659,0
3476,36666,0
3944,36689,0
4095,36672,0
4095,36658,0
4064,36667,0
3792,36641,0
3320,36680,0
2712,36693,0
2047,36654,0
1384,36664,0
786,36659,0
342,36658,0
98,36681,0
44,36669,0
219,36661,0
588,36659,0
1074,36646,0
1706,36687,0
2326,36688,0
3012,36656,0
3536,36669,0
3984,36673,0
4095,36676,0
4095,36683,0
4056,36650,0
3760,36693,0
3280,36697,0
2672,36659,0
1996,36670,0
1340,36664,0
768,36668,0
372,36685,0
125,36676,0
119,36666,0
299,36674,0
658,36648,0
1168,36694,0
1756,36695,0
2392,36667,0
3024,36679,0
3664,36664,0
4092,36680,0
4095,36698,0
4095,36677,0
4095,36675,0
3776,36682,0
3256,36661,0
2580,36692,0
1881,36709,0
1234,36672,0
644,36684,0
53,36732,0
42,36696,0
265,36690,0
648,36688,0
1189,36689,0
1820,36684,0
2480,36703,0
3136,36700,0
3732,36690,0
4095,36688,0
4095,36690,0
4095,36670,0
4080,36718,0
3856,36718,0
3440,36686,0
2896,36692,0
2312,36689,0
1760,36714,0
1312,36722,0
1018,36710,0
941,36688,0
1062,36697,0
1386,36685,0
1892,36725,0
2522,36738,0
3216,36702,0
3941,36710,0
4095,36701,0
4095,36731,0
4095,36732,0
4095,36709,0
4095,36713,0
4095,36732,0
4095,36725,0
4095,36729,0
4000,36723,0
3712,36714,0
3344,36710,0
2964,36718,0
2640,36713,0
2420,36728,0
2304,36742,0
2372,36720,0
2498,36722,0
2748,36726,0
3216,36706,0
3480,36744,0
3808,36748,0
4092,36718,0
4094,36717,0
4095,36730,0
4072,36715,0
3920,36748,0
3472,36727,0
2904,36715,0
2248,36729,0
1570,36717,0
954,36752,0
462,36760,0
161,36728,0
39,36729,0
126,36736,0
392,36742,0
812,36773,0
1348,36739,0
1952,36738,0
2558,36736,0
3144,36761,0
3624,36738,0
3952,36729,0
4068,36740,0
4020,36760,0
3752,36742,0
3264,36739,0
2656,36738,0
1958,36725,0
1236,36766,0
592,36766,0
102,36737,0
0,36745,0
0,36744,0
0,36743,0
207,36769,0
616,36748,0
1141,36737,0
1756,36755,0
2396,36732,0
3012,36775,0
3528,36767,0
3874,36750,0
4042,36755,0
3952,36742,0
3688,36741,0
3232,36781,0
2604,36782,0
1936,36762,0
1200,36756,0
556,36789,0
102,36778,0
0,36777,0
0,36775,0
0,36756,0
251,36787,0
686,36787,0
1216,36769,0
1820,36773,0
2452,36763,0
3036,36781,0
3532,36790,0
3864,36770,0
4000,36766,0
3928,36780,0
3648,36760,0
3200,36789,0
2540,36800,0
1868,36781,0
1171,36781,0
552,36779,0
84,36783,0
0,36797,0
0,36781,0
12,36780,0
322,36787,0
792,36763,0
1347,36796,0
1988,36817,0
2620,36781,0
3248,36785,0
3640,36798,0
4000,36788,0
4056,36795,0
3956,36789,0
3528,36798,0
3132,36784,0
2496,36797,0
1790,36773,0
1100,36805,0
493,36814,0
64,36795,0
0,36788,0
0,36791,0
47,36800,0
380,36813,0
854,36793,0
1418,36791,0
2044,36793,0
2680,36775,0
3252,36814,0
3784,36827,0
4076,36790,0
4095,36802,0
4044,36797,0
3712,36802,0
3176,36810,0
2522,36788,0
1784,36798,0
1083,36796,0
517,36775,0
77,36804,0
0,36823,0
0,36780,0
94,36790,0
444,36788,0
934,36807,0
1522,36793,0
2168,36823,0
2820,36789,0
3378,36798,0
3816,36787,0
4080,36810,0
4088,36821,0
3984,36800,0
3620,36785,0
3108,36810,0
2452,36778,0
1754,36822,0
1077,36826,0
512,36803,0
100,36807,0
0,36799,0
0,36822,0
131,36822,0
513,36807,0
1042,36809,0
1664,36812,0
2312,36798,0
2970,36830,0
3492,36831,0
3928,36806,0
4095,36811,0
4095,36790,0
4048,36832,0
3608,36819,0
3060,36826,0
2412,36819,0
1700,36814,0
1032,36824,0
482,36814,0
99,36838,0
0,36820,0
0,36821,0
184,36817,0
581,36802,0
1096,36851,0
1712,36852,0
2352,36828,0
2980,36823,0
3524,36834,0
3936,36829,0
4094,36843,0
4080,36836,0
3936,36831,0
3632,36829,0
3044,36813,0
2368,36858,0
1656,36861,0
974,36830,0
428,36834,0
52,36826,0
0,36853,0
0,36860,0
215,36826,0
638,36834,0
1168,36825,0
1780,36814,0
2426,36828,0
3048,36843,0
3577,36834,0
3976,36830,0
4084,36821,0
4072,36841,0
3904,36847,0
3504,36813,0
2916,36818,0
2257,36810,0
1552,36830,0
904,36835,0
401,36798,0
50,36809,0
0,36802,0
4,36764,0
271,36816,0
685,36824,0
1244,36784,0
1881,36786,0
2568,36787,0
3184,36809,0
3728,36801,0
4092,36779,0
4095,36760,0
4095,36769,0
3896,36749,0
3456,36785,0
2888,36782,0
2212,36749,0
1504,36745,0
858,36749,0
357,36758,0
44,36739,0
0,36745,0
41,36716,0
332,36734,0
789,36701,0
1352,36736,0
1992,36735,0
2656,36711,0
3268,36701,0
3776,36694,0
4088,36713,0
4095,36720,0
4080,36688,0
3888,36681,0
3456,36683,0
2876,36651,0
2220,36686,0
1537,36687,0
913,36650,0
420,36653,0
142,36638,0
30,36667,0
135,36661,0
444,36631,0
926,36632,0
1513,36629,0
2152,36611,0
2824,36637,0
3420,36610,0
4092,36503,0
4094,36623,0
4095,36594,0
3856,36595,0
3408,36592,0
2832,36586,0
2164,36569,0
1472,36603,0
872,36585,0
412,36566,0
129,36554,0
63,36557,0
192,36579,0
508,36586,0
996,36545,0
1568,36547,0
2192,36537,0
2840,36563,0
3554,36567,0
3968,36540,0
4095,36527,0
4095,36526,0
4095,36501,0
3864,36539,0
3368,36543,0
2752,36514,0
2050,36509,0
1338,36497,0
732,36527,0
291,36523,0
36,36507,0
0,36498,0
139,36503,0
474,36507,0
970,36491,0
1549,36475,0
2208,36484,0
2888,36482,0
3428,36484,0
3888,36478,0
4094,36500,0
4094,36505,0
4048,36484,0
3728,36473,0
3240,36485,0
2616,36479,0
1928,36500,0
1248,36496,0
660,36482,0
232,36470,0
0,36462,0
0,36473,0
114,36495,0
485,36473,0
1006,36459,0
1614,36471,0
2283,36447,0
2937,36482,0
3530,36486,0
3938,36471,0
4095,36461,0
4095,36460,0
4042,36462,0
3752,36482,0
3168,36460,0
2516,36479,0
1824,36467,0
1148,36474,0
584,36461,0
166,36455,0
0,36480,0
0,36490,0
148,36464,0
523,36470,0
1034,36461,0
1636,36446,0
2280,36492,0
2908,36495,0
3472,36466,0
3960,36456,0
4088,36482,0
4095,36459,0
3960,36498,0
3640,36502,0
3120,36474,0
2446,36470,0
1709,36478,0
1026,36473,0
463,36494,0
50,36492,0
0,36477,0
0,36485,0
153,36465,0
564,36497,0
1085,36505,0
1712,36483,0
2316,36497,0
2968,36501,0
3520,36500,0
3936,36491,0
4095,36513,0
4088,36483,0
3936,36502,0
3552,36500,0
3000,36495,0
2336,36490,0
1632,36481,0
968,36523,0
429,36528,0
49,36507,0
0,36496,0
0,36508,0
186,36487,0
596,36523,0
1122,36528,0
1720,36503,0
2418,36514,0
3056,36500,0
3602,36517,0
4004,36532,0
4095,36517,0
4095,36516,0
3968,36521,0
3496,36500,0
2917,36541,0
2268,36547,0
1516,36513,0
860,36522,0
333,36552,0
0,36527,0
0,36516,0
0,36533,0
222,36538,0
638,36553,0
1180,36550,0
1814,36530,0
2440,36537,0
3056,36514,0
3583,36559,0
3954,36563,0
4088,36533,0
4072,36557,0
3848,36549,0
3420,36536,0
2818,36573,0
2130,36568,0
1420,36552,0
772,36553,0
240,36537,0
0,36573,0
0,36576,0
0,36555,0
256,36552,0
664,36555,0
1220,36550,0
1844,36569,0
2490,36581,0
3117,36560,0
3632,36571,0
4048,36554,0
4080,36565,0
4072,36564,0
3816,36550,0
3364,36570,0
2752,36565,0
2084,36573,0
1377,36551,0
744,36594,0
256,36592,0
0,36582,0
0,36568,0
20,36558,0
300,36597,0
757,36598,0
1305,36572,0
1928,36580,0
2564,36581,0
3052,36568,0
3672,36613,0
4008,36606,0
4095,36589,0
4095,36589,0
3850,36577,0
3376,36619,0
2740,36617,0
2032,36583,0
1316,36602,0
689,36592,0
208,36585,0
0,36627,0
0,36596,0
34,36591,0
318,36617,0
817,36614,0
1388,36620,0
2020,36627,0
2672,36612,0
3280,36597,0
3808,36599,0
4068,36604,0
4092,36625,0
4040,36604,0
3760,36592,0
3272,36600,0
2652,36576,0
1960,36623,0
1268,36626,0
656,36598,0
202,36596,0
0,36598,0
0,36613,0
68,36628,0
384,36588,0
857,36595,0
1468,36602,0
2112,36590,0
2769,36623,0
3376,36609,0
3856,36598,0
4095,36612,0
4095,36576,0
4048,36613,0
3728,36619,0
3272,36595,0
2572,36589,0
1884,36605,0
1178,36596,0
590,36616,0
152,36609,0
0,36618,0
0,36584,0
101,36594,0
429,36587,0
925,36595,0
1508,36616,0
2144,36604,0
2784,36588,0
3396,36606,0
3836,36583,0
4080,36615,0
4095,36617,0
4016,36595,0
3656,36598,0
3146,36590,0
2548,36600,0
1856,36607,0
1161,36594,0
578,36589,0
153,36586,0
0,36589,0
0,36617,0
179,36612,0
563,36581,0
1104,36592,0
1724,36578,0
2402,36612,0
3004,36599,0
3580,36589,0
4016,36592,0
4095,36589,0
4094,36608,0
4016,36595,0
3688,36593,0
3168,36579,0
2532,36583,0
1841,36602,0
1172,36589,0
618,36583,0
216,36588,0
7,36574,0
0,36602,0
204,36599,0
570,36576,0
1088,36586,0
1674,36574,0
2320,36579,0
3000,36604,0
3552,36587,0
3984,36586,0
4095,36588,0
4095,36582,0
4016,36595,0
3616,36599,0
3008,36572,0
2344,36584,0
1636,36587,0
961,36569,0
39,36593,0
0,36575,0
0,36605,0
195,36598,0
575,36591,0
1108,36586,0
1716,36582,0
2384,36583,0
2972,36570,0
3512,36612,0
3928,36613,0
4084,36589,0
4080,36579,0
3900,36581,0
3496,36590,0
2922,36602,0
2256,36590,0
1540,36586,0
880,36601,0
352,36562,0
0,36606,0
0,36604,0
0,36579,0
198,36594,0
616,36587,0
1164,36596,0
1792,36609,0
2424,36591,0
3057,36577,0
3586,36594,0
3976,36571,0
4095,36614,0
4080,36593,0
3872,36585,0
3448,36586,0
2860,36590,0
2180,36599,0
1472,36588,0
825,36583,0
317,36591,0
0,36603,0
0,36622,0
0,36593,0
233,36589,0
680,36593,0
1230,36583,0
1848,36610,0
2488,36618,0
3114,36599,0
3644,36589,0
3984,36603,0
4095,36574,0
4095,36618,0
3920,36621,0
3456,36595,0
2844,36602,0
2144,36607,0
1402,36607,0
745,36622,0
240,36589,0
0,36602,0
0,36605,0
0,36582,0
280,36620,0
749,36614,0
1332,36599,0
1988,36599,0
2672,36621,0
3316,36598,0
3872,36623,0
4095,36611,0
4095,36607,0
4092,36607,0
4012,36630,0
3684,36634,0
3208,36613,0
2660,36614,0
2076,36617,0
1536,36607,0
1216,36627,0
1037,36631,0
1056,36606,0
1292,36610,0
1700,36613,0
2304,36617,0
2980,36642,0
3704,36608,0
4095,36613,0
4095,36616,0
4095,36603,0
4095,36640,0
4095,36654,0
4095,36623,0
4095,36631,0
4095,36626,0
4095,36631,0
3952,36636,0
3634,36627,0
3264,36621,0
2904,36632,0
2592,36660,0
2420,36631,0
2300,36645,0
2368,36653,0
2520,36641,0
2808,36631,0
3108,36635,0
3424,36621,0
3756,36667,0
3964,36674,0
4064,36635,0
4040,36649,0
3832,36645,0
3456,36654,0
2928,36671,0
2284,36647,0
1604,36648,0
944,36653,0
380,36639,0
0,36667,0
0,36666,0
0,36650,0
67,36651,0
416,36629,0
880,36670,0
1472,36673,0
2073,36654,0
2712,36658,0
3212,36661,0
3628,36656,0
3900,36662,0
3940,36659,0
3796,36664,0
3432,36661,0
2890,36681,0
2234,36663,0
1512,36648,0
828,36664,0
245,36648,0
0,36682,0
0,36673,0
0,36667,0
29,36657,0
322,36654,0
765,36676,0
1312,36687,0
1912,36669,0
2512,36651,0
3120,36666,0
3560,36658,0
3842,36691,0
3912,36691,0
3768,36661,0
3404,36676,0
2868,36665,0
2182,36677,0
1464,36695,0
812,36670,0
253,36668,0
0,36676,0
0,36708,0
0,36686,0
73,36704,0
402,36686,0
864,36677,0
1394,36670,0
2036,36676,0
2644,36653,0
3184,36694,0
3604,36706,0
3832,36686,0
3888,36685,0
3712,36689,0
3336,36689,0
2792,36710,0
2140,36694,0
1444,36679,0
792,36696,0
260,36676,0
0,36705,0
0,36716,0
0,36689,0
106,36693,0
480,36706,0
992,36682,0
1577,36717,0
2225,36711,0
2820,36682,0
3360,36696,0
3768,36687,0
3994,36714,0
4064,36715,0
3788,36670,0
3384,36702,0
2808,36715,0
2156,36707,0
1440,36737,0
806,36731,0
266,36694,0
0,36697,0
0,36691,0
0,36722,0
163,36723,0
553,36700,0
1064,36702,0
1672,36711,0
2288,36692,0
2904,36738,0
3440,36728,0
3828,36703,0
4024,36708,0
4008,36716,0
3876,36694,0
3436,36733,0
2848,36732,0
2153,36709,0
1422,36708,0
768,36705,0
246,36710,0
0,36733,0
0,36734,0
0,36707,0
215,36715,0
630,36700,0
1164,36724,0
1773,36723,0
2416,36734,0
3024,36705,0
3536,36710,0
3904,36714,0
4072,36702,0
4040,36728,0
3816,36734,0
3360,36713,0
2768,36721,0
2094,36708,0
1394,36703,0
762,36729,0
272,36726,0
0,36721,0
0,36720,0
10,36702,0
288,36747,0
720,36743,0
1290,36720,0
1920,36728,0
2584,36723,0
3200,36726,0
3720,36762,0
4074,36748,0
4095,36724,0
4092,36722,0
3828,36720,0
3368,36754,0
2760,36764,0
2084,36725,0
1352,36749,0
728,36752,0
246,36736,0
0,36752,0
0,36756,0
36,36761,0
324,36742,0
772,36739,0
1344,36736,0
1956,36747,0
2624,36767,0
3200,36738,0
3696,36731,0
4028,36744,0
4088,36724,0
4040,36765,0
3760,36755,0
3272,36737,0
2658,36739,0
1970,36736,0
1296,36755,0
672,36755,0
198,36740,0
0,36733,0
0,36739,0
56,36714,0
365,36759,0
848,36730,0
1411,36734,0
2072,36729,0
2712,36713,0
3760,36585,0
4092,36720,0
4088,36739,0
4032,36710,0
3728,36729,0
3232,36728,0
2608,36700,0
1916,36694,0
1224,36683,0
634,36718,0
187,36709,0
0,36681,0
0,36678,0
81,36672,0
420,36662,0
906,36695,0
1500,36687,0
2136,36666,0
2784,36657,0
3432,36635,0
3912,36662,0
4095,36664,0
4095,36630,0
4092,36628,0
3776,36628,0
3264,36616,0
2616,36635,0
1894,36627,0
1200,36615,0
628,36606,0
204,36580,0
0,36613,0
0,36585,0
160,36591,0
537,36584,0
1052,36596,0
1664,36571,0
2322,36569,0
2964,36528,0
3536,36572,0
3984,36567,0
4093,36537,0
4088,36536,0
4040,36518,0
3732,36547,0
3216,36536,0
2620,36512,0
1942,36515,0
1281,36505,0
733,36517,0
330,36512,0
157,36491,0
110,36492,0
316,36479,0
708,36453,0
1242,36500,0
1864,36489,0
2512,36453,0
3168,36448,0
3696,36443,0
4095,36434,0
4095,36450,0
4095,36425,0
4095,36429,0
3728,36313,0
2060,36330,0
2720,36315,0
3348,36312,0
3873,36327,0
4095,36305,0
4095,36305,0
4095,36307,0
4056,36291,0
3689,36319,0
3146,36320,0
2506,36311,0
1820,36290,0
1187,36305,0
680,36293,0
342,36322,0
201,36304,0
277,36308,0
538,36295,0
968,36275,0
1528,36324,0
2136,36318,0
2794,36297,0
3412,36298,0
3928,36293,0
4095,36282,0
4095,36316,0
4095,36313,0
3968,36300,0
3576,36303,0
3020,36281,0
2377,36314,0
1716,36326,0
1088,36300,0
590,36300,0
294,36300,0
187,36325,0
279,36328,0
554,36328,0
989,36328,0
1552,36328,0
2152,36328,0
2808,36328,0
3540,36297,0
3896,36308,0
4094,36308,0
4095,36308,0
4094,36308,0
3908,36308,0
3496,36308,0
2944,36308,0
2328,36320,0
1634,36320,0
1056,36320,0
568,36320,0
273,36320,0
179,36320,0
298,36320,0
604,36300,0
1060,36300,0
1640,36300,0
2264,36300,0
2914,36300,0
3504,36300,0
4040,36300,0
4095,36306,0
4095,36344,0
4080,36354,0
3880,36314,0
3472,36329,0
2904,36317,0
2250,36346,0
1589,36351,0
1004,36336,0
561,36340,0
282,36333,0
214,36315,0
347,36349,0
656,36355,0
1118,36332,0
1692,36337,0
2308,36322,0
2948,36359,0
3520,36364,0
3984,36331,0
4095,36356,0
4095,36342,0
4095,36339,0
3912,36361,0
3464,36373,0
2869,36342,0
2200,36354,0
364,36352,0
697,36332,0
1180,36363,0
1760,36370,0
2392,36368,0
3016,36349,0
3596,36384,0
4024,36393,0
4095,36365,0
4095,36370,0
4072,36371,0
3808,36378,0
3348,36404,0
2756,36381,0
2098,36379,0
1450,36388,0
882,36368,0
468,36413,0
230,36416,0
208,36388,0
395,36399,0
752,36403,0
1270,36380,0
1859,36406,0
2504,36407,0
3144,36400,0
3712,36401,0
4092,36385,0
4095,36424,0
4095,36431,0
4084,36405,0
3824,36408,0
3288,36419,0
2700,36409,0
2026,36430,0
1384,36403,0
834,36445,0
456,36418,0
266,36408,0
237,36416,0
456,36395,0
800,36433,0
1332,36435,0
1912,36409,0
2537,36412,0
3168,36417,0
3710,36397,0
4088,36438,0
4095,36423,0
4088,36423,0
4028,36419,0
3712,36396,0
3288,36439,0
2652,36441,0
1978,36417,0
1332,36417,0
772,36410,0
396,36429,0
212,36440,0
246,36429,0
460,36412,0
866,36425,0
1381,36398,0
2000,36441,0
2616,36430,0
3220,36421,0
3760,36427,0
4095,36433,0
4095,36420,0
4088,36408,0
4002,36423,0
3664,36398,0
3160,36439,0
2552,36440,0
1876,36414,0
1256,36417,0
734,36410,0
380,36423,0
231,36441,0
273,36408,0
512,36409,0
920,36414,0
1448,36399,0
2060,36440,0
2732,36442,0
3360,36414,0
3884,36409,0
4095,36419,0
4095,36430,0
4095,36431,0
4052,36421,0
3648,36423,0
3128,36416,0
2500,36394,0
1819,36432,0
712,36402,0
365,36417,0
220,36425,0
284,36418,0
524,36387,0
953,36416,0
1496,36424,0
2096,36416,0
2760,36403,0
3352,36415,0
3896,36397,0
4095,36430,0
4095,36434,0
4088,36401,0
3976,36409,0
3616,36397,0
3100,36388,0
2484,36429,0
1850,36405,0
1248,36399,0
774,36403,0
472,36372,0
349,36426,0
446,36429,0
727,36401,0
1163,36397,0
1728,36398,0
2336,36375,0
2972,36415,0
3562,36426,0
4048,36388,0
4095,36397,0
4095,36402,0
4088,36412,0
3952,36389,0
3572,36406,0
3036,36400,0
2400,36381,0
1732,36410,0
1144,36418,0
677,36391,0
383,36395,0
280,36392,0
382,36388,0
680,36407,0
1121,36407,0
1674,36389,0
2272,36388,0
2900,36378,0
3488,36407,0
3960,36413,0
4094,36385,0
4095,36396,0
4095,36396,0
3956,36384,0
3524,36419,0
2936,36422,0
2262,36386,0
1590,36391,0
979,36371,0
529,36406,0
266,36412,0
187,36389,0
312,36392,0
656,36401,0
1120,36408,0
1704,36399,0
2316,36369,0
2952,36405,0
3584,36381,0
3984,36386,0
4095,36414,0
4092,36405,0
4072,36390,0
3848,36394,0
3400,36376,0
2824,36408,0
2168,36412,0
1524,36394,0
937,36385,0
508,36390,0
258,36371,0
205,36417,0
355,36415,0
690,36400,0
1174,36385,0
1773,36389,0
2418,36407,0
3072,36421,0
3648,36403,0
4095,36397,0
4095,36398,0
4095,36380,0
4092,36432,0
3832,36419,0
3424,36405,0
2760,36395,0
2100,36393,0
1456,36418,0
888,36413,0
474,36423,0
237,36391,0
224,36435,0
388,36423,0
736,36404,0
1242,36414,0
1816,36399,0
2432,36425,0
3056,36428,0
3616,36407,0
4068,36411,0
4095,36409,0
4095,36391,0
4040,36437,0
3732,36445,0
3240,36416,0
2672,36415,0
2004,36416,0
1340,36424,0
804,36439,0
420,36437,0
248,36422,0
290,36422,0
540,36411,0
959,36437,0
1533,36445,0
2184,36418,0
2888,36415,0
3520,36438,0
4080,36430,0
4095,36420,0
4092,36416,0
4095,36408,0
4095,36450,0
4084,36435,0
3920,36436,0
3576,36437,0
3144,36428,0
2760,36462,0
2418,36464,0
2176,36439,0
2113,36439,0
2204,36445,0
2468,36453,0
2868,36449,0
3388,36445,0
3976,36434,0
4095,36442,0
4095,36428,0
4095,36459,0
4095,36468,0
4095,36440,0
4095,36445,0
4095,36444,0
4095,36448,0
4095,36471,0
4069,36453,0
3796,36448,0
3376,36453,0
3000,36439,0
2569,36455,0
2280,36454,0
2116,36438,0
2076,36470,0
2176,36445,0
2388,36458,0
2684,36467,0
3026,36438,0
3392,36478,0
3704,36476,0
3924,36456,0
4048,36459,0
3936,36457,0
3744,36471,0
3248,36489,0
2704,36466,0
2046,36465,0
1400,36467,0
790,36447,0
324,36490,0
32,36491,0
0,36476,0
14,36471,0
291,36475,0
736,36472,0
1288,36493,0
1920,36491,0
2540,36469,0
3154,36484,0
3664,36459,0
4008,36501,0
4095,36508,0
4060,36508,0
3838,36503,0
3400,36500,0
2800,36493,0
2116,36503,0
1401,36492,0
760,36476,0
259,36510,0
0,36514,0
0,36490,0
0,36492,0
246,36493,0
676,36492,0
1210,36518,0
1824,36520,0
2456,36500,0
3056,36501,0
3564,36505,0
3920,36510,0
4072,36535,0
4095,36504,0
3848,36508,0
3392,36510,0
2780,36483,0
2080,36529,0
1368,36527,0
724,36504,0
240,36509,0
0,36501,0
0,36529,0
24,36535,0
296,36497,0
772,36526,0
1312,36514,0
1928,36514,0
2576,36521,0
3172,36519,0
3680,36517,0
4004,36536,0
4080,36512,0
4052,36500,0
3792,36505,0
3340,36486,0
2730,36539,0
2047,36535,0
1361,36510,0
748,36511,0
288,36510,0
3,36520,0
0,36529,0
75,36522,0
384,36512,0
848,36509,0
1440,36507,0
2089,36530,0
2754,36540,0
3368,36517,0
3864,36513,0
4095,36523,0
4095,36505,0
4092,36531,0
3826,36541,0
3345,36521,0
2776,36520,0
2044,36530,0
1364,36515,0
770,36536,0
328,36531,0
70,36512,0
0,36548,0
161,36551,0
496,36533,0
976,36512,0
1568,36534,0
2200,36512,0
2848,36554,0
3424,36557,0
3892,36532,0
4094,36531,0
4094,36536,0
4048,36520,0
3795,36566,0
3272,36558,0
2692,36530,0
2020,36539,0
1332,36551,0
741,36538,0
310,36567,0
77,36555,0
32,36541,0
221,36550,0
587,36527,0
1070,36554,0
1698,36567,0
2336,36538,0
3524,36569,0
3970,36548,0
4095,36546,0
4095,36557,0
4040,36541,0
3732,36549,0
3240,36534,0
2620,36540,0
1952,36568,0
1290,36564,0
738,36547,0
332,36547,0
122,36540,0
107,36562,0
310,36567,0
672,36547,0
1181,36549,0
1780,36559,0
2416,36535,0
3104,36562,0
3668,36579,0
4095,36548,0
4095,36556,0
4095,36556,0
4094,36546,0
3776,36585,0
3265,36574,0
2586,36546,0
1922,36553,0
1258,36551,0
708,36568,0
308,36576,0
129,36569,0
147,36553,0
373,36569,0
737,36566,0
1252,36568,0
1852,36588,0
2484,36553,0
3112,36559,0
3652,36552,0
4040,36566,0
4095,36578,0
4092,36568,0
4016,36552,0
3648,36558,0
3136,36540,0
2504,36576,0
1828,36569,0
1208,36557,0
661,36538,0
312,36548,0
129,36543,0
170,36576,0
411,36576,0
828,36542,0
1379,36550,0
1992,36546,0
2640,36537,0
3232,36555,0
3762,36555,0
4095,36531,0
4095,36532,0
4095,36509,0
3952,36524,0
3576,36533,0
3040,36510,0
2408,36528,0
1724,36518,0
1098,36506,0
592,36501,0
263,36499,0
112,36469,0
172,36510,0
436,36509,0
861,36486,0
1412,36481,0
2024,36474,0
2676,36447,0
3280,36484,0
3824,36485,0
4084,36447,0
4095,36445,0
4088,36447,0
4048,36427,0
3666,36457,0
3128,36446,0
2474,36426,0
1798,36418,0
1176,36403,0
676,36416,0
365,36420,0
230,36384,0
356,36389,0
605,36395,0
1048,36360,0
1600,36394,0
2212,36373,0
2848,36361,0
3452,36357,0
3960,36347,0
4094,36367,0
4095,36331,0
4088,36343,0
3960,36334,0
3608,36296,0
3070,36350,0
2456,36336,0
1816,36303,0
1208,36299,0
754,36304,0
458,36279,0
344,36308,0
451,36308,0
736,36273,0
1172,36276,0
1744,36248,0
2379,36277,0
3019,36278,0
3616,36250,0
4095,36256,0
4095,36245,0
4095,36221,0
4095,36254,0
3972,36242,0
3580,36235,0
3036,36217,0
2432,36206,0
1744,36217,0
1176,36205,0
720,36214,0
450,36184,0
372,36209,0
491,36201,0
792,36208,0
1241,36193,0
1778,36173,0
2424,36209,0
3028,36195,0
3600,36178,0
4040,36177,0
4095,36169,0
4095,36177,0
4080,36192,0
3888,36170,0
3520,36164,0
2912,36168,0
2284,36146,0
1640,36189,0
1080,36192,0
634,36153,0
371,36162,0
317,36164,0
460,36157,0
794,36169,0
1270,36171,0
1840,36160,0
2476,36151,0
3105,36146,0
3728,36146,0
4064,36156,0
4095,36140,0
4094,36140,0
4080,36151,0
3850,36147,0
3420,36172,0
2848,36144,0
2212,36150,0
1574,36144,0
1021,36130,0
612,36169,0
352,36163,0
361,36148,0
524,36149,0
872,36146,0
1360,36176,0
1940,36171,0
2546,36145,0
3168,36146,0
3728,36147,0
4095,36132,0
4095,36167,0
4095,36176,0
4095,36160,0
3892,36156,0
3440,36160,0
2853,36144,0
2184,36179,0
1534,36173,0
1008,36148,0
612,36159,0
394,36158,0
392,36162,0
569,36140,0
924,36163,0
1426,36174,0
2008,36188,0
2610,36193,0
3248,36181,0
3796,36167,0
4092,36165,0
4095,36169,0
4095,36176,0
4064,36190,0
3796,36177,0
3344,36175,0
2762,36176,0
2124,36164,0
1502,36209,0
970,36209,0
598,36186,0
412,36190,0
405,36183,0
610,36192,0
992,36214,0
1496,36207,0
2102,36186,0
2744,36198,0
3368,36178,0
3860,36218,0
4095,36233,0
4095,36194,0
4095,36191,0
4095,36198,0
3744,36215,0
3272,36198,0
2684,36210,0
2034,36211,0
1408,36219,0
894,36211,0
546,36223,0
384,36206,0
402,36227,0
634,36237,0
1017,36217,0
1532,36220,0
2124,36220,0
2744,36204,0
3360,36238,0
3872,36244,0
4092,36221,0
4094,36232,0
4094,36228,0
4024,36213,0
3792,36253,0
3289,36266,0
2680,36228,0
2042,36242,0
1410,36241,0
896,36252,0
566,36272,0
428,36247,0
474,36246,0
736,36263,0
1140,36241,0
1680,36280,0
2248,36269,0
2872,36255,0
3460,36235,0
3964,36258,0
4095,36274,0
4095,36263,0
4095,36263,0
4008,36258,0
3660,36301,0
3160,36287,0
2546,36272,0
1904,36277,0
1308,36278,0
828,36276,0
540,36294,0
402,36309,0
487,36275,0
756,36274,0
1178,36287,0
1698,36304,0
2354,36318,0
2984,36298,0
3596,36292,0
4080,36287,0
4095,36284,0
4095,36317,0
4095,36318,0
3992,36293,0
3632,36310,0
3112,36301,0
2482,36283,0
1232,36318,0
772,36305,0
472,36317,0
382,36307,0
474,36318,0
761,36337,0
1226,36330,0
1741,36296,0
2356,36308,0
2984,36314,0
3560,36314,0
4032,36325,0
4095,36332,0
4095,36311,0
4095,36328,0
3944,36303,0
3564,36335,0
3040,36328,0
2416,36314,0
1788,36319,0
1212,36311,0
768,36294,0
486,36346,0
410,36350,0
518,36324,0
826,36325,0
1296,36318,0
1844,36321,0
2464,36333,0
3080,36337,0
3656,36316,0
4095,36326,0
4095,36318,0
4095,36336,0
4088,36318,0
3908,36315,0
3496,36322,0
2960,36347,0
2328,36326,0
1701,36326,0
1136,36305,0
708,36348,0
454,36345,0
400,36325,0
542,36323,0
868,36328,0
1328,36318,0
1896,36351,0
2520,36347,0
3136,36325,0
3696,36327,0
4088,36332,0
4095,36327,0
4095,36349,0
4095,36345,0
3944,36331,0
3522,36332,0
2960,36309,0
2306,36345,0
1644,36347,0
1070,36331,0
682,36327,0
448,36337,0
400,36318,0
588,36324,0
930,36335,0
1416,36327,0
1988,36322,0
2620,36338,0
3232,36335,0
3800,36346,0
4088,36318,0
4088,36361,0
4092,36367,0
4072,36339,0
3880,36332,0
3480,36331,0
2928,36339,0
2320,36361,0
1700,36342,0
1174,36341,0
788,36334,0
579,36322,0
582,36366,0
741,36352,0
1098,36331,0
1588,36332,0
2168,36339,0
2800,36310,0
3408,36363,0
3952,36356,0
4095,36341,0
4095,36329,0
4095,36334,0
4092,36318,0
3880,36346,0
3368,36340,0
2804,36332,0
2144,36346,0
1529,36329,0
1002,36339,0
632,36336,0
432,36316,0
436,36354,0
636,36358,0
1012,36320,0
1500,36334,0
2088,36316,0
2704,36318,0
3312,36345,0
3839,36361,0
4092,36329,0
4095,36337,0
4095,36348,0
4088,36332,0
3744,36352,0
3336,36347,0
2728,36332,0
2076,36342,0
1440,36309,0
906,36350,0
540,36358,0
374,36332,0
405,36336,0
618,36342,0
1023,36308,0
1548,36369,0
2168,36375,0
2760,36354,0
3372,36334,0
3904,36354,0
4095,36354,0
4095,36339,0
4088,36370,0
4028,36379,0
3720,36349,0
3228,36358,0
2628,36345,0
1984,36351,0
1384,36377,0
881,36363,0
545,36362,0
396,36359,0
441,36359,0
697,36378,0
1096,36375,0
1620,36371,0
2224,36360,0
2888,36366,0
3496,36359,0
4016,36391,0
4095,36397,0
4095,36370,0
4095,36366,0
4088,36368,0
3690,36347,0
3184,36381,0
2580,36397,0
1924,36369,0
1330,36369,0
836,36376,0
520,36395,0
402,36381,0
471,36388,0
728,36372,0
1144,36402,0
1676,36407,0
2268,36366,0
2876,36392,0
3472,36375,0
3938,36361,0
4095,36399,0
4095,36404,0
4088,36372,0
3944,36390,0
3576,36390,0
3064,36373,0
2468,36411,0
1852,36410,0
1293,36390,0
884,36390,0
621,36377,0
571,36401,0
710,36409,0
1059,36397,0
1549,36397,0
2166,36391,0
2816,36383,0
3509,36413,0
4095,36419,0
4095,36414,0
4095,36387,0
4095,36404,0
4095,36415,0
4095,36378,0
4095,36402,0
4048,36399,0
3844,36402,0
3546,36401,0
3232,36422,0
2976,36437,0
2848,36410,0
2814,36412,0
2928,36419,0
3184,36398,0
3556,36434,0
3984,36438,0
4095,36413,0
4095,36415,0
4095,36418,0
4095,36401,0
4095,36442,0
4095,36450,0
4095,36426,0
4095,36427,0
4095,36427,0
3912,36419,0
3488,36458,0
2982,36461,0
2432,36429,0
1980,36440,0
1641,36450,0
1450,36410,0
1428,36458,0
1540,36438,0
1809,36452,0
2168,36418,0
2602,36453,0
3056,36473,0
3476,36472,0
3816,36473,0
4095,36447,0
4048,36450,0
3912,36454,0
3580,36436,0
3104,36480,0
2456,36476,0
1812,36448,0
1148,36467,0
602,36463,0
213,36456,0
0,36483,0
5,36474,0
185,36459,0
561,36466,0
1060,36455,0
1682,36479,0
2320,36481,0
2960,36476,0
3544,36464,0
3992,36470,0
4095,36451,0
4095,36483,0
4032,36494,0
3700,36494,0
3224,36485,0
2532,36474,0
1816,36496,0
1160,36477,0
588,36493,0
176,36459,0
0,36511,0
0,36509,0
147,36480,0
508,36475,0
1013,36490,0
1602,36459,0
2240,36506,0
2880,36512,0
3474,36484,0
3872,36493,0
4095,36487,0
4088,36477,0
3976,36514,0
3640,36522,0
3112,36497,0
2504,36495,0
1796,36495,0
1120,36488,0
561,36521,0
154,36522,0
0,36498,0
0,36503,0
200,36510,0
582,36481,0
1124,36532,0
1741,36531,0
3000,36551,0
3560,36497,0
3972,36500,0
4080,36529,0
4088,36519,0
3976,36522,0
3616,36512,0
3080,36521,0
2444,36511,0
1778,36547,0
1120,36543,0
573,36525,0
211,36522,0
39,36517,0
85,36516,0
313,36549,0
709,36562,0
1248,36540,0
1864,36531,0
2552,36530,0
3168,36519,0
3728,36543,0
4095,36555,0
4095,36546,0
4095,36535,0
4040,36543,0
3652,36530,0
3056,36560,0
2442,36567,0
1720,36544,0
1088,36544,0
552,36537,0
222,36551,0
82,36535,0
135,36550,0
393,36551,0
807,36546,0
1352,36557,0
1962,36547,0
2632,36549,0
3224,36549,0
3744,36530,0
4088,36567,0
4095,36572,0
4084,36537,0
3952,36538,0
3544,36543,0
3004,36559,0
2352,36570,0
1681,36559,0
1062,36546,0
569,36565,0
219,36545,0
91,36548,0
174,36566,0
456,36565,0
896,36543,0
1469,36550,0
2096,36543,0
2728,36563,0
3329,36581,0
3848,36567,0
4095,36565,0
4095,36560,0
4080,36573,0
3920,36567,0
3512,36584,0
2964,36562,0
2330,36565,0
1680,36554,0
1049,36565,0
572,36544,0
272,36585,0
156,36582,0
259,36570,0
540,36566,0
983,36567,0
1520,36558,0
2140,36593,0
2768,36586,0
3360,36568,0
3896,36568,0
4092,36583,0
4095,36558,0
4095,36605,0
3952,36596,0
3520,36580,0
2932,36578,0
2272,36579,0
1578,36573,0
976,36603,0
505,36603,0
208,36574,0
164,36590,0
264,36576,0
560,36594,0
1030,36593,0
1596,36597,0
2209,36602,0
2848,36596,0
3432,36598,0
3900,36613,0
4094,36611,0
4095,36590,0
4068,36588,0
3836,36578,0
3396,36568,0
2824,36608,0
2166,36603,0
1500,36587,0
902,36583,0
456,36585,0
195,36576,0
136,36595,0
272,36591,0
600,36570,0
1078,36556,0
1668,36555,0
2314,36530,0
2948,36576,0
3545,36574,0
4004,36547,0
4095,36545,0
4095,36541,0
4090,36521,0
3816,36557,0
3350,36548,0
2784,36517,0
2064,36516,0
1416,36530,0
835,36525,0
425,36509,0
182,36504,0
149,36491,0
313,36491,0
673,36484,0
1168,36469,0
1748,36505,0
2368,36497,0
3016,36466,0
3572,36459,0
4016,36464,0
4088,36439,0
4090,36464,0
4064,36469,0
3796,36431,0
3359,36428,0
2740,36428,0
2136,36396,0
1472,36431,0
905,36437,0
494,36407,0
282,36397,0
257,36397,0
446,36378,0
818,36419,0
1316,36408,0
1920,36369,0
2557,36360,0
3220,36364,0
3708,36388,0
4094,36352,0
4094,36370,0
4095,36350,0
4052,36341,0
3776,36320,0
3308,36317,0
2720,36316,0
2080,36292,0
1472,36333,0
925,36322,0
542,36297,0
361,36301,0
367,36299,0
560,36268,0
962,36298,0
1442,36307,0
2022,36255,0
2648,36264,0
3264,36265,0
3872,36236,0
4095,36269,0
4095,36273,0
4095,36244,0
4095,36243,0
3792,36246,0
3296,36227,0
2658,36253,0
2002,36251,0
1387,36218,0
868,36216,0
483,36223,0
334,36226,0
352,36220,0
584,36214,0
954,36200,0
1478,36193,0
2080,36189,0
2696,36223,0
3300,36222,0
3816,36188,0
4095,36192,0
4095,36180,0
4094,36182,0
3860,36194,0
3680,36193,0
3156,36186,0
2556,36176,0
1913,36170,0
1296,36172,0
780,36198,0
446,36184,0
289,36179,0
343,36173,0
583,36160,0
1013,36169,0
1552,36179,0
2168,36178,0
2804,36173,0
3380,36176,0
3885,36162,0
4095,36174,0
4095,36186,0
4095,36196,0
3972,36167,0
3608,36145,0
3096,36177,0
2468,36180,0
1816,36177,0
1213,36177,0
739,36149,0
416,36196,0
296,36201,0
370,36177,0
633,36177,0
1056,36185,0
1608,36166,0
2208,36201,0
2825,36200,0
3424,36178,0
3924,36184,0
4095,36187,0
4095,36174,0
4095,36188,0
4032,36207,0
3640,36187,0
3096,36183,0
2452,36200,0
1782,36170,0
1168,36207,0
683,36217,0
390,36200,0
278,36193,0
380,36198,0
658,36189,0
1093,36204,0
1656,36198,0
2248,36217,0
2864,36194,0
3452,36201,0
3940,36223,0
4088,36219,0
4095,36190,0
4080,36194,0
3912,36205,0
3520,36179,0
2976,36225,0
2340,36225,0
1684,36200,0
1104,36203,0
648,36213,0
364,36192,0
280,36222,0
400,36240,0
696,36208,0
1150,36201,0
1722,36205,0
2349,36197,0
2996,36229,0
3584,36244,0
4056,36210,0
4095,36212,0
4095,36206,0
4095,36216,0
3896,36236,0
3480,36240,0
2904,36227,0
1589,36295,0
1020,36250,0
584,36237,0
352,36219,0
274,36242,0
413,36234,0
733,36238,0
1202,36240,0
1768,36217,0
2407,36259,0
3008,36251,0
3568,36245,0
4012,36249,0
4095,36242,0
4095,36241,0
4072,36248,0
3824,36266,0
3396,36262,0
2820,36252,0
2176,36260,0
1552,36240,0
976,36270,0
550,36283,0
313,36265,0
267,36251,0
432,36262,0
776,36263,0
1264,36278,0
1833,36286,0
2470,36286,0
3096,36270,0
3712,36279,0
4056,36295,0
4095,36298,0
4095,36283,0
4064,36288,0
3804,36269,0
3360,36301,0
2780,36309,0
2132,36286,0
1492,36289,0
944,36289,0
540,36268,0
326,36303,0
304,36312,0
484,36289,0
842,36291,0
1308,36287,0
1896,36279,0
2514,36311,0
3124,36315,0
3672,36282,0
4095,36293,0
4095,36301,0
4095,36277,0
4095,36317,0
3813,36327,0
3336,36290,0
2720,36297,0
2029,36295,0
1390,36291,0
872,36329,0
482,36323,0
281,36297,0
308,36287,0
500,36330,0
876,36298,0
1378,36325,0
1964,36302,0
2588,36320,0
3204,36339,0
3744,36310,0
4088,36310,0
4095,36303,0
4090,36289,0
4032,36322,0
3712,36330,0
3216,36312,0
2608,36312,0
1956,36303,0
1326,36294,0
796,36324,0
438,36328,0
273,36313,0
288,36306,0
514,36301,0
908,36303,0
1441,36303,0
2052,36332,0
2689,36313,0
3304,36308,0
3796,36315,0
4095,36309,0
4095,36309,0
4095,36324,0
4080,36325,0
3672,36306,0
3168,36320,0
2558,36310,0
1920,36321,0
1312,36309,0
825,36331,0
505,36324,0
368,36307,0
432,36299,0
685,36295,0
1098,36313,0
1616,36324,0
2216,36304,0
2852,36301,0
3440,36300,0
3960,36290,0
4095,36317,0
4095,36325,0
4094,36324,0
4004,36312,0
3732,36300,0
3216,36302,0
2608,36314,0
1938,36326,0
1336,36321,0
809,36301,0
489,36317,0
376,36307,0
398,36306,0
678,36326,0
1080,36317,0
1608,36301,0
2176,36286,0
2788,36313,0
3360,36323,0
3848,36313,0
4094,36323,0
4095,36336,0
4084,36336,0
3912,36300,0
3520,36313,0
2992,36313,0
2344,36288,0
1684,36324,0
1094,36331,0
624,36299,0
324,36309,0
226,36310,0
312,36285,0
606,36330,0
1046,36328,0
1600,36298,0
2248,36309,0
2897,36304,0
3496,36277,0
4004,36329,0
4095,36330,0
4095,36302,0
4095,36318,0
3944,36316,0
3540,36299,0
3000,36338,0
2344,36340,0
1698,36308,0
1088,36321,0
639,36328,0
346,36318,0
264,36328,0
361,36323,0
658,36336,0
1104,36335,0
1690,36316,0
2272,36316,0
2888,36317,0
3472,36293,0
3936,36331,0
4094,36343,0
4095,36316,0
4080,36316,0
3888,36318,0
3448,36304,0
2900,36325,0
2252,36333,0
1604,36327,0
1037,36324,0
586,36329,0
322,36317,0
263,36331,0
404,36341,0
720,36336,0
1196,36320,0
1753,36326,0
2372,36318,0
2980,36315,0
3556,36357,0
4064,36350,0
4095,36344,0
4095,36345,0
4064,36327,0
3792,36370,0
3344,36345,0
2744,36341,0
2084,36329,0
1408,36354,0
844,36356,0
418,36354,0
187,36346,0
137,36346,0
330,36351,0
699,36335,0
1206,36370,0
1817,36367,0
2488,36348,0
3152,36351,0
3768,36348,0
4095,36325,0
4095,36365,0
4095,36378,0
4095,36350,0
4095,36356,0
3792,36362,0
3352,36344,0
2826,36385,0
2306,36378,0
1882,36359,0
1640,36358,0
1525,36368,0
1636,36343,0
1908,36358,0
2336,36379,0
2920,36356,0
3560,36381,0
4095,36400,0
4095,36404,0
4095,36369,0
4095,36369,0
4095,36370,0
4095,36350,0
4095,36393,0
4095,36400,0
4095,36387,0
4094,36364,0
3996,36379,0
3708,36380,0
3380,36393,0
3056,36396,0
2821,36403,0
2616,36382,0
2592,36381,0
2644,36378,0
2804,36389,0
3033,36395,0
3338,36416,0
3636,36393,0
3904,36401,0
4040,36398,0
4095,36400,0
4016,36419,0
3753,36412,0
2760,36442,0
2137,36425,0
1460,36404,0
859,36385,0
362,36404,0
53,36422,0
0,36428,0
7,36402,0
280,36407,0
666,36423,0
1196,36390,0
1799,36444,0
2416,36437,0
3060,36414,0
3528,36416,0
3944,36413,0
4064,36405,0
4095,36440,0
3848,36446,0
3424,36428,0
2904,36415,0
2200,36421,0
1473,36411,0
797,36431,0
252,36449,0
0,36451,0
0,36420,0
0,36423,0
153,36425,0
562,36419,0
1070,36456,0
1672,36458,0
2268,36454,0
2876,36441,0
3388,36443,0
3776,36438,0
3968,36418,0
3964,36440,0
3748,36433,0
3332,36445,0
2768,36465,0
2096,36442,0
1408,36448,0
774,36440,0
272,36443,0
0,36453,0
0,36466,0
0,36452,0
222,36448,0
630,36447,0
1156,36435,0
1760,36437,0
2424,36475,0
3040,36465,0
3546,36448,0
3908,36452,0
4088,36452,0
4076,36445,0
3816,36473,0
3344,36485,0
2740,36449,0
2074,36457,0
1374,36461,0
736,36450,0
256,36454,0
0,36481,0
0,36469,0
20,36478,0
285,36471,0
714,36462,0
1258,36467,0
1888,36470,0
2504,36452,0
3096,36502,0
3588,36499,0
3924,36475,0
4056,36473,0
4000,36477,0
3738,36456,0
3280,36492,0
2680,36499,0
2021,36494,0
1317,36476,0
710,36482,0
232,36471,0
0,36490,0
0,36519,0
32,36495,0
341,36478,0
814,36488,0
1394,36481,0
2009,36507,0
2658,36509,0
3244,36493,0
3728,36500,0
4095,36494,0
4080,36498,0
4032,36479,0
3744,36487,0
3264,36493,0
2648,36515,0
1960,36493,0
1280,36502,0
688,36478,0
237,36520,0
0,36521,0
0,36503,0
89,36501,0
428,36502,0
896,36490,0
1476,36533,0
2108,36533,0
2784,36502,0
3320,36506,0
3778,36501,0
4072,36487,0
4095,36534,0
4095,36537,0
3801,36508,0
3288,36513,0
2656,36517,0
1946,36496,0
1248,36532,0
656,36540,0
193,36511,0
11,36515,0
0,36519,0
82,36496,0
458,36524,0
926,36533,0
1520,36516,0
2140,36542,0
2784,36522,0
3344,36522,0
3848,36513,0
4064,36518,0
4080,36550,0
4004,36548,0
3664,36519,0
3160,36539,0
2528,36524,0
1848,36528,0
1172,36554,0
604,36553,0
192,36532,0
0,36542,0
0,36539,0
149,36512,0
508,36568,0
1028,36561,0
1637,36532,0
2280,36537,0
2928,36554,0
3508,36515,0
3936,36557,0
4095,36567,0
4095,36538,0
4000,36546,0
3637,36548,0
3138,36528,0
2440,36563,0
1760,36549,0
1069,36539,0
510,36547,0
114,36561,0
0,36547,0
0,36555,0
164,36542,0
538,36549,0
1050,36568,0
1641,36548,0
2280,36545,0
2912,36546,0
3460,36541,0
3880,36547,0
4072,36564,0
4084,36541,0
3936,36538,0
3568,36539,0
3028,36537,0
2416,36533,0
1704,36544,0
1024,36547,0
472,36527,0
80,36523,0
0,36519,0
0,36527,0
198,36541,0
581,36530,0
1132,36498,0
1738,36506,0
2404,36510,0
2984,36519,0
3530,36506,0
3936,36512,0
4092,36495,0
4080,36488,0
3920,36492,0
3528,36471,0
2978,36500,0
2322,36497,0
1628,36471,0
990,36455,0
474,36461,0
118,36440,0
0,36471,0
23,36467,0
264,36453,0
700,36442,0
1220,36437,0
1844,36431,0
2488,36415,0
3160,36453,0
3696,36436,0
4082,36408,0
4095,36409,0
4095,36403,0
3992,36388,0
3572,36412,0
2976,36413,0
2312,36378,0
1622,36380,0
985,36377,0
476,36356,0
153,36372,0
31,36367,0
109,36372,0
371,36357,0
804,36350,0
1356,36335,0
1984,36345,0
2617,36327,0
3224,36310,0
3728,36337,0
4072,36336,0
4095,36308,0
4084,36293,0
3880,36303,0
3468,36280,0
2888,36312,0
2228,36314,0
1545,36282,0
925,36280,0
432,36279,0
101,36265,0
0,36273,0
78,36288,0
368,36272,0
816,36263,0
1389,36254,0
2022,36245,0
2656,36238,0
3282,36267,0
3758,36275,0
4088,36234,0
4095,36242,0
4064,36227,0
3836,36220,0
3400,36239,0
2812,36243,0
2148,36235,0
1456,36225,0
852,36200,0
384,36248,0
98,36242,0
0,36218,0
112,36207,0
424,36216,0
872,36202,0
1457,36234,0
2064,36241,0
2712,36214,0
3296,36209,0
3776,36214,0
4072,36197,0
4094,36220,0
4095,36214,0
3856,36220,0
3380,36195,0
2776,36207,0
2082,36202,0
1372,36185,0
765,36219,0
310,36233,0
37,36198,0
0,36203,0
132,36200,0
936,36218,0
1524,36210,0
2146,36217,0
2780,36198,0
3368,36177,0
3832,36184,0
4095,36229,0
4092,36227,0
4040,36198,0
3752,36194,0
3276,36208,0
2664,36187,0
1992,36227,0
1340,36228,0
742,36202,0
321,36210,0
79,36210,0
40,36193,0
201,36238,0
532,36241,0
1033,36203,0
1621,36217,0
2265,36214,0
2908,36199,0
3488,36237,0
3944,36240,0
4095,36222,0
4095,36218,0
4042,36226,0
3728,36206,0
3216,36235,0
2612,36251,0
1896,36218,0
1221,36224,0
652,36233,0
247,36230,0
37,36226,0
0,36225,0
202,36245,0
564,36258,0
1076,36249,0
1664,36241,0
2312,36242,0
2936,36238,0
3496,36262,0
3920,36268,0
4080,36247,0
4088,36246,0
3984,36259,0
3640,36235,0
3124,36264,0
2488,36270,0
1828,36257,0
1152,36252,0
597,36260,0
208,36246,0
3,36279,0
36,36287,0
243,36281,0
635,36257,0
1149,36270,0
1776,36271,0
2416,36280,0
3088,36296,0
3568,36270,0
4000,36254,0
4095,36272,0
4095,36269,0
3832,36285,0
3624,36275,0
3088,36284,0
2440,36276,0
1752,36290,0
1104,36312,0
560,36309,0
190,36282,0
10,36290,0
40,36299,0
250,36290,0
646,36308,0
1172,36318,0
1786,36306,0
2420,36312,0
3040,36311,0
3648,36307,0
4048,36345,0
4095,36340,0
4095,36317,0
4020,36323,0
3624,36330,0
3060,36304,0
2368,36350,0
1685,36354,0
1036,36327,0
502,36341,0
129,36332,0
0,36336,0
34,36355,0
286,36350,0
701,36340,0
1233,36363,0
1840,36342,0
2482,36346,0
3090,36327,0
3616,36369,0
3984,36378,0
4095,36353,0
4076,36356,0
3892,36367,0
3488,36358,0
2928,36378,0
2260,36373,0
1576,36357,0
948,36352,0
448,36359,0
106,36346,0
0,36356,0
32,36383,0
299,36382,0
752,36361,0
1309,36368,0
1952,36356,0
2604,36349,0
3188,36392,0
3728,36392,0
4060,36363,0
4095,36366,0
4095,36369,0
3872,36372,0
3440,36372,0
2872,36389,0
2208,36378,0
1508,36384,0
889,36387,0
407,36367,0
89,36376,0
0,36366,0
70,36359,0
360,36400,0
794,36387,0
1344,36374,0
1956,36371,0
2608,36376,0
3200,36359,0
3704,36387,0
4040,36399,0
4092,36377,0
4088,36367,0
3936,36376,0
3490,36354,0
2912,36399,0
2241,36397,0
1564,36371,0
936,36369,0
466,36376,0
190,36358,0
90,36371,0
225,36392,0
529,36381,0
992,36376,0
1568,36384,0
2180,36363,0
2820,36390,0
3416,36382,0
3888,36379,0
4092,36383,0
4092,36375,0
4064,36361,0
3824,36405,0
3368,36404,0
2776,36381,0
2128,36375,0
1424,36383,0
828,36366,0
374,36393,0
96,36411,0
21,36394,0
151,36377,0
464,36381,0
923,36373,0
1520,36363,0
2148,36397,0
2804,36411,0
3384,36374,0
3856,36391,0
4095,36382,0
4095,36359,0
4056,36408,0
3744,36401,0
3258,36383,0
2609,36374,0
1936,36372,0
1225,36375,0
640,36399,0
207,36385,0
0,36374,0
0,36375,0
110,36362,0
442,36380,0
928,36400,0
1516,36384,0
2148,36378,0
2792,36372,0
3360,36379,0
3808,36372,0
4072,36398,0
4082,36398,0
3994,36367,0
3664,36376,0
3156,36371,0
2524,36357,0
1840,36407,0
1168,36396,0
584,36375,0
170,36379,0
0,36375,0
0,36354,0
133,36395,0
513,36400,0
1016,36383,0
1600,36374,0
2266,36383,0
2888,36367,0
3496,36394,0
3864,36378,0
4095,36397,0
4088,36390,0
3964,36367,0
3632,36384,0
3096,36397,0
2448,36397,0
1752,36385,0
1086,36382,0
525,36375,0
132,36371,0
0,36401,0
0,36401,0
157,36385,0
530,36388,0
1041,36389,0
1632,36378,0
2260,36387,0
2896,36408,0
3544,36397,0
3936,36386,0
4095,36390,0
4095,36370,0
4000,36417,0
3608,36416,0
3044,36396,0
2356,36397,0
1633,36395,0
953,36375,0
426,36421,0
40,36434,0
0,36393,0
0,36385,0
229,36435,0
641,36398,0
1178,36403,0
1832,36403,0
2508,36401,0
3152,36400,0
3720,36406,0
4088,36423,0
4095,36438,0
4088,36407,0
4056,36412,0
3808,36406,0
3392,36406,0
2864,36426,0
2296,36441,0
1780,36405,0
1380,36417,0
1146,36418,0
1104,36406,0
1266,36439,0
1617,36443,0
2117,36417,0
2724,36422,0
3400,36419,0
4080,36409,0
4095,36438,0
4095,36453,0
4095,36418,0
4095,36424,0
4095,36427,0
4095,36436,0
4052,36430,0
3772,36449,0
3360,36456,0
2888,36449,0
2441,36428,0
2096,36424,0
1824,36425,0
1725,36455,0
1776,36465,0
1968,36428,0
2256,36426,0
2628,36441,0
3040,36423,0
3436,36454,0
3764,36460,0
3984,36428,0
4040,36439,0
3944,36442,0
3652,36412,0
3240,36458,0
2620,36459,0
1936,36427,0
1241,36434,0
620,36431,0
145,36420,0
0,36453,0
0,36472,0
0,36448,0
271,36442,0
686,36446,0
1210,36440,0
1800,36436,0
2406,36455,0
2976,36449,0
3452,36420,0
3768,36460,0
3908,36473,0
3836,36450,0
3560,36460,0
3088,36458,0
2480,36458,0
1790,36477,0
1106,36488,0
502,36464,0
13,36460,0
0,36462,0
0,36447,0
0,36491,0
232,36494,0
632,36469,0
1156,36476,0
1752,36472,0
2368,36451,0
2944,36485,0
3428,36489,0
3760,36474,0
3892,36477,0
3818,36476,0
3500,36469,0
3024,36500,0
2418,36505,0
1746,36490,0
1066,36486,0
474,36490,0
27,36495,0
0,36495,0
0,36488,0
13,36481,0
289,36512,0
720,36488,0
1254,36492,0
1848,36497,0
2472,36477,0
3024,36522,0
3536,36525,0
3768,36501,0
3928,36498,0
3792,36501,0
3520,36492,0
2984,36519,0
2402,36526,0
1689,36519,0
1021,36512,0
424,36502,0
0,36501,0
0,36507,0
0,36530,0
23,36525,0
341,36512,0
802,36519,0
1368,36511,0
1970,36504,0
2600,36538,0
3160,36542,0
3656,36515,0
3872,36513,0
3952,36502,0
3824,36517,0
3488,36497,0
2968,36525,0
2336,36547,0
1640,36531,0
969,36515,0
410,36526,0
2,36531,0
0,36541,0
0,36548,0
76,36538,0
406,36528,0
872,36532,0
1444,36529,0
2068,36529,0
2712,36561,0
3232,36557,0
3756,36535,0
4000,36534,0
4072,36535,0
3920,36518,0
3556,36555,0
3014,36566,0
2345,36546,0
1649,36537,0
954,36551,0
386,36531,0
1,36562,0
0,36562,0
0,36557,0
80,36546,0
472,36544,0
964,36569,0
1546,36543,0
2168,36525,0
2784,36559,0
3368,36579,0
3744,36566,0
3968,36556,0
4048,36557,0
3856,36556,0
3472,36560,0
2914,36584,0
2260,36574,0
1564,36560,0
916,36563,0
370,36574,0
5,36555,0
0,36591,0
0,36591,0
142,36559,0
521,36564,0
1052,36572,0
1664,36556,0
2288,36590,0
2930,36595,0
3480,36582,0
3840,36569,0
4058,36581,0
4076,36566,0
3878,36567,0
3520,36595,0
2880,36600,0
2216,36594,0
1508,36593,0
862,36581,0
332,36582,0
0,36594,0
0,36610,0
0,36604,0
187,36585,0
587,36586,0
1116,36586,0
1708,36583,0
2352,36605,0
2952,36625,0
3480,36595,0
3848,36597,0
4044,36598,0
4032,36579,0
3828,36621,0
3400,36620,0
2864,36588,0
2168,36589,0
1456,36602,0
796,36581,0
280,36619,0
0,36619,0
0,36607,0
0,36598,0
229,36597,0
654,36586,0
1194,36610,0
1810,36617,0
2440,36610,0
3016,36592,0
3520,36616,0
3876,36602,0
4040,36625,0
4008,36596,0
3760,36599,0
3316,36585,0
2728,36612,0
2046,36618,0
1345,36583,0
726,36588,0
236,36584,0
0,36575,0
0,36604,0
10,36606,0
273,36570,0
698,36565,0
1256,36566,0
1868,36547,0
2538,36586,0
3146,36590,0
3648,36557,0
3986,36549,0
4095,36554,0
4080,36536,0
3808,36565,0
3296,36558,0
2692,36535,0
2008,36525,0
1312,36538,0
681,36506,0
221,36527,0
0,36520,0
0,36532,0
41,36538,0
336,36507,0
794,36493,0
1344,36473,0
1988,36505,0
2608,36511,0
3196,36476,0
3680,36476,0
4004,36473,0
4088,36464,0
4024,36486,0
3756,36474,0
3268,36451,0
2664,36452,0
1984,36438,0
1302,36419,0
699,36458,0
232,36448,0
0,36418,0
0,36423,0
74,36422,0
402,36399,0
899,36422,0
1492,36419,0
2118,36403,0
2760,36397,0
3344,36387,0
3821,36376,0
4095,36393,0
4095,36386,0
4028,36370,0
3716,36350,0
3220,36383,0
2592,36359,0
1908,36348,0
1224,36347,0
648,36325,0
198,36341,0
0,36362,0
0,36352,0
101,36327,0
441,36329,0
912,36330,0
1498,36297,0
2116,36335,0
2752,36337,0
3320,36308,0
3768,36304,0
4032,36310,0
4095,36297,0
4064,36290,0
3720,36316,0
3192,36302,0
2528,36291,0
1816,36287,0
1118,36292,0
540,36264,0
110,36298,0
0,36304,0
0,36282,0
481,36268,0
976,36290,0
1556,36273,0
2204,36288,0
2832,36270,0
3384,36265,0
3888,36252,0
4072,36254,0
4080,36280,0
3960,36296,0
3608,36256,0
3080,36256,0
2416,36260,0
1720,36235,0
1006,36283,0
490,36287,0
86,36255,0
0,36257,0
0,36260,0
134,36242,0
500,36265,0
1024,36278,0
1634,36275,0
2288,36251,0
2944,36265,0
3496,36259,0
3920,36246,0
4095,36274,0
4095,36290,0
3972,36264,0
3580,36250,0
3060,36253,0
2344,36268,0
1672,36280,0
1000,36279,0
452,36251,0
79,36261,0
0,36276,0
0,36285,0
197,36289,0
600,36262,0
1114,36260,0
1721,36270,0
2352,36269,0
2968,36292,0
3504,36297,0
3900,36274,0
4095,36282,0
4064,36280,0
3960,36270,0
3496,36297,0
2952,36303,0
2304,36285,0
1581,36287,0
908,36291,0
364,36274,0
0,36289,0
0,36309,0
0,36305,0
214,36290,0
606,36292,0
1166,36295,0
1770,36276,0
2442,36316,0
3020,36300,0
3524,36280,0
3920,36296,0
4084,36308,0
4056,36312,0
3856,36305,0
3424,36284,0
2848,36330,0
2168,36327,0
1480,36319,0
828,36304,0
327,36305,0
0,36290,0
0,36296,0
0,36325,0
251,36328,0
672,36315,0
1220,36302,0
1824,36311,0
2466,36289,0
3136,36331,0
3652,36341,0
4032,36315,0
4095,36311,0
4095,36312,0
3904,36306,0
3456,36336,0
2810,36340,0
2128,36321,0
1428,36320,0
784,36321,0
268,36321,0
0,36334,0
0,36355,0
10,36329,0
290,36353,0
720,36327,0
1230,36334,0
1882,36333,0
2512,36322,0
3140,36358,0
3616,36361,0
3952,36338,0
4072,36350,0
4024,36345,0
3780,36345,0
3296,36357,0
2688,36376,0
2000,36378,0
1302,36351,0
672,36364,0
198,36375,0
0,36352,0
0,36382,0
4,36389,0
302,36368,0
760,36362,0
1333,36369,0
1976,36368,0
2596,36384,0
3188,36392,0
3692,36404,0
4000,36377,0
4095,36378,0
4016,36398,0
3732,36370,0
3244,36377,0
2626,36394,0
1944,36382,0
1242,36365,0
642,36405,0
198,36418,0
0,36389,0
0,36387,0
58,36387,0
380,36385,0
840,36408,0
1406,36416,0
2024,36404,0
2664,36394,0
3236,36393,0
3696,36391,0
4000,36416,0
4072,36424,0
4056,36399,0
3716,36391,0
3205,36397,0
2560,36393,0
1832,36399,0
1129,36423,0
540,36406,0
108,36389,0
0,36396,0
0,36394,0
72,36405,0
392,36420,0
884,36403,0
1462,36405,0
2080,36406,0
2704,36403,0
3284,36382,0
3736,36393,0
4020,36389,0
4080,36413,0
3976,36419,0
3652,36414,0
3144,36400,0
2514,36401,0
1828,36393,0
1170,36407,0
597,36422,0
190,36422,0
0,36389,0
0,36386,0
151,36393,0
536,36394,0
1048,36406,0
1664,36406,0
2322,36391,0
2980,36394,0
3545,36389,0
3978,36376,0
4095,36417,0
4095,36412,0
4005,36388,0
3656,36382,0
3112,36384,0
2480,36383,0
1724,36381,0
1056,36406,0
485,36385,0
92,36375,0
0,36387,0
0,36390,0
122,36384,0
468,36379,0
964,36404,0
1552,36406,0
2170,36386,0
2792,36382,0
3336,36385,0
3748,36361,0
3992,36405,0
4028,36412,0
3856,36385,0
3480,36382,0
2928,36384,0
2262,36376,0
1584,36404,0
920,36406,0
366,36383,0
0,36386,0
0,36383,0
0,36373,0
153,36403,0
537,36408,0
1038,36380,0
1650,36382,0
2277,36380,0
2936,36368,0
3400,36420,0
3800,36413,0
4008,36387,0
4024,36401,0
3828,36410,0
3416,36394,0
2852,36387,0
2178,36394,0
1488,36391,0
843,36400,0
318,36399,0
0,36398,0
0,36384,0
0,36386,0
205,36385,0
600,36386,0
1108,36413,0
1724,36421,0
2352,36389,0
2960,36386,0
3552,36391,0
