1596,36825,0
1652,36874,0
1744,36829,0
1864,36825,0
1988,36859,0
2136,36847,0
2280,36850,0
2390,36846,0
2484,36869,0
2536,36847,0
2536,36849,0
2512,36864,0
2424,36838,0
2284,36866,0
2112,36837,0
2040,36853,0
1952,36865,0
1800,36847,0
1768,36862,0
1708,36839,0
1712,36846,0
1672,36877,0
1744,36843,0
1840,36854,0
1977,36823,0
2144,36845,0
2268,36876,0
2364,36843,0
2458,36863,0
2464,36830,0
2470,36850,0
2450,36874,0
2425,36848,0
2330,36861,0
2218,36877,0
2096,36872,0
1972,36859,0
1880,36863,0
1798,36846,0
1738,36888,0
1696,36850,0
1744,36854,0
1808,36869,0
1895,36855,0
2036,36874,0
2104,36865,0
2272,36854,0
2324,36888,0
2472,36851,0
2452,36883,0
2488,36860,0
2440,36860,0
2384,36891,0
2208,36870,0
2092,36894,0
1960,36854,0
1832,36861,0
1760,36895,0
1670,36871,0
1612,36889,0
1598,36871,0
1557,36862,0
1641,36894,0
1765,36862,0
1972,36859,0
2128,36896,0
2268,36866,0
2378,36859,0
2472,36895,0
2534,36902,0
2552,36873,0
2520,36895,0
2436,36877,0
2344,36887,0
2192,36916,0
2036,36889,0
1908,36908,0
1736,36877,0
1685,36885,0
1576,36919,0
1600,36893,0
1546,36912,0
1664,36876,0
1732,36884,0
1848,36912,0
1909,36888,0
2048,36923,0
2170,36898,0
2249,36897,0
2340,36912,0
2381,36898,0
2313,36935,0
2245,36898,0
2072,36911,0
1956,36910,0
1808,36904,0
1760,36899,0
1636,36911,0
1556,36915,0
1492,36908,0
1488,36920,0
1432,36912,0
1620,36916,0
1768,36952,0
1952,36919,0
2166,36910,0
2402,36935,0
2645,36916,0
2842,36947,0
3032,36928,0
3200,36919,0
3360,36935,0
3452,36925,0
3524,36946,0
3608,36923,0
3640,36945,0
3672,36918,0
3672,36930,0
3686,36965,0
3674,36934,0
3680,36932,0
3672,36917,0
3672,36927,0
3672,36971,0
3682,36938,0
3712,36940,0
3746,36940,0
3732,36941,0
3704,36957,0
3654,36918,0
3580,36966,0
3466,36961,0
3324,36950,0
3168,36951,0
2968,36974,0
2772,36952,0
2600,36949,0
2409,36978,0
2256,36957,0
2127,36988,0
2036,36953,0
1924,36961,0
1944,36984,0
1928,36967,0
2000,36995,0
2008,36961,0
2096,36967,0
2128,36990,0
2156,36960,0
2080,36996,0
2048,36965,0
1973,36972,0
1865,36996,0
1776,36974,0
1621,37008,0
1454,36978,0
1312,36979,0
1138,37007,0
1046,36983,0
1012,37007,0
1136,36995,0
1195,36990,0
1300,36992,0
1430,37008,0
1577,36998,0
1732,36990,0
1873,37007,0
2002,36985,0
2084,37023,0
2136,36990,0
2144,36994,0
2088,37014,0
2012,37000,0
1840,37030,0
1756,36989,0
1545,36995,0
1460,37018,0
1282,36991,0
1248,37034,0
1188,37005,0
1200,36999,0
1116,37008,0
1208,37002,0
1332,37023,0
1486,37011,0
1673,37005,0
1829,37022,0
1955,37009,0
2045,37034,0
2052,37011,0
2080,37010,0
2052,37030,0
2068,37030,0
1964,37016,0
1840,37005,0
1710,37008,0
1588,37005,0
1484,37021,0
1392,37045,0
1338,37018,0
1328,37041,0
1353,37006,0
1420,37029,0
1528,37053,0
1656,37030,0
1738,37035,0
1920,37006,0
2004,37031,0
2140,37061,0
2144,37036,0
2200,37049,0
2168,37015,0
2090,37038,0
1920,37062,0
1784,37038,0
1641,37050,0
1500,37030,0
1446,37042,0
1353,37076,0
1296,37039,0
1274,37043,0
1236,37042,0
1346,37044,0
1728,37082,0
1885,37048,0
2047,37053,0
2208,37053,0
2320,37052,0
2394,37052,0
2416,37071,0
2392,37043,0
2320,37058,0
2216,37078,0
2081,37056,0
1935,37069,0
1804,37054,0
1636,37052,0
1588,37083,0
1480,37065,0
1512,37079,0
1464,37061,0
1588,37071,0
1688,37091,0
1738,37067,0
1877,37101,0
2032,37067,0
2158,37077,0
2268,37102,0
2346,37070,0
2360,37086,0
2320,37066,0
2236,37077,0
2088,37106,0
1958,37078,0
1826,37093,0
1780,37127,0
1672,37085,0
1606,37085,0
1568,37089,0
1570,37093,0
1594,37098,0
1674,37128,0
1770,37087,0
1896,37093,0
2034,37087,0
2180,37096,0
2284,37120,0
2384,37090,0
2400,37099,0
2450,37110,0
2392,37093,0
2336,37131,0
2188,37096,0
2090,37098,0
1940,37127,0
1825,37099,0
1616,37129,0
1522,37101,0
1449,37107,0
1430,37134,0
1512,37110,0
1555,37121,0
1661,37092,0
1776,37104,0
1858,37136,0
2016,37112,0
2164,37114,0
2340,37127,0
2412,37111,0
2440,37111,0
2424,37125,0
2364,37138,0
2272,37110,0
2152,37110,0
2016,37134,0
1876,37117,0
1753,37146,0
1656,37122,0
1579,37114,0
1580,37121,0
1525,37121,0
1657,37148,0
1704,37109,0
1880,37119,0
1980,37115,0
2165,37111,0
2281,37141,0
2386,37109,0
2418,37107,0
2441,37109,0
2426,37111,0
2346,37126,0
2282,37091,0
2160,37092,0
2018,37100,0
1876,37082,0
1692,37106,0
1603,37081,0
1547,37068,0
1642,37032,0
1680,37042,0
1762,37044,0
1860,37074,0
1980,37067,0
2122,37032,0
2268,37048,0
2378,37065,0
2472,37031,0
2526,37030,0
2544,36990,0
2501,36997,0
2440,37034,0
2304,36999,0
2224,36984,0
2036,36968,0
1944,36965,0
1780,36991,0
1744,36963,0
1660,36966,0
1656,36934,0
1592,36934,0
1656,36957,0
1753,36926,0
1873,36923,0
2058,36894,0
2189,36905,0
2296,36921,0
2377,36903,0
2404,36889,0
2424,36875,0
2396,36878,0
2400,36878,0
2320,36868,0
2204,36869,0
2084,36863,0
1952,36852,0
1844,36852,0
1744,36857,0
1689,36869,0
1672,36849,0
1684,36845,0
1808,36829,0
1815,36844,0
1936,36852,0
2016,36828,0
2208,36829,0
2276,36809,0
2412,36811,0
2432,36845,0
2484,36813,0
2432,36824,0
2384,36805,0
2224,36806,0
2088,36827,0
1965,36806,0
1809,36802,0
1732,36788,0
1624,36788,0
1560,36824,0
1518,36791,0
1472,36789,0
1540,36795,0
1658,36782,0
1876,36806,0
2004,36774,0
2160,36793,0
2288,36799,0
2384,36804,0
2448,36817,0
2456,36788,0
2432,36782,0
2356,36756,0
2250,36775,0
2136,36805,0
1944,36781,0
1826,36771,0
1649,36750,0
1610,36768,0
1492,36797,0
1520,36777,0
1488,36777,0
1578,36749,0
1688,36775,0
1812,36801,0
1876,36765,0
2024,36770,0
2160,36753,0
2276,36768,0
2354,36799,0
2376,36757,0
2328,36773,0
2240,36750,0
2088,36762,0
1958,36796,0
1812,36773,0
1768,36797,0
1642,36791,0
1584,36763,0
1500,36785,0
1488,36791,0
1517,36802,0
1576,36765,0
1673,36766,0
1790,36793,0
1936,36772,0
2084,36793,0
2204,36766,0
2314,36768,0
2344,36791,0
2404,36775,0
2348,36801,0
2304,36767,0
2169,36786,0
2088,36805,0
1944,36783,0
1816,36808,0
1612,36772,0
1512,36774,0
1443,36803,0
1421,36785,0
1506,36805,0
1562,36765,0
1652,36788,0
1760,36821,0
1856,36788,0
2006,36796,0
2149,36775,0
2312,36795,0
2536,36804,0
2436,36790,0
2422,36766,0
2356,36783,0
2260,36791,0
2132,36791,0
1981,36817,0
1840,36790,0
1710,36788,0
1616,36796,0
1522,36800,0
1496,36825,0
1442,36791,0
1577,36788,0
1616,36818,0
1786,36796,0
1882,36843,0
2072,36806,0
2212,36793,0
2308,36802,0
2336,36801,0
2376,36830,0
2352,36804,0
2296,36808,0
2224,36786,0
2101,36805,0
1948,36828,0
1802,36812,0
1632,36800,0
1536,36797,0
1472,36811,0
1549,36780,0
1576,36796,0
1652,36810,0
1752,36770,0
1872,36804,0
2024,36831,0
2156,36803,0
2274,36811,0
2362,36823,0
2431,36802,0
2444,36840,0
2413,36821,0
2352,36820,0
2202,36810,0
2120,36823,0
1944,36849,0
1832,36819,0
1672,36817,0
1632,36829,0
1548,36813,0
1530,36854,0
1457,36814,0
1521,36820,0
1632,36834,0
1768,36831,0
1968,36856,0
2102,36823,0
2226,36832,0
2324,36851,0
2360,36834,0
2386,36848,0
2378,36840,0
2296,36835,0
2176,36819,0
2058,36828,0
1916,36822,0
1816,36835,0
1712,36835,0
1640,36821,0
1620,36832,0
1621,36855,0
1682,36832,0
1767,36839,0
1884,36819,0
1973,36822,0
2154,36862,0
2260,36835,0
2384,36841,0
2416,36843,0
2472,36840,0
2452,36874,0
2328,36841,0
2217,36833,0
2092,36847,0
1944,36845,0
1798,36877,0
1696,36833,0
1580,36832,0
1482,36854,0
1440,36836,0
1368,36862,0
1428,36833,0
1537,36839,0
1772,36840,0
1908,36853,0
2072,36857,0
2224,36850,0
2344,36845,0
2436,36844,0
2480,36821,0
2472,36835,0
2428,36858,0
2328,36835,0
2216,36838,0
2072,36821,0
1944,36839,0
1760,36863,0
1718,36839,0
1592,36833,0
1609,36821,0
1560,36839,0
1672,36864,0
1748,36837,0
1872,36832,0
1936,36813,0
2082,36834,0
2224,36869,0
2322,36839,0
2432,36831,0
2453,36839,0
2432,36832,0
2368,36862,0
2224,36827,0
2104,36837,0
1977,36826,0
1920,36818,0
1808,36833,0
1720,36814,0
1653,36819,0
1628,36816,0
1638,36815,0
1696,36827,0
1788,36859,0
1912,36829,0
2037,36829,0
2180,36830,0
2304,36826,0
2409,36853,0
2432,36811,0
2490,36822,0
2450,36833,0
2396,36817,0
2272,36848,0
2180,36819,0
2040,36822,0
1908,36831,0
1688,36820,0
1585,36850,0
1520,36822,0
1478,36817,0
1544,36831,0
1601,36821,0
1688,36853,0
1816,36825,0
1882,36817,0
2048,36823,0
2200,36824,0
2384,36844,0
2465,36809,0
2520,36821,0
2528,36826,0
2488,36808,0
2384,36824,0
2272,36804,0
2146,36821,0
2004,36845,0
1884,36821,0
1776,36812,0
1679,36824,0
1664,36816,0
1590,36855,0
1684,36830,0
1721,36825,0
1864,36854,0
1964,36827,0
2152,36845,0
2264,36825,0
2360,36832,0
2388,36854,0
2420,36824,0
2401,36859,0
2352,36821,0
2280,36833,0
2145,36839,0
2000,36835,0
1852,36860,0
1654,36830,0
1554,36828,0
1480,36850,0
1568,36851,0
1584,36849,0
1642,36856,0
1740,36828,0
1876,36861,0
2016,36829,0
2156,36854,0
2292,36829,0
2402,36835,0
2482,36872,0
2504,36836,0
2490,36850,0
2440,36827,0
2312,36846,0
2224,36868,0
2048,36849,0
1944,36862,0
1776,36825,0
1716,36854,0
1628,36873,0
1604,36850,0
1532,36858,0
1586,36835,0
1688,36852,0
1808,36879,0
1993,36854,0
2128,36866,0
2252,36840,0
2348,36853,0
2384,36887,0
2424,36863,0
2432,36868,0
2440,36883,0
2332,36883,0
2224,36869,0
2092,36887,0
1952,36881,0
1834,36893,0
1720,36874,0
1641,36893,0
1584,36864,0
1578,36862,0
1605,36895,0
1652,36874,0
1776,36893,0
1842,36861,0
2032,36878,0
2116,36900,0
2256,36881,0
2304,36907,0
2364,36879,0
2348,36890,0
2300,36908,0
2128,36893,0
1985,36911,0
1830,36880,0
1672,36893,0
1578,36913,0
1451,36888,0
1360,36915,0
1337,36887,0
1298,36889,0
1413,36916,0
1596,36904,0
1912,36895,0
2176,36900,0
2434,36894,0
2722,36897,0
2986,36922,0
3236,36899,0
3448,36894,0
3640,36925,0
3776,36902,0
3868,36935,0
3924,36906,0
3927,36909,0
3896,36927,0
3872,36905,0
3792,36947,0
3720,36909,0
3648,36907,0
3584,36936,0
3528,36917,0
3508,36940,0
3496,36915,0
3496,36909,0
3509,36931,0
3520,36918,0
3489,36954,0
3464,36927,0
3404,36927,0
3297,36928,0
3168,36924,0
2992,36965,0
2800,36930,0
2624,36928,0
2480,36958,0
2314,36951,0
2168,36936,0
2029,36944,0
1924,36932,0
1850,36960,0
1832,36932,0
1836,36941,0
1876,36959,0
1929,36938,0
2008,36974,0
2058,36933,0
2112,36939,0
2096,36974,0
2136,36948,0
2065,36967,0
2020,36939,0
1864,36943,0
1784,36982,0
1632,36948,0
1524,36964,0
1296,36941,0
1202,36946,0
1138,36981,0
1104,36958,0
1192,36967,0
1250,36948,0
1336,36958,0
1464,36971,0
1544,36963,0
1704,36974,0
2060,36993,0
2153,36949,0
2200,36952,0
2197,36972,0
2156,36967,0
2060,36997,0
1944,36963,0
1800,36968,0
1648,36961,0
1526,36964,0
1394,37001,0
1291,36965,0
1284,36999,0
1210,36973,0
1321,36971,0
1356,36990,0
1526,36974,0
1632,37011,0
1824,36976,0
1964,36974,0
2016,36975,0
2096,36970,0
2136,37008,0
2144,36977,0
2080,36987,0
2025,36997,0
1896,36979,0
1750,37011,0
1576,36984,0
1392,36986,0
1292,36998,0
1224,36994,0
1301,36993,0
1328,37021,0
1386,37002,0
1488,36994,0
1628,36984,0
1780,37000,0
1920,37013,0
2073,36988,0
2200,36994,0
2272,37028,0
2320,37011,0
2317,37028,0
2256,36992,0
2138,36998,0
2052,37034,0
1866,37005,0
1772,37033,0
1584,36997,0
1524,37003,0
1424,37039,0
1397,37012,0
1292,37031,0
1326,37008,0
1410,37011,0
1524,37034,0
1708,37012,0
1837,37036,0
1952,37008,0
2044,37015,0
2072,37045,0
2121,37021,0
2128,37032,0
2152,37041,0
2073,37023,0
1972,37012,0
1854,37041,0
1732,37038,0
1606,37023,0
1514,37056,0
1446,37028,0
1400,37050,0
1420,37014,0
1468,37038,0
1545,37064,0
1684,37035,0
1776,37050,0
1968,37024,0
2068,37037,0
2224,37064,0
2280,37040,0
2352,37050,0
2348,37027,0
2303,37056,0
2160,37073,0
2037,37047,0
1904,37053,0
1746,37039,0
1664,37050,0
1549,37080,0
1462,37056,0
1412,37063,0
1344,37037,0
1408,37049,0
1500,37083,0
1728,37066,0
1884,37045,0
2042,37053,0
2208,37062,0
2320,37078,0
2416,37041,0
2464,37059,0
2468,37090,0
2416,37064,0
2328,37070,0
2216,37055,0
2056,37061,0
1936,37100,0
1750,37070,0
1690,37085,0
1568,37048,0
1560,37062,0
1504,37095,0
1592,37081,0
1664,37079,0
1690,37067,0
1832,37085,0
1984,37108,0
2128,37075,0
2252,37083,0
2360,37062,0
2402,37085,0
2388,37114,0
2344,37092,0
2216,37085,0
2112,37063,0
1980,37083,0
1924,37075,0
1818,37083,0
1729,37082,0
1680,37085,0
1617,37087,0
1648,37083,0
1684,37083,0
1765,37080,0
1872,37110,0
2008,37083,0
2152,37074,0
2271,37071,0
2384,37069,0
2432,37099,0
2496,37066,0
2472,37075,0
2452,37037,0
2336,37059,0
2248,37074,0
2104,37055,0
1980,37041,0
1781,37020,0
1672,37023,0
1589,37060,0
1546,37023,0
1600,37026,0
1622,36994,0
1709,37011,0
1794,37031,0
1880,37002,0
2040,37003,0
2196,36970,0
2384,36974,0
2484,36971,0
2529,36971,0
2552,36950,0
2500,36954,0
2434,36943,0
2320,36964,0
2180,36939,0
2044,36930,0
1904,36918,0
1781,36914,0
1678,36933,0
1632,36894,0
1568,36916,0
1656,36876,0
1680,36897,0
1828,36902,0
1904,36878,0
2080,36889,0
2208,36867,0
2320,36869,0
2353,36879,0
2392,36842,0
2392,36867,0
2342,36827,0
2288,36838,0
2152,36863,0
2004,36844,0
1850,36847,0
1657,36820,0
1544,36819,0
1498,36841,0
1528,36834,0
1529,36805,0
1580,36818,0
1664,36795,0
1770,36811,0
1900,36824,0
2040,36797,0
2176,36792,0
2292,36812,0
2385,36793,0
2413,36815,0
2416,36786,0
2372,36776,0
2229,36779,0
2164,36776,0
1986,36808,0
1888,36782,0
1700,36770,0
1634,36785,0
1544,36770,0
1502,36791,0
1404,36774,0
1444,36769,0
1536,36798,0
1648,36768,0
1840,36793,0
1966,36767,0
2104,36756,0
2240,36762,0
2240,36752,0
2306,36796,0
2312,36768,0
2320,36764,0
2240,36773,0
2128,36754,0
1988,36768,0
1848,36762,0
1724,36760,0
1592,36784,0
1500,36754,0
1434,36784,0
1425,36756,0
1440,36753,0
1523,36788,0
1636,36763,0
1710,36788,0
1904,36771,0
2008,36758,0
2168,36784,0
2224,36765,0
2322,36788,0
2320,36751,0
2292,36766,0
2144,36791,0
2024,36757,0
1877,36782,0
1740,36750,0
1642,36764,0
1520,36794,0
1406,36763,0
1336,36783,0
1249,36757,0
1280,36769,0
1576,36806,0
1720,36772,0
1880,36773,0
2020,36781,0
2132,36771,0
2224,36777,0
2272,36777,0
2272,36806,0
2242,36772,0
2156,36808,0
2042,36779,0
1892,36769,0
1768,36793,0
1588,36782,0
1524,36807,0
1397,36787,0
1400,36785,0
1314,36797,0
1442,36789,0
1506,36812,0
1530,36790,0
1676,36790,0
1833,36780,0
1988,36792,0
2120,36824,0
2240,36797,0
2283,36806,0
2286,36782,0
2244,36796,0
2097,36834,0
1988,36791,0
1860,36798,0
1790,36806,0
1669,36818,0
1580,36810,0
1510,36810,0
1464,36814,0
1464,36829,0
1512,36804,0
1604,36804,0
1716,36785,0
1864,36802,0
2005,36834,0
2144,36809,0
2276,36817,0
2336,36777,0
2432,36803,0
2412,36835,0
2409,36805,0
2288,36830,0
2241,36800,0
2100,36810,0
1984,36839,0
1760,36817,0
1654,36841,0
1561,36805,0
1514,36809,0
1546,36835,0
1580,36822,0
1651,36841,0
1748,36809,0
1824,36811,0
1980,36840,0
2144,36818,0
2324,36813,0
2440,36820,0
2508,36825,0
2528,36828,0
2500,36843,0
2428,36829,0
2328,36820,0
2208,36825,0
2074,36858,0
1945,36838,0
1853,36839,0
1742,36809,0
1684,36829,0
1609,36860,0
1692,36829,0
1696,36826,0
1844,36815,0
1918,36824,0
2088,36856,0
2208,36828,0
2320,36840,0
2354,36796,0
2404,36835,0
2432,36863,0
2380,36836,0
2324,36840,0
2220,36820,0
2065,36837,0
1921,36869,0
1732,36840,0
1618,36847,0
1536,36818,0
1590,36833,0
1594,36842,0
1624,36833,0
1716,36842,0
1828,36834,0
1948,36832,0
2100,36832,0
2236,36868,0
2344,36834,0
2432,36837,0
2484,36823,0
2485,36830,0
2452,36870,0
2336,36832,0
2250,36843,0
2080,36821,0
1977,36843,0
1792,36872,0
1728,36847,0
1628,36847,0
1584,36820,0
1492,36832,0
1508,36865,0
1584,36830,0
1708,36840,0
1884,36819,0
2024,36841,0
2166,36867,0
2293,36834,0
2336,36840,0
2400,36817,0
2436,36844,0
2458,36844,0
2400,36849,0
2312,36847,0
2188,36861,0
2056,36823,0
1932,36833,0
1824,36854,0
1736,36841,0
1684,36837,0
1656,36814,0
1672,36820,0
1736,36851,0
1848,36827,0
1904,36838,0
2088,36812,0
2180,36824,0
2322,36854,0
2400,36831,0
2450,36849,0
2444,36813,0
2408,36826,0
2274,36852,0
2152,36819,0
2002,36852,0
1840,36810,0
1744,36825,0
1632,36849,0
1510,36809,0
1450,36848,0
1364,36806,0
1404,36815,0
1500,36840,0
1717,36827,0
1868,36825,0
2032,36829,0
2192,36827,0
2336,36829,0
2432,36801,0
2496,36800,0
2518,36832,0
2489,36812,0
2410,36828,0
2288,36813,0
2145,36815,0
2016,36841,0
1840,36807,0
1776,36833,0
1642,36794,0
1641,36808,0
1578,36841,0
1648,36813,0
1720,36834,0
1840,36817,0
1898,36810,0
2074,36843,0
2201,36809,0
2360,36829,0
2480,36795,0
2558,36814,0
2568,36839,0
2544,36811,0
2432,36825,0
2348,36796,0
2240,36801,0
2180,36801,0
2068,36846,0
1964,36818,0
1876,36816,0
1826,36792,0
1812,36808,0
1840,36820,0
1888,36802,0
1988,36847,0
2114,36811,0
2236,36809,0
2359,36820,0
2468,36814,0
2528,36839,0
2616,36826,0
2580,36806,0
2576,36823,0
2476,36808,0
2392,36848,0
2257,36817,0
2136,36824,0
1928,36830,0
1808,36820,0
1716,36840,0
1656,36816,0
1688,36816,0
1700,36837,0
1749,36817,0
1841,36849,0
1912,36818,0
2066,36818,0
2228,36824,0
2408,36843,0
2514,36815,0
2596,36848,0
2620,36854,0
2600,36860,0
2538,36826,0
2436,36834,0
2314,36828,0
2168,36822,0
2041,36860,0
1900,36823,0
1800,36835,0
1760,36823,0
1668,36841,0
1736,36860,0
1740,36836,0
1872,36841,0
1940,36814,0
2116,36832,0
2248,36873,0
2360,36841,0
2404,36843,0
2452,36828,0
2464,36839,0
2440,36873,0
2392,36835,0
2272,36842,0
2122,36839,0
2022,36842,0
1776,36868,0
1642,36846,0
1548,36853,0
1580,36873,0
1558,36846,0
1584,36823,0
1645,36858,0
1728,36849,0
1846,36856,0
1978,36865,0
2106,36856,0
2224,36891,0
2302,36857,0
2364,36858,0
2347,36868,0
2328,36861,0
2208,36897,0
2120,36864,0
1936,36863,0
1804,36861,0
1608,36868,0
1512,36890,0
1401,36867,0
1345,36865,0
1240,36864,0
1288,36874,0
1408,36899,0
1592,36872,0
1844,36876,0
2092,36855,0
2332,36878,0
2588,36905,0
2788,36878,0
3028,36878,0
3412,36916,0
3540,36885,0
3640,36905,0
3696,36889,0
3720,36870,0
3708,36915,0
3680,36883,0
3812,36881,0
3592,36908,0
3556,36891,0
3512,36926,0
3505,36898,0
3492,36897,0
3496,36911,0
3512,36896,0
3536,36924,0
3544,36897,0
3504,36885,0
3480,36905,0
3408,36899,0
3296,36919,0
3153,36901,0
2987,36881,0
2796,36922,0
2596,36896,0
2424,36928,0
2242,36906,0
2070,36904,0
1925,36931,0
1762,36892,0
1740,36937,0
1720,36905,0
1832,36916,0
1872,36902,0
1968,36916,0
2044,36913,0
2120,36902,0
2166,36933,0
2180,36913,0
2160,36940,0
2096,36907,0
2006,36906,0
1888,36934,0
1708,36905,0
1584,36933,0
1381,36906,0
1320,36906,0
1164,36929,0
1168,36910,0
1082,36937,0
1184,36909,0
1242,36913,0
1357,36935,0
1397,36918,0
1558,36943,0
1722,36919,0
1870,36915,0
2009,36934,0
2070,36922,0
2082,36943,0
2049,36915,0
1924,36909,0
1824,36940,0
1690,36919,0
1652,36920,0
1532,36941,0
1428,36885,0
1344,36930,0
1296,36930,0
1281,36919,0
1322,36923,0
1398,36921,0
1510,36964,0
1644,36919,0
1794,36935,0
1929,36902,0
2080,36922,0
2134,36952,0
2248,36928,0
2248,36934,0
2256,36912,0
2144,36928,0
2056,36952,0
1914,36928,0
1790,36944,0
1562,36919,0
1428,36929,0
1326,36958,0
1266,36928,0
1291,36941,0
1310,36912,0
1365,36925,0
1456,36961,0
1524,36933,0
1688,36953,0
1864,36932,0
2084,36936,0
2198,36962,0
2301,36938,0
2332,36938,0
2320,36948,0
2260,36932,0
2170,36954,0
2044,36944,0
1904,36950,0
1758,36914,0
1648,36935,0
1533,36959,0
1474,36947,0
1376,36939,0
1460,36935,0
1472,36942,0
1600,36973,0
1676,36950,0
1876,36953,0
2002,36931,0
2152,36936,0
2184,36976,0
2252,36942,0
2288,36953,0
2264,36933,0
2220,36942,0
2106,36979,0
1976,36954,0
1824,36981,0
1624,36944,0
1512,36950,0
1442,36984,0
1496,36975,0
1476,36957,0
1517,36966,0
1594,36956,0
1712,36958,0
1842,36962,0
1988,36940,0
2140,36955,0
2272,36996,0
2376,36957,0
2448,36981,0
2440,36958,0
2424,36962,0
2328,36994,0
2256,36960,0
2092,36988,0
1981,36953,0
1784,36961,0
1720,36996,0
1600,36963,0
1522,36989,0
1386,36961,0
1408,36971,0
1469,36989,0
1552,36969,0
1716,36988,0
1854,36961,0
1974,36967,0
2088,36990,0
2132,36970,0
2196,36998,0
2224,36962,0
2272,36981,0
2208,36989,0
2108,36944,0
1992,36955,0
1852,36995,0
1720,37003,0
1596,36972,0
1494,36992,0
1424,36965,0
1414,36966,0
1398,37000,0
1419,36985,0
1556,36987,0
1608,36972,0
1808,36977,0
1940,36996,0
2065,36981,0
2144,37009,0
2249,36978,0
2280,36974,0
2280,36987,0
2152,36966,0
2064,37008,0
1940,36969,0
1788,36974,0
1702,36988,0
1594,36971,0
1479,37001,0
1397,36972,0
1314,36970,0
1344,36959,0
1434,36964,0
1638,36958,0
1780,36960,0
1930,36931,0
2096,36952,0
2252,36978,0
2352,36944,0
2424,36969,0
2460,36941,0
2440,36935,0
2386,36958,0
2288,36929,0
2189,36953,0
2016,36925,0
1850,36921,0
1780,36910,0
1648,36900,0
1612,36930,0
1536,36900,0
1600,36894,0
1633,36908,0
1760,36894,0
1792,36909,0
1946,36879,0
2112,36877,0
2219,36872,0
2356,36870,0
2434,36891,0
2448,36853,0
2442,36848,0
2336,36860,0
2248,36855,0
2136,36872,0
2082,36850,0
1972,36838,0
1854,36831,0
1760,36813,0
1696,36815,0
1668,36846,0
1676,36812,0
1726,36811,0
1809,36791,0
1914,36800,0
2033,36824,0
2152,36791,0
2272,36796,0
2312,36768,0
2392,36783,0
2416,36801,0
2384,36778,0
2280,36785,0
2200,36760,0
2066,36767,0
1924,36790,0
1714,36762,0
1581,36765,0
1472,36749,0
1404,36757,0
1434,36785,0
1443,36736,0
1493,36768,0
1593,36733,0
1650,36737,0
1811,36763,0
2184,36721,0
2292,36764,0
2373,36750,0
2430,36747,0
2408,36736,0
2344,36751,0
2234,36732,0
2109,36730,0
1960,36720,0
1808,36729,0
1664,36747,0
1522,36734,0
1460,36721,0
1344,36705,0
1400,36719,0
1385,36744,0
1528,36719,0
1596,36720,0
1784,36702,0
1928,36718,0
1988,36751,0
2130,36720,0
2224,36731,0
2277,36705,0
2256,36716,0
2240,36751,0
2132,36727,0
1998,36723,0
1858,36697,0
1664,36719,0
1520,36744,0
1421,36713,0
1458,36721,0
1432,36730,0
1452,36712,0
1526,36730,0
1610,36727,0
1750,36743,0
1892,36711,0
2044,36722,0
2176,36739,0
2280,36722,0
2356,36739,0
2383,36704,0
2370,36726,0
2272,36749,0
2196,36730,0
2032,36745,0
1928,36719,0
1732,36727,0
1644,36756,0
1524,36732,0
1466,36732,0
1323,36712,0
1330,36730,0
1386,36754,0
1473,36737,0
1668,36735,0
1778,36717,0
1917,36724,0
2042,36754,0
2104,36742,0
2204,36739,0
2248,36710,0
2296,36732,0
2264,36716,0
2180,36709,0
2064,36719,0
1952,36716,0
1808,36743,0
1696,36757,0
1590,36730,0
1524,36743,0
1476,36774,0
1476,36741,0
1525,36749,0
1636,36730,0
1706,36744,0
1900,36773,0
2008,36742,0
2184,36758,0
2272,36740,0
2394,36744,0
2436,36776,0
2418,36760,0
2322,36749,0
2242,36731,0
2112,36755,0
1970,36778,0
1880,36745,0
1738,36752,0
1619,36749,0
1544,36754,0
1434,36798,0
1456,36761,0
1512,36763,0
1702,36762,0
1833,36768,0
1986,36781,0
2272,36760,0
2284,36775,0
2396,36760,0
2492,36757,0
2544,36793,0
2532,36768,0
2484,36771,0
2420,36773,0
2271,36761,0
2140,36785,0
1972,36769,0
1876,36770,0
1720,36783,0
1680,36778,0
1588,36810,0
1640,36771,0
1664,36774,0
1756,36786,0
1782,36768,0
1904,36810,0
2056,36774,0
2193,36779,0
2332,36797,0
2400,36770,0
2428,36816,0
2411,36782,0
2328,36782,0
2240,36794,0
2134,36783,0
2090,36773,0
1973,36789,0
1864,36787,0
1780,36785,0
1712,36785,0
1680,36795,0
1692,36784,0
1744,36793,0
1826,36819,0
1932,36797,0
2065,36788,0
2181,36774,0
2312,36793,0
2372,36824,0
2468,36798,0
2464,36797,0
2480,36781,0
2392,36794,0
2308,36826,0
2176,36800,0
2058,36796,0
1842,36781,0
1712,36796,0
1628,36834,0
1546,36802,0
1562,36801,0
1564,36775,0
1601,36797,0
1691,36828,0
1760,36805,0
1904,36806,0
2072,36783,0
2288,36804,0
2412,36806,0
2498,36798,0
2552,36801,0
2552,36785,0
2516,36808,0
2428,36791,0
2314,36812,0
2236,36803,0
2047,36830,0
1916,36807,0
1791,36793,0
1720,36804,0
1600,36801,0
1668,36827,0
1632,36792,0
1753,36798,0
1796,36804,0
1976,36804,0
2088,36835,0
2226,36804,0
2280,36795,0
2362,36794,0
2410,36804,0
2417,36831,0
2408,36798,0
2310,36791,0
2195,36781,0
2074,36795,0
1880,36826,0
1764,36797,0
1676,36801,0
1712,36796,0
1684,36799,0
1700,36795,0
1757,36774,0
1852,36811,0
1957,36786,0
2080,36772,0
2210,36797,0
2328,36809,0
2420,36795,0
2484,36798,0
2487,36777,0
2488,36790,0
2384,36808,0
2328,36794,0
2152,36808,0
2047,36770,0
1880,36791,0
1780,36818,0
1672,36798,0
1608,36799,0
1474,36771,0
1480,36790,0
1531,36813,0
1622,36794,0
1789,36794,0
1922,36772,0
2072,36794,0
2230,36817,0
2272,36789,0
2368,36798,0
2448,36777,0
2476,36788,0
2464,36784,0
2394,36781,0
2300,36806,0
2170,36813,0
2047,36803,0
1920,36794,0
1816,36796,0
1752,36794,0
1704,36813,0
1697,36786,0
1734,36800,0
1825,36797,0
1888,36787,0
2068,36822,0
2170,36783,0
2324,36790,0
2404,36808,0
2528,36793,0
2546,36822,0
2559,36786,0
2464,36791,0
2368,36809,0
2246,36787,0
2118,36825,0
2012,36786,0
1873,36787,0
1748,36829,0
1664,36800,0
1552,36813,0
1560,36797,0
1800,36836,0
1914,36802,0
2046,36796,0
2184,36796,0
2312,36804,0
2420,36818,0
2496,36798,0
2532,36809,0
2528,36788,0
2472,36795,0
2384,36832,0
2260,36794,0
2132,36819,0
1952,36797,0
1872,36799,0
1720,36820,0
1688,36797,0
1664,36827,0
1640,36800,0
1672,36807,0
1680,36831,0
1796,36815,0
1928,36835,0
2086,36810,0
2234,36802,0
2376,36831,0
2448,36819,0
2476,36829,0
2465,36806,0
2384,36811,0
2296,36838,0
2196,36818,0
2136,36836,0
2012,36791,0
1898,36802,0
1797,36836,0
1721,36814,0
1688,36824,0
1696,36854,0
1733,36829,0
1808,36847,0
1916,36813,0
2034,36830,0
2168,36854,0
2312,36844,0
2384,36853,0
2488,36836,0
2504,36827,0
2524,36846,0
2436,36836,0
2361,36869,0
2240,36843,0
2104,36832,0
1888,36845,0
1740,36833,0
1618,36869,0
1536,36839,0
1533,36839,0
1528,36862,0
1549,36859,0
1622,36878,0
1680,36846,0
1818,36849,0
1978,36873,0
2188,36841,0
2300,36837,0
2376,36869,0
2410,36866,0
2408,36872,0
2360,36846,0
2260,36855,0
2162,36890,0
2064,36858,0
1981,36878,0
1910,36843,0
1887,36870,0
1900,36889,0
1917,36858,0
2084,36890,0
2241,36855,0
2500,36864,0
2752,36894,0
3080,36869,0
3400,36895,0
3708,36857,0
3968,36868,0
3984,36901,0
3992,36872,0
4000,36897,0
3976,36855,0
3968,36872,0
3960,36902,0
3924,36873,0
3864,36888,0
3744,36867,0
3624,36884,0
3488,36858,0
3346,36870,0
3244,36910,0
3172,36912,0
3120,36899,0
3084,36875,0
3084,36888,0
3100,36917,0
3300,36885,0
3116,36915,0
3108,36881,0
3063,36889,0
2972,36915,0
2824,36891,0
2700,36918,0
2472,36883,0
2302,36889,0
2056,36916,0
1908,36906,0
1724,36917,0
1592,36889,0
1388,36897,0
1320,36907,0
1309,36902,0
1341,36935,0
1469,36898,0
1560,36899,0
1669,36906,0
1784,36903,0
1816,36928,0
1898,36907,0
1962,36908,0
2046,36904,0
2016,36911,0
1946,36916,0
1844,36923,0
1724,36918,0
1588,36900,0
1465,36942,0
1361,36902,0
1284,36905,0
1234,36936,0
1234,36907,0
1248,36929,0
1360,36908,0
1414,36910,0
1608,36946,0
1708,36916,0
1890,36929,0
1972,36908,0
2100,36917,0
2148,36949,0
2164,36907,0
2056,36930,0
1972,36903,0
1852,36914,0
1710,36943,0
1610,36926,0
1473,36922,0
1356,36906,0
1264,36917,0
1156,36946,0
1154,36923,0
1218,36947,0
1420,36952,0
1554,36926,0
1717,36916,0
1880,36929,0
2034,36946,0
2162,36932,0
2260,36906,0
2306,36929,0
2304,36959,0
2262,36932,0
2168,36936,0
2059,36916,0
1916,36934,0
1724,36969,0
1632,36933,0
1456,36945,0
1424,36925,0
1304,36927,0
1364,36961,0
1376,36937,0
1480,36943,0
1506,36930,0
1658,36941,0
1803,36968,0
1957,36937,0
2124,36957,0
2202,36932,0
2248,36934,0
2242,36972,0
2052,36943,0
2076,36975,0
1964,36944,0
1928,36921,0
1778,36958,0
1656,36953,0
1556,36943,0
1472,36960,0
1425,36959,0
1421,36951,0
1436,36957,0
1532,36953,0
1628,36981,0
1760,36944,0
1885,36950,0
2032,36940,0
2104,36961,0
2240,36989,0
2248,36961,0
2296,36959,0
2228,36945,0
2165,36958,0
2046,36983,0
1924,36954,0
1713,36965,0
1594,36954,0
1488,36953,0
1394,37001,0
1436,36972,0
1428,36973,0
1461,36959,0
1536,36965,0
1608,36996,0
1744,36973,0
1913,36966,0
2144,36981,0
2276,36997,0
2372,36997,0
2440,36973,0
2452,36978,0
2418,36974,0
2324,36998,0
2216,36969,0
2084,37015,0
1936,36986,0
1789,36977,0
1660,36999,0
1584,36977,0
1460,37014,0
1510,36982,0
1484,36972,0
1600,37005,0
1644,36987,0
1820,37005,0
1948,36977,0
2096,36978,0
2184,37011,0
2246,36986,0
2292,37008,0
2312,36971,0
2296,36982,0
2205,37016,0
2076,36988,0
1942,37014,0
1736,36988,0
1612,36983,0
1506,37023,0
1535,36999,0
1494,36999,0
1500,37000,0
1544,37016,0
1636,36994,0
1738,37024,0
1880,36990,0
2018,36997,0
2168,36994,0
2288,36995,0
2368,37026,0
2408,36996,0
2424,36992,0
2352,37012,0
2304,36989,0
2168,37022,0
2060,36982,0
1880,37000,0
1794,37027,0
1670,36984,0
1600,37021,0
1456,36976,0
1440,36989,0
1477,37013,0
1556,36987,0
1700,36989,0
1837,36964,0
1977,36972,0
2104,37004,0
2192,36975,0
2288,36986,0
2440,36842,0
2418,36955,0
2354,36958,0
2262,36962,0
2144,36949,0
2016,36971,0
1892,36945,0
1776,36930,0
1696,36924,0
1649,36925,0
1620,36955,0
1643,36931,0
1712,36912,0
1752,36907,0
1942,36906,0
2024,36927,0
2200,36903,0
2280,36892,0
2402,36865,0
2440,36869,0
2408,36906,0
2374,36878,0
2289,36889,0
2180,36852,0
2052,36859,0
1946,36886,0
1792,36849,0
1676,36874,0
1581,36836,0
1456,36832,0
1434,36865,0
1488,36827,0
1666,36842,0
1776,36825,0
1932,36808,0
2076,36815,0
2220,36809,0
2360,36830,0
2442,36797,0
2506,36798,0
2512,36774,0
2472,36787,0
2392,36819,0
2269,36786,0
2152,36782,0
1970,36761,0
1872,36780,0
1706,36800,0
1668,36764,0
1552,36762,0
1592,36755,0
1608,36756,0
1684,36783,0
1700,36760,0
1826,36762,0
1978,36737,0
2152,36745,0
2272,36788,0
2352,36754,0
2405,36754,0
2400,36733,0
2312,36740,0
2244,36769,0
2148,36750,0
2080,36737,0
1960,36729,0
1832,36748,0
1738,36725,0
1636,36736,0
1598,36730,0
1585,36765,0
1621,36729,0
1692,36756,0
1788,36730,0
1908,36729,0
2027,36761,0
2172,36735,0
2265,36759,0
2393,36720,0
2404,36734,0
2456,36766,0
2388,36735,0
2332,36762,0
2220,36728,0
2092,36727,0
1882,36759,0
1746,36726,0
1628,36746,0
1548,36715,0
1552,36731,0
1515,36759,0
1533,36737,0
1597,36737,0
1632,36712,0
1768,36734,0
1929,36762,0
2172,36728,0
2280,36749,0
2380,36736,0
2448,36742,0
2464,36744,0
2432,36730,0
2368,36743,0
2268,36771,0
2128,36746,0
1992,36741,0
1852,36753,0
1728,36744,0
1640,36768,0
1512,36746,0
1544,36747,0
1512,36758,0
1624,36741,0
1682,36768,0
1864,36745,0
1980,36754,0
2120,36767,0
2180,36743,0
2276,36779,0
2336,36754,0
2354,36755,0
2352,36773,0
2274,36758,0
2144,36778,0
2018,36756,0
1816,36757,0
1683,36788,0
1576,36762,0
1589,36770,0
1526,36777,0
1548,36780,0
1580,36737,0
1648,36747,0
1760,36768,0
1892,36770,0
2024,36794,0
2172,36770,0
2282,36783,0
2368,36762,0
2404,36773,0
2424,36792,0
2354,36770,0
2312,36805,0
2160,36767,0
2076,36773,0
1884,36812,0
1784,36785,0
1654,36799,0
1564,36764,0
1412,36777,0
1401,36809,0
1413,36787,0
1498,36808,0
1650,36777,0
1777,36779,0
1904,36815,0
2032,36785,0
2112,36811,0
2210,36779,0
2288,36784,0
2372,36781,0
2368,36813,0
2288,36814,0
2200,36821,0
2084,36806,0
1948,36826,0
1812,36801,0
1696,36825,0
1608,36800,0
1541,36800,0
1524,36829,0
1507,36812,0
1601,36836,0
1644,36810,0
1828,36810,0
1922,36831,0
2104,36805,0
2192,36831,0
2308,36799,0
2376,36816,0
2400,36832,0
2328,36810,0
2248,36836,0
2148,36817,0
2008,36812,0
1920,36848,0
1776,36817,0
1648,36851,0
1580,36825,0
1440,36825,0
1424,36846,0
1456,36820,0
1642,36822,0
1752,36828,0
1884,36846,0
2038,36847,0
2184,36844,0
2316,36828,0
2412,36853,0
2481,36826,0
2500,36838,0
2464,36815,0
2388,36831,0
2289,36866,0
2160,36836,0
1976,36846,0
1888,36816,0
1721,36834,0
1672,36862,0
1548,36842,0
1586,36837,0
1576,36820,0
1653,36828,0
1666,36857,0
1794,36828,0
1932,36853,0
2076,36820,0
2240,36830,0
2328,36872,0
2386,36838,0
2414,36852,0
2320,36822,0
2256,36826,0
2168,36855,0
2116,36826,0
1997,36813,0
1872,36841,0
1769,36848,0
1664,36863,0
1620,36833,0
1596,36831,0
1632,36857,0
1676,36834,0
1776,36872,0
1884,36829,0
2016,36835,0
2156,36848,0
2242,36827,0
2376,36859,0
2400,36833,0
2456,36823,0
2392,36859,0
2360,36828,0
2236,36858,0
2121,36830,0
1908,36827,0
1776,36854,0
1645,36838,0
1552,36863,0
1546,36825,0
1514,36833,0
1516,36827,0
1584,36818,0
1616,36858,0
1756,36830,0
2136,36823,0
2272,36823,0
2384,36820,0
2448,36835,0
2480,36853,0
2464,36854,0
2396,36813,0
2296,36829,0
2160,36817,0
2020,36814,0
1874,36848,0
1728,36828,0
1649,36820,0
1528,36799,0
1554,36812,0
1520,36843,0
1640,36817,0
1696,36830,0
1856,36807,0
1988,36825,0
2072,36836,0
2198,36825,0
2304,36847,0
2368,36817,0
2396,36804,0
2404,36837,0
2332,36822,0
2221,36830,0
2100,36805,0
1912,36810,0
1780,36851,0
1664,36817,0
1672,36823,0
1636,36819,0
1608,36789,0
1640,36790,0
1705,36802,0
1802,36818,0
1921,36839,0
2064,36820,0
2180,36818,0
2312,36793,0
2408,36813,0
2462,36835,0
2472,36807,0
2408,36829,0
2362,36808,0
2240,36813,0
2128,36845,0
1948,36814,0
1856,36825,0
1716,36806,0
1644,36818,0
1496,36859,0
1458,36820,0
1478,36829,0
1541,36811,0
1680,36830,0
1814,36849,0
1929,36824,0
2074,36832,0
2168,36804,0
2268,36824,0
2344,36848,0
2429,36812,0
2428,36844,0
2384,36846,0
2290,36827,0
2174,36822,0
2042,36834,0
1920,36827,0
1804,36838,0
1708,36845,0
1642,36852,0
1616,36816,0
1616,36820,0
1682,36859,0
1716,36829,0
1888,36855,0
1988,36824,0
2172,36832,0
2244,36858,0
2384,36835,0
2436,36856,0
2473,36822,0
2404,36850,0
2330,36868,0
2226,36837,0
2104,36854,0
2001,36827,0
1860,36842,0
1736,36866,0
1626,36853,0
1492,36871,0
1465,36834,0
1490,36853,0
1644,36867,0
1741,36841,0
1874,36869,0
2004,36832,0
2138,36862,0
2252,36875,0
2344,36843,0
2393,36854,0
2408,36884,0
2374,36866,0
2292,36880,0
2168,36850,0
2072,36859,0
1864,36898,0
1776,36864,0
1604,36878,0
1552,36844,0
1432,36867,0
1424,36910,0
1420,36875,0
1473,36881,0
1458,36855,0
1568,36873,0
1717,36904,0
1873,36884,0
2080,36876,0
2217,36863,0
2344,36875,0
2450,36911,0
2496,36885,0
2536,36897,0
2576,36867,0
2656,36911,0
2704,36889,0
2744,36914,0
2816,36890,0
2896,36887,0
3000,36909,0
3128,36883,0
3272,36897,0
3410,36926,0
3568,36897,0
3720,36903,0
3851,36880,0
3940,36898,0
3984,36930,0
3952,36906,0
3952,36913,0
3922,36891,0
3856,36902,0
3720,36933,0
3544,36900,0
3344,36914,0
3136,36893,0
2920,36902,0
2720,36931,0
2546,36919,0
2434,36916,0
2322,36903,0
2248,36908,0
2211,36937,0
2180,36917,0
2230,36919,0
2304,36898,0
2428,36918,0
2496,36921,0
2544,36941,0
2558,36907,0
2528,36934,0
2464,36905,0
2344,36928,0
2192,36952,0
2020,36924,0
1846,36945,0
1661,36916,0
1478,36915,0
1357,36939,0
1194,36922,0
1197,36952,0
1129,36926,0
1236,36934,0
1264,36946,0
1448,36919,0
1572,36964,0
1753,36932,0
1792,36933,0
1914,36935,0
2008,36932,0
2048,36961,0
2084,36936,0
2018,36934,0
1921,36937,0
1788,36926,0
1584,36964,0
1448,36937,0
1344,36948,0
1364,36950,0
1307,36942,0
1300,36924,0
1290,36944,0
1394,36973,0
1510,36943,0
1616,36926,0
1772,36940,0
1912,36968,0
2045,36953,0
2152,36954,0
2208,36929,0
2260,36937,0
2200,36978,0
2168,36947,0
2032,36964,0
1930,36948,0
1744,36951,0
1652,36980,0
1514,36948,0
1425,36975,0
1254,36943,0
1217,36951,0
1234,36973,0
1298,36952,0
1464,36977,0
1576,36944,0
1710,36954,0
1856,36983,0
1953,36957,0
2058,36982,0
2168,36963,0
2242,36950,0
2250,36947,0
2192,36955,0
2110,36982,0
1992,36978,0
1858,36962,0
1720,36962,0
1616,36934,0
1512,36962,0
1437,36982,0
1410,36972,0
1413,36970,0
1472,36963,0
1506,36959,0
1704,36989,0
1788,36967,0
1978,36976,0
2092,36953,0
2212,36972,0
2280,37002,0
2324,36974,0
2266,36967,0
2196,36959,0
2112,36970,0
1962,37001,0
1848,36975,0
1702,36985,0
1570,36962,0
1443,36971,0
1297,37007,0
1280,36982,0
1372,37017,0
1585,36984,0
1716,36992,0
1874,36963,0
2044,36972,0
2188,37006,0
2302,36988,0
2384,37015,0
2432,36979,0
2416,36981,0
2360,37011,0
2262,36979,0
2154,37016,0
1968,36992,0
1890,36984,0
1708,37018,0
1653,36991,0
1516,37014,0
1544,36985,0
1540,36992,0
1508,37025,0
1610,36997,0
1730,37016,0
1872,36987,0
2021,36997,0
2194,37013,0
2300,36999,0
2357,37035,0
2381,36997,0
2312,36998,0
2249,37026,0
2168,37003,0
2120,37020,0
1990,37001,0
1868,37022,0
1752,37022,0
1652,37032,0
1592,36999,0
1562,37009,0
1560,37037,0
1644,37002,0
1701,37004,0
1816,37020,0
1921,37003,0
2080,37039,0
2162,37001,0
2320,37007,0
2360,36999,0
2420,37006,0
2376,37042,0
2344,37010,0
2256,37008,0
2128,37001,0
1932,37010,0
1792,37047,0
1653,37018,0
1555,37019,0
1536,37004,0
1492,37011,0
1480,37040,0
1530,37015,0
1564,37014,0
1701,37030,0
1866,37012,0
2096,37020,0
2260,37002,0
2384,37017,0
2464,37028,0
2496,36989,0
2500,37002,0
2450,37042,0
2361,36992,0
2248,37003,0
2102,37021,0
1976,36998,0
1821,37021,0
1728,36988,0
1588,36984,0
1604,36995,0
1538,36976,0
1642,37012,0
1673,36984,0
1844,36983,0
1944,36961,0
2104,36960,0
2168,36993,0
2292,36964,0
2368,36957,0
2408,36929,0
2432,36938,0
2362,36964,0
2272,36940,0
2126,36942,0
1952,36914,0
1812,36924,0
1704,36942,0
1692,36916,0
1644,36895,0
1616,36907,0
1624,36906,0
1680,36904,0
1781,36923,0
1892,36884,0
2024,36887,0
2164,36874,0
2301,36860,0
2400,36898,0
2465,36855,0
2506,36851,0
2456,36833,0
2432,36844,0
2312,36868,0
2218,36841,0
2046,36828,0
1944,36835,0
1808,36821,0
1724,36860,0
1552,36817,0
1520,36813,0
1510,36823,0
1576,36809,0
1712,36824,0
1817,36798,0
1944,36789,0
2070,36814,0
2168,36788,0
2264,36821,0
2370,36797,0
2480,36780,0
2472,36787,0
2424,36798,0
2352,36792,0
2232,36770,0
2114,36774,0
1972,36786,0
1844,36761,0
1740,36768,0
1652,36747,0
1606,36756,0
1578,36782,0
1633,36748,0
1661,36765,0
1824,36725,0
1898,36752,0
2080,36779,0
2176,36736,0
2316,36770,0
2384,36733,0
2424,36737,0
2361,36769,0
2314,36744,0
2212,36751,0
2096,36728,0
1992,36742,0
1846,36765,0
1708,36746,0
1592,36766,0
1450,36735,0
1412,36739,0
1434,36758,0
1588,36749,0
1692,36746,0
1820,36728,0
1964,36748,0
2106,36736,0
2248,36730,0
2360,36763,0
2436,36717,0
2480,36735,0
2460,36766,0
2416,36739,0
2313,36767,0
2184,36736,0
2004,36740,0
1808,36753,0
1721,36741,0
1660,36771,0
1513,36736,0
1520,36737,0
1512,36758,0
1560,36742,0
1562,36766,0
1680,36738,0
1812,36737,0
1968,36755,0
2148,36749,0
2252,36780,0
2324,36756,0
2360,36751,0
2316,36755,0
2266,36753,0
2181,36781,0
2136,36747,0
2014,36745,0
1892,36763,0
1776,36763,0
1669,36780,0
1610,36754,0
1568,36768,0
1574,36765,0
1592,36760,0
1696,36798,0
1816,36764,0
1939,36755,0
2082,36775,0
2176,36762,0
2320,36803,0
2376,36769,0
2440,36779,0
2400,36780,0
2384,36777,0
2288,36801,0
2180,36779,0
1968,36788,0
1824,36781,0
1698,36782,0
1588,36808,0
1560,36783,0
1528,36776,0
1496,36775,0
1535,36783,0
1554,36811,0
1692,36780,0
1837,36790,0
2072,36793,0
2208,36812,0
2328,36800,0
2412,36798,0
2456,36790,0
2454,36824,0
2404,36808,0
2316,36797,0
2200,36774,0
2060,36794,0
1922,36827,0
1772,36808,0
1680,36818,0
1536,36794,0
1556,36801,0
1504,36827,0
1588,36807,0
1621,36821,0
1772,36799,0
1904,36809,0
2047,36822,0
2132,36806,0
2246,36825,0
2336,36801,0
2372,36815,0
2408,36838,0
2332,36818,0
2244,36851,0
2112,36809,0
1928,36826,0
1792,36831,0
1657,36819,0
1656,36846,0
1589,36834,0
1564,36812,0
1568,36809,0
1620,36831,0
1588,36849,0
1826,36828,0
1969,36817,0
2104,36856,0
2242,36825,0
2346,36860,0
2419,36826,0
2456,36833,0
2437,36855,0
2400,36840,0
2288,36864,0
2204,36837,0
2040,36846,0
1941,36867,0
1784,36844,0
1698,36878,0
1524,36844,0
1476,36846,0
1472,36854,0
1522,36835,0
1658,36874,0
1770,36844,0
1890,36838,0
2064,36863,0
2120,36844,0
2256,36877,0
2465,36831,0
2496,36874,0
2440,36873,0
2380,36857,0
2272,36874,0
2133,36848,0
2012,36875,0
1884,36848,0
1780,36871,0
1701,36849,0
1658,36840,0
1642,36869,0
1681,36843,0
1705,36879,0
1884,36840,0
1960,36848,0
2148,36856,0
2240,36848,0
2388,36867,0
2450,36852,0
2452,36853,0
2448,36834,0
2394,36845,0
2308,36879,0
2188,36845,0
2088,36844,0
1948,36827,0
1800,36844,0
1672,36873,0
1532,36853,0
1484,36846,0
1494,36837,0
1640,36831,0
1732,36828,0
1860,36817,0
1984,36847,0
2132,36843,0
2272,36833,0
2388,36873,0
2468,36841,0
2520,36843,0
2516,36845,0
2472,36840,0
2384,36872,0
2284,36839,0
2112,36840,0
2024,36839,0
1858,36833,0
1800,36869,0
1666,36836,0
1674,36837,0
1664,36851,0
1708,36836,0
1704,36863,0
1821,36831,0
1958,36828,0
2112,36847,0
2264,36829,0
2368,36848,0
2442,36830,0
2484,36823,0
2444,36840,0
2401,36829,0
2320,36858,0
2272,36842,0
2148,36809,0
2034,36806,0
1924,36799,0
1817,36840,0
1744,36828,0
1692,36825,0
1694,36862,0
1720,36827,0
1801,36821,0
1908,36825,0
2017,36814,0
2160,36850,0
2240,36826,0
2376,36827,0
2424,36812,0
2488,36823,0
2458,36861,0
2448,36825,0
2344,36819,0
2232,36800,0
2024,36814,0
1888,36852,0
1746,36827,0
1629,36819,0
1588,36811,0
1530,36814,0
1513,36859,0
1537,36826,0
1557,36826,0
1672,36804,0
1818,36821,0
2047,36844,0
2196,36842,0
2322,36839,0
2429,36850,0
2476,36806,0
2482,36846,0
2440,36813,0
2352,36829,0
2236,36866,0
2108,36828,0
1968,36869,0
1826,36819,0
1728,36829,0
1588,36844,0
1600,36829,0
1544,36861,0
1632,36831,0
1660,36834,0
1828,36844,0
1948,36834,0
2100,36871,0
2188,36832,0
2306,36829,0
2408,36835,0
2464,36837,0
2500,36867,0
2464,36844,0
2376,36840,0
2260,36828,0
2080,36832,0
1932,36861,0
1816,36852,0
1788,36842,0
1714,36842,0
1680,36843,0
1692,36853,0
1736,36863,0
1816,36855,0
1920,36877,0
2038,36849,0
2172,36852,0
2288,36837,0
2402,36853,0
2456,36898,0
2500,36861,0
2464,36872,0
2436,36846,0
2306,36859,0
2224,36894,0
2034,36872,0
1928,36879,0
1784,36847,0
1676,36861,0
1492,36890,0
1432,36869,0
1424,36881,0
1474,36851,0
1609,36868,0
1708,36902,0
1825,36871,0
1948,36895,0
2024,36888,0
2132,36879,0
2200,36906,0
2298,36889,0
2298,36882,0
2264,36896,0
2188,36883,0
2096,36888,0
2012,36895,0
1930,36890,0
1888,36894,0
1864,36892,0
1892,36923,0
1956,36894,0
2060,36896,0
2266,36888,0
2484,36895,0
2786,36935,0
3080,36912,0
3380,36914,0
3680,36883,0
3912,36905,0
3972,36935,0
3976,36908,0
3984,36932,0
3984,36899,0
3972,36917,0
3930,36940,0
3816,36923,0
3668,36945,0
3492,36899,0
3298,36927,0
3112,36947,0
2960,36923,0
2866,36946,0
2804,36901,0
2772,36945,0
2784,36921,0
2814,36933,0
2852,36933,0
2896,36954,0
2928,36924,0
2942,36931,0
2928,36939,0
2864,36922,0
2768,36956,0
2611,36929,0
2456,36929,0
2232,36949,0
2072,36934,0
1842,36968,0
1716,36930,0
1534,36933,0
1468,36936,0
1392,36937,0
1402,36963,0
1330,36933,0
1404,36947,0
1510,36919,0
1636,36939,0
1816,36962,0
1916,36947,0
1986,36952,0
2038,36921,0
1992,36944,0
1969,36968,0
1889,36950,0
1874,36961,0
1745,36951,0
1636,36945,0
1532,36963,0
1424,36973,0
1349,36948,0
1296,36956,0
1300,36939,0
1328,36952,0
1406,36986,0
1592,36949,0
1641,36964,0
1801,36933,0
1906,36952,0
2068,36990,0
2128,36963,0
2224,36963,0
2208,36938,0
2200,36958,0
2124,36986,0
2024,36965,0
1813,36957,0
1680,36932,0
1546,36958,0
1430,36993,0
1404,36966,0
1348,36974,0
1328,36959,0
1365,36952,0
1368,37001,0
1496,36962,0
1898,36985,0
2047,36977,0
2192,36976,0
2280,36943,0
2352,36957,0
2364,36982,0
2328,36954,0
2244,36963,0
2136,37000,0
1990,36975,0
1842,37004,0
1685,36975,0
1586,36969,0
1441,37006,0
1448,36982,0
1380,37010,0
1468,36983,0
1490,36986,0
1642,36992,0
1784,36982,0
1856,37006,0
2020,36988,0
2150,36987,0
2250,36991,0
2312,36980,0
2344,37004,0
2300,36984,0
2204,36985,0
2086,36986,0
1884,36989,0
1745,37025,0
1600,36993,0
1576,36985,0
1498,37000,0
1444,37017,0
1440,36996,0
1476,36998,0
1554,37004,0
1662,36998,0
1786,36980,0
1944,36994,0
2078,37022,0
2200,37006,0
2299,37023,0
2362,36994,0
2356,37002,0
2356,37037,0
2250,37013,0
2192,37016,0
2020,37003,0
1952,37002,0
1800,37038,0
1708,37007,0
1520,37028,0
1484,37002,0
1464,37014,0
1512,37047,0
1628,37013,0
1732,37032,0
1846,37003,0
1984,37021,0
2072,37050,0
2200,37024,0
2304,37044,0
2432,37039,0
2620,37049,0
2428,37052,0
2364,37042,0
2256,37027,0
2136,37026,0
1988,37014,0
1872,37037,0
1738,37065,0
1640,37024,0
1576,37048,0
1520,37014,0
1560,37024,0
1560,37064,0
1720,37028,0
1794,37046,0
1968,37025,0
2056,37033,0
2224,37070,0
2304,37049,0
2364,37043,0
2314,37022,0
2272,37042,0
2200,37071,0
2081,37043,0
2004,37044,0
1848,37032,0
1702,37053,0
1576,37078,0
1413,37051,0
1368,37052,0
1368,37032,0
1520,37057,0
1604,37052,0
1730,37057,0
1874,37070,0
2034,37048,0
2188,37083,0
2308,37054,0
2410,37060,0
2464,37036,0
2480,37052,0
2442,37067,0
2356,37059,0
2268,37065,0
2096,37037,0
1988,37042,0
1812,37070,0
1744,37050,0
1605,37066,0
1593,37048,0
1576,37042,0
1616,37063,0
1600,37032,0
1716,37054,0
1832,37022,0
1997,37024,0
2177,37059,0
2292,37030,0
2373,37042,0
2426,37012,0
2408,37014,0
2384,37039,0
2320,37008,0
2280,37012,0
2176,36999,0
2047,36993,0
1938,36995,0
1832,36970,0
1756,36991,0
1700,36964,0
1686,36976,0
1716,36988,0
1770,36962,0
1874,36969,0
1999,36940,0
2116,36942,0
2221,36958,0
2368,36934,0
2436,36941,0
2532,36907,0
2500,36926,0
2498,36940,0
2420,36921,0
2324,36926,0
2144,36890,0
2010,36903,0
1860,36922,0
1748,36894,0
1696,36901,0
1626,36864,0
1590,36875,0
1602,36910,0
1618,36873,0
1729,36893,0
1877,36849,0
2098,36852,0
2256,36849,0
2396,36861,0
2496,36844,0
2568,36824,0
2592,36856,0
2559,36831,0
2496,36856,0
2376,36819,0
2240,36820,0
2104,36849,0
1952,36818,0
1844,36838,0
1698,36809,0
1668,36814,0
1608,36833,0
1674,36806,0
1664,36827,0
1840,36794,0
1916,36801,0
2068,36827,0
2128,36793,0
2246,36829,0
2352,36783,0
2392,36793,0
2420,36815,0
2390,36782,0
2288,36810,0
2169,36778,0
1988,36775,0
1840,36803,0
1720,36784,0
1688,36784,0
1602,36807,0
1568,36795,0
1538,36770,0
1581,36813,0
1637,36781,0
1738,36756,0
1860,36774,0
2008,36799,0
2136,36778,0
2252,36788,0
2328,36755,0
2400,36775,0
2368,36801,0
2370,36775,0
2272,36788,0
2185,36754,0
2012,36774,0
1916,36804,0
1782,36775,0
1666,36795,0
1460,36769,0
1412,36772,0
1377,36794,0
1396,36780,0
1517,36801,0
1608,36777,0
1714,36773,0
1848,36799,0
1932,36789,0
2068,36813,0
2180,36785,0
2320,36794,0
2356,36779,0
2324,36786,0
2278,36787,0
2164,36792,0
2036,36784,0
1909,36809,0
1776,36798,0
1657,36830,0
1556,36797,0
1490,36797,0
1470,36804,0
1488,36794,0
1505,36830,0
1660,36811,0
1728,36796,0
1914,36804,0
2042,36809,0
2194,36826,0
2272,36810,0
2356,36808,0
2328,36812,0
2314,36811,0
2248,36837,0
2148,36806,0
2060,36803,0
1920,36804,0
1773,36820,0
1656,36843,0
1504,36814,0
1442,36827,0
1580,36865,0
1652,36841,0
1772,36833,0
1889,36849,0
2034,36849,0
2184,36829,0
2312,36851,0
2400,36827,0
2464,36849,0
2490,36825,0
2468,36825,0
2388,36850,0
2296,36825,0
2116,36865,0
2020,36835,0
1858,36834,0
1778,36831,0
1632,36835,0
1624,36866,0
1592,36834,0
1540,36837,0
1617,36852,0
1716,36841,0
1848,36872,0
2000,36835,0
2192,36843,0
2304,36867,0
2388,36841,0
2452,36871,0
2440,36849,0
2416,36852,0
2352,36853,0
2322,36908,0
2204,36842,0
2080,36854,0
1956,36848,0
1852,36856,0
1749,36856,0
1688,36882,0
1656,36858,0
1662,36858,0
1720,36877,0
1808,36864,0
1898,36901,0
2047,36858,0
2136,36861,0
2296,36886,0
2358,36867,0
2448,36900,0
2448,36868,0
2448,36869,0
2369,36894,0
2288,36874,0
2072,36896,0
1937,36884,0
1804,36884,0
1684,36872,0
1640,36872,0
1572,36921,0
1532,36880,0
1534,36883,0
1537,36867,0
1646,36873,0
1780,36916,0
2008,36908,0
2165,36891,0
2292,36904,0
2396,36908,0
2466,36892,0
2496,36912,0
2464,36897,0
2401,36917,0
2300,36897,0
2166,36891,0
2044,36907,0
1887,36896,0
1768,36926,0
1620,36897,0
1616,36902,0
1520,36903,0
1586,36906,0
1592,36926,0
1740,36906,0
1844,36897,0
2000,36895,0
2068,36904,0
2200,36932,0
2308,36893,0
2357,36899,0
2420,36913,0
2378,36901,0
2300,36942,0
2192,36895,0
2000,36903,0
1868,36891,0
1744,36899,0
1724,36916,0
1617,36900,0
1576,36904,0
1560,36900,0
1570,36894,0
1640,36898,0
1744,36928,0
1867,36902,0
2000,36908,0
2140,36885,0
2257,36898,0
2362,36931,0
2428,36895,0
2424,36902,0
2432,36889,0
2344,36894,0
2264,36929,0
2096,36896,0
2000,36902,0
1856,36884,0
1737,36886,0
1552,36922,0
1484,36887,0
1467,36905,0
1486,36878,0
1594,36892,0
1697,36920,0
1810,36886,0
1944,36922,0
2048,36867,0
2194,36897,0
2304,36925,0
2440,36919,0
2480,36906,0
2488,36921,0
2426,36899,0
2352,36895,0
2238,36879,0
2108,36888,0
1978,36921,0
1872,36891,0
1772,36889,0
1716,36874,0
1663,36887,0
1696,36922,0
1700,36902,0
1845,36881,0
1924,36870,0
2092,36886,0
2192,36923,0
2344,36891,0
2440,36898,0
2504,36876,0
2474,36880,0
2448,36919,0
2376,36893,0
2272,36901,0
2170,36885,0
2027,36895,0
1884,36918,0
1752,36887,0
1592,36917,0
1526,36887,0
1510,36895,0
1636,36867,0
1714,36926,0
1808,36898,0
1938,36895,0
2088,36892,0
2217,36898,0
2356,36928,0
2448,36897,0
2512,36893,0
2532,36900,0
2508,36891,0
2452,36932,0
2336,36903,0
2176,36902,0
2084,36900,0
1890,36898,0
1820,36930,0
1657,36897,0
1648,36897,0
1584,36886,0
1608,36895,0
1572,36930,0
1678,36905,0
1784,36909,0
1920,36918,0
2092,36909,0
2216,36933,0
2304,36923,0
2360,36902,0
2336,36901,0
2324,36903,0
2268,36947,0
2236,36909,0
2124,36922,0
2008,36924,0
1880,36934,0
1761,36935,0
1672,36939,0
1602,36917,0
1576,36930,0
1592,36906,0
1640,36923,0
1738,36953,0
1828,36926,0
1964,36926,0
2040,36919,0
2204,36920,0
2260,36953,0
2352,36937,0
2324,36937,0
2322,36917,0
2236,36929,0
2138,36968,0
1928,36935,0
1776,36940,0
1616,36928,0
1480,36939,0
1446,36978,0
1360,36947,0
1322,36954,0
1330,36929,0
1332,36945,0
1444,36976,0
1571,36955,0
1808,36952,0
1952,36970,0
2080,36976,0
2174,36958,0
2232,37012,0
2268,36957,0
2252,36981,0
2200,36952,0
2132,36961,0
2058,36998,0
1984,36967,0
1914,37000,0
1904,36973,0
1860,36969,0
1952,36996,0
2016,36972,0
2200,37014,0
2388,36975,0
2664,36978,0
2928,37004,0
3204,36983,0
3472,37015,0
3704,36985,0
3880,36993,0
3976,37008,0
3968,36995,0
3960,37024,0
3888,36991,0
3748,37000,0
3584,37016,0
3376,37000,0
3168,37045,0
2992,36995,0
2832,37000,0
2672,37017,0
2568,37032,0
2496,37020,0
2482,37033,0
2496,37009,0
2536,37022,0
2604,37033,0
2672,37026,0
2736,37043,0
2778,37015,0
2800,37015,0
2760,37041,0
2720,37017,0
2592,37055,0
2480,37030,0
2284,37036,0
2136,37030,0
1940,37037,0
1784,37056,0
1532,37032,0
1408,37035,0
1330,37046,0
1284,37037,0
1358,37061,0
1400,37034,0
1472,37044,0
1574,37049,0
1648,37044,0
1776,37083,0
2044,37100,0
2096,37058,0
2096,37031,0
2047,37045,0
1952,37057,0
1852,37041,0
1722,37055,0
1586,37081,0
1440,37062,0
1362,37069,0
1292,37049,0
1237,37065,0
1266,37083,0
1250,37060,0
1405,37087,0
1480,37067,0
1668,37071,0
1760,37084,0
1956,37072,0
2046,37100,0
2065,37070,0
2112,37088,0
2096,37095,0
2032,37087,0
1930,37115,0
1852,37083,0
1702,37080,0
1550,37118,0
1420,37093,0
1240,37114,0
1177,37090,0
1154,37092,0
1292,37100,0
1368,37099,0
1484,37097,0
1610,37101,0
1760,37103,0
1914,37132,0
2044,37097,0
2168,37111,0
2240,37103,0
2280,37119,0
2259,37139,0
2180,37105,0
2104,37115,0
1924,37097,0
1840,37118,0
1642,37144,0
1560,37124,0
1404,37122,0
1380,37111,0
1337,37124,0
1362,37150,0
1330,37121,0
1436,37133,0
1568,37118,0
1722,37133,0
1916,37153,0
2053,37128,0
2160,37133,0
2232,37123,0
2226,37134,0
2225,37172,0
2178,37130,0
2164,37139,0
2065,37141,0
1937,37135,0
1814,37169,0
1698,37141,0
1642,37144,0
1544,37145,0
1524,37185,0
1512,37155,0
1580,37166,0
1664,37146,0
1791,37158,0
1928,37178,0
2024,37149,0
2184,37178,0
2256,37165,0
2362,37157,0
2356,37186,0
2376,37170,0
2316,37200,0
2236,37173,0
2050,37182,0
1908,37176,0
1772,37170,0
1632,37212,0
1592,37179,0
1512,37185,0
1446,37188,0
1448,37185,0
1442,37204,0
1536,37182,0
1682,37194,0
1893,37182,0
2056,37190,0
2184,37182,0
2308,37186,0
2388,37205,0
2424,37191,0
2416,37224,0
2360,37200,0
2272,37194,0
2144,37197,0
2004,37199,0
1854,37234,0
1728,37200,0
1554,37218,0
1540,37194,0
1440,37204,0
1492,37228,0
1484,37214,0
1628,37237,0
1728,37205,0
1864,37211,0
1944,37235,0
2088,37211,0
2208,37235,0
2288,37208,0
2368,37223,0
2360,37243,0
2297,37216,0
2204,37251,0
2048,37223,0
1912,37210,0
1792,37238,0
1768,37244,0
1688,37236,0
1632,37238,0
1610,37231,0
1624,37227,0
1688,37229,0
1780,37259,0
1890,37235,0
2020,37238,0
2168,37217,0
2289,37222,0
2394,37252,0
2472,37231,0
2480,37246,0
2504,37229,0
2428,37230,0
2360,37254,0
2220,37225,0
2120,37260,0
1984,37225,0
1874,37224,0
1692,37226,0
1622,37223,0
1580,37259,0
1588,37223,0
1698,37239,0
1785,37207,0
1886,37208,0
2020,37236,0
2128,37214,0
2274,37235,0
2404,37201,0
2548,37211,0
2600,37210,0
2616,37212,0
2584,37204,0
2500,37213,0
2388,37183,0
2264,37185,0
2132,37173,0
2004,37197,0
1906,37169,0
1800,37159,0
1760,37136,0
1754,37148,0
1728,37167,0
1848,37152,0
1912,37154,0
2064,37111,0
2144,37116,0
2312,37130,0
2394,37112,0
2480,37136,0
2468,37100,0
2460,37088,0
2409,37087,0
2320,37076,0
2220,37093,0
2075,37061,0
1926,37056,0
1793,37020,0
1616,37030,0
1532,37055,0
1500,37012,0
1616,37016,0
1668,37002,0
1762,36991,0
1872,36987,0
2006,37004,0
2148,36992,0
2276,36959,0
2388,36953,0
2464,36971,0
2490,36956,0
2484,36980,0
2407,36939,0
2320,36939,0
2156,36945,0
2052,36928,0
1876,36967,0
1788,36926,0
1624,36911,0
1602,36912,0
1562,36913,0
1556,36947,0
1514,36913,0
1616,36902,0
1744,36906,0
1868,36902,0
2056,36928,0
2191,36890,0
2284,36886,0
2354,36871,0
2352,36883,0
2357,36915,0
2320,36879,0
2284,36881,0
2182,36842,0
2056,36885,0
1936,36877,0
1812,36899,0
1717,36876,0
1648,36881,0
1611,36863,0
1610,36852,0
1652,36898,0
1728,36864,0
1826,36887,0
1970,36849,0
2068,36859,0
2240,36894,0
2320,36853,0
2408,36883,0
2432,36849,0
2468,36861,0
2404,36889,0
2320,36867,0
2160,36887,0
2012,36850,0
1875,36860,0
1742,36885,0
1682,36856,0
1612,36877,0
1549,36842,0
1544,36869,0
1532,36896,0
1617,36858,0
1980,36911,0
2132,36877,0
2274,36879,0
2408,36881,0
2493,36852,0
2556,36862,0
2548,36888,0
2508,36857,0
2416,36906,0
2302,36872,0
2172,36863,0
2012,36881,0
1906,36871,0
1746,36904,0
1720,36872,0
1632,36876,0
1676,36873,0
1680,36883,0
1788,36909,0
1888,36888,0
1940,36879,0
2112,36876,0
2233,36884,0
2352,36915,0
2437,36886,0
2508,36883,0
2488,36873,0
2432,36880,0
2328,36904,0
2168,36889,0
2041,36895,0
1916,36869,0
1860,36911,0
1776,36913,0
1704,36906,0
1676,36923,0
1680,36911,0
1722,36891,0
1796,36897,0
1904,36930,0
2040,36894,0
2176,36930,0
2296,36898,0
2399,36898,0
2472,36929,0
2488,36910,0
2512,36937,0
2432,36910,0
2368,36904,0
2220,36926,0
2124,36919,0
1972,36940,0
1856,36918,0
1668,36914,0
1593,36926,0
1541,36921,0
1522,36943,0
1620,36920,0
1698,36913,0
1794,36925,0
1900,36909,0
2004,36942,0
2144,36922,0
2260,36912,0
2416,36941,0
2480,36930,0
2488,36955,0
2460,36924,0
2376,36932,0
2272,36923,0
2132,36937,0
2004,36921,0
1877,36959,0
1766,36933,0
1664,36930,0
1624,36950,0
1637,36933,0
1616,36963,0
1756,36935,0
1808,36931,0
1982,36933,0
2080,36932,0
2256,36967,0
2352,36932,0
2448,36951,0
2432,36940,0
2452,36947,0
2392,36977,0
2308,36949,0
2216,36948,0
2076,36939,0
1918,36943,0
1772,36976,0
1600,36948,0
1520,36953,0
1484,36949,0
1584,36961,0
1622,36966,0
1720,36931,0
1844,36983,0
1972,36971,0
2120,36947,0
2256,36955,0
2372,36987,0
2456,36957,0
2500,36958,0
2497,36951,0
2431,36961,0
2348,36989,0
2192,36968,0
2092,36959,0
1908,36946,0
1820,36953,0
1672,36991,0
1629,36960,0
1552,36966,0
1560,36934,0
1500,36964,0
1576,36985,0
1702,36967,0
1834,36974,0
2008,36948,0
2140,36958,0
2241,36985,0
2316,36956,0
2320,36981,0
2320,36946,0
2288,36953,0
2256,36953,0
2164,36950,0
2044,36958,0
1928,36951,0
1784,36952,0
1684,36976,0
1609,36953,0
1606,36959,0
1544,36939,0
1577,36948,0
1648,36968,0
1753,36954,0
1888,36958,0
1980,36930,0
2149,36937,0
2228,36955,0
2352,36939,0
2360,36971,0
2389,36939,0
2344,36934,0
2257,36957,0
2092,36933,0
1953,36967,0
1802,36927,0
1676,36940,0
1610,36933,0
1532,36929,0
1468,36958,0
1456,36930,0
1442,36933,0
1528,36918,0
1664,36921,0
1900,36933,0
2068,36943,0
2216,36956,0
2348,36933,0
2428,36927,0
2508,36935,0
2512,36949,0
2472,36921,0
2394,36925,0
2292,36940,0
2148,36923,0
1988,36947,0
1864,36916,0
1692,36925,0
1664,36928,0
1554,36923,0
1585,36942,0
1568,36928,0
1692,36908,0
1784,36934,0
1912,36917,0
1988,36949,0
2128,36913,0
2248,36910,0
2341,36930,0
2424,36913,0
2404,36942,0
2360,36910,0
2249,36914,0
2096,36937,0
1952,36919,0
1818,36932,0
1776,36913,0
1669,36913,0
1594,36917,0
1552,36913,0
1546,36938,0
1588,36932,0
1662,36903,0
1766,36913,0
1904,36919,0
2040,36912,0
2168,36947,0
2268,36908,0
2376,36916,0
2396,36900,0
2428,36911,0
2364,36943,0
2308,36920,0
2160,36919,0
2080,36905,0
1928,36906,0
1816,36945,0
1620,36927,0
1529,36911,0
1488,36909,0
1464,36906,0
1550,36948,0
1633,36920,0
1725,36909,0
1858,36900,0
1948,36911,0
2104,36950,0
2245,36922,0
2404,36910,0
2480,36938,0
2492,36942,0
2472,36931,0
2404,36910,0
2296,36913,0
2172,36940,0
2044,36925,0
1912,36918,0
1772,36904,0
1672,36920,0
1597,36950,0
1588,36926,0
1530,36923,0
1648,36904,0
1680,36923,0
1844,36951,0
1913,36932,0
2096,36921,0
2184,36917,0
2280,36922,0
2272,36963,0
2288,36923,0
2236,36926,0
2162,36913,0
2100,36919,0
1957,36951,0
1806,36932,0
1659,36932,0
1460,36908,0
1368,36929,0
1402,36952,0
1452,36943,0
1540,36922,0
1686,36954,0
1872,36944,0
2092,36927,0
2306,36938,0
2532,36958,0
2724,36944,0
2916,36960,0
3064,36939,0
3176,36928,0
3280,36957,0
3332,36940,0
3400,36974,0
3448,36936,0
3496,36945,0
3536,36965,0
3576,36950,0
3608,36982,0
3656,36949,0
3712,36943,0
3768,36947,0
3828,36942,0
3876,36984,0
3920,36961,0
3922,36955,0
3924,36949,0
3889,36947,0
3824,36986,0
3728,36956,0
3592,36958,0
3428,36986,0
3248,36967,0
3052,36954,0
2856,36951,0
2660,36957,0
2492,36966,0
2328,36956,0
2204,36952,0
2112,36964,0
2064,37000,0
2052,36968,0
2052,36962,0
2104,36953,0
2112,36972,0
2224,36990,0
2228,36973,0
2258,36975,0
2212,36968,0
2204,36969,0
2106,36998,0
1992,36980,0
1778,36978,0
1608,36982,0
1435,36977,0
1297,37006,0
1237,36977,0
1129,36977,0
1065,36973,0
1052,36971,0
1013,37011,0
1108,36979,0
1242,36980,0
1496,36986,0
1660,36999,0
1824,37009,0
1956,36954,0
2064,36994,0
2132,36983,0
2144,37021,0
2109,36985,0
2020,37013,0
1913,36981,0
1768,36992,0
1613,37011,0
1476,36987,0
1296,37013,0
1278,36981,0
1169,36995,0
1218,37011,0
1192,36997,0
1353,37013,0
1456,36976,0
1616,36992,0
1696,37016,0
1852,36996,0
2000,37017,0
2118,36985,0
2208,37002,0
2205,37024,0
2168,36996,0
2072,37027,0
1898,36990,0
1753,36996,0
1602,37027,0
1562,36987,0
1453,36999,0
1364,36998,0
1324,37002,0
1304,37014,0
1348,36996,0
1420,37006,0
1533,36991,0
1660,37030,0
1816,37006,0
1960,37005,0
2080,36990,0
2184,37019,0
2208,37036,0
2276,37006,0
2196,37010,0
2156,37003,0
2004,37008,0
1904,37046,0
1764,37008,0
1640,37013,0
1426,36998,0
1334,37002,0
1280,37053,0
1254,37015,0
1332,37022,0
1418,36994,0
1497,37011,0
1622,37032,0
1704,37012,0
1864,37042,0
2012,37003,0
2194,37041,0
2260,37017,0
2296,37027,0
2284,37046,0
2224,37020,0
2128,37055,0
2008,37034,0
1882,37031,0
1740,37023,0
1629,37015,0
1540,37061,0
1460,37032,0
1470,37029,0
1424,37011,0
1554,37018,0
1616,37060,0
1788,37025,0
1888,37042,0
2068,37024,0
2192,37035,0
2284,37058,0
2288,37037,0
2304,37029,0
2252,37023,0
2189,37036,0
2104,37065,0
1956,37045,0
1810,37039,0
1668,37018,0
1476,37030,0
1392,37069,0
1350,37047,0
1444,37030,0
1496,37050,0
1572,37036,0
1698,37044,0
1832,37046,0
1976,37068,0
2116,37046,0
2248,37041,0
2332,37062,0
2394,37037,0
2396,37073,0
2367,37046,0
2288,37044,0
2138,37067,0
2046,37045,0
1856,37075,0
1768,37049,0
1600,37050,0
1560,37078,0
1484,37044,0
1488,37086,0
1417,37045,0
1510,37042,0
1622,37063,0
1760,37049,0
1946,37078,0
2202,37056,0
2209,37051,0
2300,37054,0
2320,37050,0
2341,37091,0
2336,37064,0
2328,37065,0
2228,37072,0
2120,37073,0
1996,37046,0
1858,37077,0
1758,37076,0
1668,37036,0
1616,37074,0
1588,37040,0
1628,37052,0
1688,37065,0
1772,37045,0
1918,37063,0
2008,37026,0
2184,37036,0
2280,37050,0
2400,37032,0
2432,37043,0
2480,37005,0
2456,37014,0
2392,37040,0
2244,37017,0
2112,37024,0
1984,36988,0
1852,36999,0
1772,37024,0
1677,37001,0
1608,36982,0
1588,36962,0
1540,36979,0
1612,37001,0
1732,36964,0
1946,36969,0
2104,36970,0
2256,36954,0
2552,36951,0
2492,36953,0
2559,36941,0
2576,36910,0
2564,36916,0
2488,36944,0
2384,36920,0
2250,36920,0
2121,36883,0
1978,36890,0
1812,36921,0
1766,36885,0
1648,36890,0
1672,36861,0
1648,36870,0
1744,36889,0
1834,36863,0
1968,36878,0
2024,36843,0
2162,36854,0
2292,36877,0
2380,36846,0
2472,36846,0
2474,36827,0
2434,36830,0
2327,36853,0
2208,36825,0
2080,36855,0
1968,36813,0
1900,36825,0
1788,36835,0
1728,36803,0
1662,36767,0
1638,36808,0
1672,36826,0
1721,36795,0
1816,36798,0
1936,36774,0
2064,36783,0
2200,36823,0
2301,36791,0
2420,36783,0
2424,36758,0
2473,36780,0
2420,36803,0
2378,36777,0
2232,36781,0
2144,36759,0
1996,36768,0
1888,36803,0
1684,36763,0
1584,36776,0
1512,36729,0
1494,36759,0
1570,36797,0
1622,36757,0
1706,36773,0
1816,36747,0
1914,36757,0
2064,36784,0
2356,36766,0
2431,36753,0
2458,36762,0
2436,36759,0
2384,36774,0
2274,36757,0
2144,36765,0
2000,36763,0
1868,36773,0
1738,36758,0
1634,36741,0
1544,36763,0
1535,36750,0
1496,36773,0
1608,36751,0
1664,36748,0
1820,36771,0
1904,36748,0
2090,36788,0
2216,36752,0
2252,36751,0
2316,36771,0
2328,36751,0
2312,36780,0
2242,36742,0
2164,36750,0
2032,36768,0
1884,36749,0
1734,36782,0
1548,36755,0
1456,36746,0
1404,36769,0
1490,36766,0
1510,36765,0
1601,36762,0
1700,36785,0
1832,36767,0
1977,36761,0
2124,36762,0
2242,36738,0
2344,36759,0
2400,36787,0
2424,36763,0
2382,36765,0
2338,36766,0
2192,36766,0
2104,36788,0
1936,36767,0
1840,36761,0
1664,36796,0
1624,36767,0
1548,36790,0
1556,36753,0
1464,36766,0
1532,36795,0
1632,36765,0
1762,36791,0
1952,36759,0
2082,36778,0
2196,36800,0
2280,36781,0
2308,36798,0
2330,36765,0
2312,36778,0
2312,36789,0
2224,36777,0
2104,36781,0
1982,36773,0
1858,36791,0
1744,36789,0
1658,36761,0
1601,36779,0
1572,36803,0
1604,36783,0
1648,36799,0
1749,36773,0
1860,36787,0
1956,36806,0
2140,36779,0
2232,36786,0
2352,36752,0
2392,36786,0
2456,36811,0
2416,36786,0
2360,36807,0
2200,36784,0
2072,36780,0
1949,36816,0
1797,36782,0
1726,36810,0
1608,36784,0
1547,36790,0
1514,36826,0
1472,36793,0
1544,36810,0
1672,36789,0
1884,36822,0
2045,36812,0
2196,36808,0
2338,36803,0
2448,36815,0
2524,36794,0
2536,36821,0
2516,36787,0
2448,36826,0
2346,36788,0
2224,36805,0
2070,36833,0
1936,36801,0
1769,36822,0
1728,36793,0
1596,36810,0
1616,36832,0
1646,36806,0
1684,36825,0
1764,36793,0
1900,36808,0
1968,36830,0
2112,36802,0
2248,36829,0
2344,36795,0
2441,36817,0
2460,36834,0
2428,36813,0
2360,36831,0
2224,36799,0
2096,36813,0
1971,36845,0
1913,36792,0
1828,36803,0
1740,36821,0
1686,36817,0
1665,36836,0
1696,36821,0
1752,36843,0
1852,36817,0
1964,36834,0
2100,36800,0
2232,36818,0
2343,36843,0
2436,36818,0
2464,36833,0
2516,36795,0
2468,36818,0
2428,36839,0
2266,36818,0
2186,36831,0
2032,36799,0
1904,36816,0
1696,36851,0
1604,36814,0
1523,36822,0
1490,36795,0
1556,36823,0
1606,36847,0
1684,36821,0
1776,36815,0
1856,36808,0
1992,36815,0
2144,36841,0
2308,36812,0
2380,36817,0
2412,36820,0
2396,36815,0
2332,36820,0
2252,36809,0
2124,36819,0
2000,36831,0
1864,36813,0
1736,36833,0
1650,36809,0
1582,36810,0
1556,36829,0
1520,36801,0
1636,36835,0
1690,36814,0
1868,36812,0
1962,36798,0
2156,36804,0
2292,36838,0
2402,36817,0
2418,36814,0
2464,36801,0
2452,36816,0
2394,36836,0
2316,36807,0
2192,36803,0
2060,36795,0
1914,36810,0
1748,36835,0
1652,36809,0
1609,36823,0
1676,36822,0
1708,36816,0
1780,36818,0
1888,36828,0
2008,36837,0
2154,36805,0
2292,36808,0
2408,36830,0
2656,36799,0
2576,36832,0
2600,36805,0
2556,36810,0
2488,36807,0
2340,36807,0
2244,36841,0
2065,36809,0
1952,36818,0
1768,36795,0
1712,36801,0
1624,36837,0
1604,36802,0
1520,36822,0
1570,36788,0
1666,36802,0
1786,36831,0
1960,36801,0
2093,36813,0
2208,36781,0
2304,36799,0
2324,36837,0
2376,36801,0
2356,36810,0
2364,36777,0
2282,36776,0
2164,36794,0
2047,36817,0
1928,36814,0
1828,36789,0
1720,36799,0
1656,36836,0
1624,36803,0
1636,36811,0
1696,36789,0
1769,36798,0
1900,36829,0
1984,36811,0
2168,36830,0
2264,36791,0
2388,36798,0
2437,36834,0
2504,36804,0
2480,36829,0
2436,36807,0
2272,36809,0
2152,36845,0
2004,36809,0
1856,36824,0
1784,36798,0
1683,36805,0
1596,36825,0
1564,36812,0
1498,36839,0
1573,36811,0
1888,36835,0
2040,36841,0
2192,36813,0
2322,36808,0
2432,36796,0
2496,36819,0
2520,36815,0
2498,36804,0
2428,36842,0
2320,36814,0
2184,36831,0
2044,36807,0
1884,36826,0
1702,36851,0
1640,36827,0
1504,36822,0
1516,36817,0
1460,36820,0
1576,36866,0
1632,36826,0
1673,36831,0
1820,36830,0
1952,36823,0
2064,36869,0
2161,36843,0
2233,36832,0
2233,36827,0
2188,36836,0
2092,36862,0
1956,36839,0
1861,36832,0
1768,36846,0
1790,36867,0
1765,36832,0
1776,36834,0
1828,36832,0
1932,36840,0
2096,36834,0
2304,36840,0
2576,36873,0
2866,36841,0
3188,36854,0
3504,36828,0
3807,36842,0
3966,36870,0
3976,36851,0
3968,36850,0
3992,36841,0
3964,36841,0
3976,36879,0
3964,36850,0
3920,36867,0
3832,36835,0
3728,36858,0
3576,36879,0
3440,36861,0
3296,36876,0
3192,36847,0
3098,36852,0
3046,36881,0
3042,36849,0
3024,36895,0
3048,36853,0
3076,36861,0
3104,36867,0
3104,36873,0
3071,36865,0
2996,36869,0
2876,36885,0
2728,36867,0
2548,36894,0
2348,36870,0
2160,36883,0
1977,36860,0
1816,36868,0
1656,36889,0
1576,36871,0
1460,36899,0
1517,36865,0
1504,36864,0
1620,36900,0
1672,36877,0
1824,36888,0
1912,36865,0
2010,36876,0
2000,36885,0
2026,36869,0
2022,36913,0
1946,36876,0
1896,36873,0
1776,36900,0
1630,36869,0
1492,36906,0
1320,36863,0
1242,36873,0
1197,36901,0
1293,36866,0
1329,36871,0
1406,36878,0
1529,36893,0
1652,36905,0
1800,36897,0
1944,36870,0
2082,36882,0
2192,36902,0
2258,36882,0
2288,36901,0
2236,36882,0
2184,36881,0
2044,36905,0
1960,36873,0
1772,36901,0
1668,36879,0
1500,36881,0
1442,36905,0
1360,36878,0
1344,36906,0
1244,36874,0
1307,36886,0
1408,36911,0
1536,36886,0
1744,36911,0
1884,36888,0
2000,36888,0
2108,36909,0
2132,36884,0
2176,36908,0
2162,36880,0
2176,36868,0
2088,36913,0
1973,36902,0
1854,36887,0
1714,36883,0
1593,36869,0
1496,36884,0
1420,36901,0
1392,36893,0
1396,36912,0
1440,36885,0
1531,36884,0
1648,36916,0
1754,36881,0
1940,36925,0
2040,36885,0
2180,36897,0
2242,36904,0
2302,36901,0
2284,36923,0
2244,36898,0
2084,36903,0
1956,36916,0
1828,36897,0
1684,36917,0
1616,36890,0
1513,36889,0
1434,36914,0
1396,36903,0
1338,36928,0
1405,36897,0
1530,36902,0
1748,36866,0
1908,36924,0
2064,36902,0
2220,36901,0
2336,36911,0
2426,36922,0
2460,36898,0
2458,36894,0
2400,36898,0
2308,36897,0
2184,36933,0
2044,36899,0
1908,36899,0
1728,36905,0
1672,36896,0
1560,36937,0
1568,36901,0
1498,36909,0
1608,36910,0
1680,36897,0
1812,36940,0
1856,36916,0
2006,36908,0
2156,36898,0
2264,36908,0
2368,36936,0
2392,36918,0
2374,36919,0
2308,36911,0
2164,36911,0
2048,36947,0
1904,36908,0
1864,36905,0
1746,36933,0
1649,36933,0
1586,36908,0
1560,36924,0
1558,36911,0
1593,36944,0
1690,36913,0
1796,36909,0
1930,36949,0
2044,36912,0
2172,36941,0
2280,36912,0
2320,36913,0
2392,36943,0
2344,36912,0
2328,36924,0
2186,36899,0
2112,36910,0
1968,36942,0
1844,36914,0
1640,36927,0
1514,36895,0
1441,36908,0
1394,36934,0
1465,36908,0
1507,36932,0
1584,36901,0
1698,36910,0
1786,36934,0
1933,36921,0
2088,36920,0
2288,36896,0
2388,36881,0
2432,36924,0
2444,36915,0
2392,36930,0
2312,36896,0
2208,36920,0
2076,36898,0
1948,36929,0
1820,36893,0
1721,36891,0
1634,36908,0
1605,36884,0
1552,36914,0
1656,36877,0
1700,36871,0
1864,36891,0
1946,36861,0
2132,36891,0
2260,36862,0
2384,36857,0
2412,36863,0
2456,36851,0
2449,36877,0
2410,36846,0
2344,36837,0
2214,36869,0
2070,36836,0
1933,36866,0
1760,36824,0
1660,36832,0
1606,36839,0
1660,36817,0
1660,36823,0
1730,36812,0
1832,36803,0
1944,36820,0
2080,36804,0
2216,36833,0
2344,36789,0
2440,36794,0
2524,36787,0
2548,36779,0
2521,36807,0
2468,36776,0
2340,36771,0
2249,36765,0
2074,36771,0
1972,36794,0
1794,36773,0
1732,36772,0
1642,36747,0
1606,36748,0
1518,36773,0
1560,36756,0
1652,36772,0
1764,36744,0
1952,36742,0
2088,36761,0
2205,36742,0
2304,36765,0
2340,36735,0
2416,36737,0
2436,36697,0
2356,36746,0
2252,36742,0
2128,36751,0
2000,36740,0
1885,36717,0
1772,36741,0
1700,36725,0
1660,36742,0
1658,36710,0
1684,36720,0
1744,36718,0
1876,36711,0
1952,36739,0
2124,36706,0
2224,36705,0
2352,36703,0
2408,36704,0
2468,36731,0
2456,36697,0
2356,36708,0
2266,36695,0
2144,36696,0
2004,36730,0
1868,36704,0
1781,36695,0
1670,36682,0
1574,36697,0
1524,36718,0
1448,36686,0
1517,36702,0
1619,36677,0
1828,36697,0
1956,36667,0
2116,36694,0
2264,36703,0
2384,36716,0
2464,36723,0
2512,36701,0
2508,36699,0
2456,36669,0
2360,36696,0
2248,36732,0
2111,36701,0
1968,36710,0
1808,36682,0
1732,36702,0
1596,36734,0
1608,36707,0
1536,36713,0
1632,36696,0
1692,36694,0
1824,36728,0
1876,36705,0
2016,36725,0
2150,36682,0
2276,36706,0
2384,36727,0
2412,36706,0
2404,36740,0
2348,36710,0
2208,36709,0
2106,36726,0
1956,36704,0
1908,36703,0
1788,36722,0
1700,36728,0
1633,36724,0
1584,36726,0
1602,36740,0
1632,36718,0
1712,36723,0
1824,36723,0
1948,36714,0
2092,36745,0
2212,36728,0
2324,36714,0
2362,36714,0
2440,36719,0
2400,36751,0
2392,36723,0
2264,36726,0
2180,36729,0
2052,36717,0
1908,36756,0
1696,36721,0
1578,36724,0
1498,36732,0
1452,36729,0
1496,36747,0
1540,36725,0
1607,36723,0
1709,36722,0
1792,36727,0
1940,36756,0
2090,36729,0
2280,36719,0
2376,36755,0
2426,36751,0
2436,36758,0
2404,36728,0
2324,36731,0
2204,36732,0
2080,36755,0
1940,36727,0
1810,36772,0
1690,36743,0
1588,36744,0
1556,36766,0
1480,36733,0
1572,36764,0
1592,36729,0
1744,36744,0
1832,36771,0
2012,36746,0
2144,36775,0
2248,36738,0
2272,36744,0
2313,36765,0
2322,36754,0
2274,36769,0
2220,36740,0
2104,36742,0
1952,36781,0
1802,36754,0
1608,36775,0
1510,36742,0
1440,36751,0
1500,36764,0
1512,36770,0
1565,36782,0
1656,36735,0
1776,36784,0
1916,36762,0
2072,36784,0
2214,36756,0
2328,36756,0
2400,36778,0
2456,36756,0
2445,36777,0
2400,36760,0
2289,36763,0
2210,36792,0
2040,36759,0
1944,36784,0
1764,36758,0
1712,36760,0
1610,36790,0
1584,36771,0
1497,36795,0
1537,36778,0
1632,36769,0
1744,36800,0
1930,36777,0
2064,36803,0
2204,36779,0
2298,36770,0
2354,36785,0
2412,36775,0
2416,36801,0
2448,36780,0
2380,36800,0
2276,36780,0
2164,36783,0
2032,36784,0
1914,36775,0
1812,36778,0
1732,36807,0
1680,36774,0
1672,36777,0
1700,36791,0
1760,36774,0
1864,36804,0
1936,36783,0
2124,36786,0
2216,36777,0
2364,36783,0
2404,36805,0
2380,36783,0
2480,36791,0
2440,36763,0
2296,36780,0
2176,36809,0
2058,36781,0
1900,36787,0
1816,36765,0
1689,36780,0
1586,36806,0
1524,36788,0
1450,36796,0
1508,36776,0
1584,36782,0
1794,36786,0
1948,36789,0
2090,36814,0
2224,36806,0
2348,36823,0
2436,36791,0
2496,36818,0
2498,36786,0
2460,36795,0
2377,36779,0
2264,36784,0
2120,36808,0
1996,36788,0
1816,36821,0
1772,36790,0
1632,36786,0
1620,36794,0
1576,36775,0
1649,36805,0
1736,36786,0
1840,36792,0
1898,36798,0
2056,36787,0
2188,36822,0
2329,36785,0
2444,36790,0
2500,36818,0
2482,36780,0
2436,36821,0
2316,36790,0
2208,36787,0
2089,36804,0
2032,36789,0
1916,36782,0
1828,36785,0
1746,36806,0
1706,36821,0
1693,36789,0
1728,36781,0
1798,36781,0
1897,36789,0
2010,36812,0
2136,36791,0
2263,36803,0
2376,36767,0
2416,36777,0
2488,36797,0
2464,36784,0
2448,36811,0
2336,36776,0
2256,36781,0
2122,36812,0
1988,36790,0
1786,36810,0
1664,36782,0
1585,36788,0
1532,36807,0
1584,36785,0
1608,36815,0
1676,36775,0
1776,36784,0
1848,36814,0
2010,36789,0
2344,36793,0
2452,36785,0
2508,36809,0
2512,36798,0
2488,36817,0
2412,36784,0
2306,36792,0
2176,36784,0
2047,36788,0
1924,36825,0
1812,36792,0
1712,36803,0
1680,36772,0
1592,36786,0
1684,36824,0
1704,36797,0
1856,36807,0
1920,36777,0
2108,36788,0
2240,36825,0
2296,36801,0
2386,36801,0
2436,36786,0
2456,36795,0
2412,36818,0
2364,36796,0
2244,36805,0
2097,36798,0
1965,36791,0
1772,36820,0
1664,36798,0
1584,36821,0
1625,36793,0
1617,36794,0
1650,36804,0
1700,36805,0
1816,36818,0
1944,36822,0
2072,36783,0
2196,36806,0
2300,36814,0
2384,36807,0
2420,36824,0
2406,36809,0
2384,36812,0
2256,36798,0
2180,36807,0
2000,36828,0
1900,36812,0
1732,36819,0
1656,36802,0
1560,36800,0
1496,36832,0
1376,36806,0
1381,36842,0
1457,36807,0
1544,36815,0
1722,36805,0
1896,36808,0
2061,36851,0
2244,36825,0
2346,36821,0
2516,36805,0
2633,36823,0
2784,36821,0
2858,36817,0
2912,36822,0
2972,36841,0
3016,36832,0
3071,36812,0
3156,36850,0
3244,36820,0
3336,36820,0
3440,36820,0
3546,36819,0
3683,36851,0
3792,36830,0
3904,36831,0
3936,36810,0
3988,36825,0
3952,36859,0
3954,36833,0
3936,36841,0
3904,36821,0
3792,36827,0
3672,36851,0
3474,36826,0
3280,36864,0
3060,36831,0
2868,36836,0
2673,36851,0
2504,36832,0
2365,36861,0
2226,36833,0
2176,36846,0
2176,36852,0
2160,36838,0
2306,36837,0
2360,36835,0
2432,36839,0
2476,36867,0
2492,36820,0
2480,36833,0
2426,36860,0
2336,36845,0
2198,36857,0
2037,36839,0
1861,36840,0
1704,36874,0
1477,36841,0
1404,36876,0
1238,36845,0
1224,36846,0
1130,36850,0
1232,36844,0
1288,36870,0
1414,36841,0
1436,36837,0
1614,36854,0
1762,36847,0
1897,36876,0
2036,36855,0
2097,36855,0
2096,36837,0
2072,36850,0
1940,36877,0
1832,36859,0
1712,36871,0
1663,36860,0
1544,36865,0
1442,36852,0
1368,36860,0
1322,36850,0
1332,36878,0
1370,36853,0
1456,36859,0
1570,36882,0
1701,36860,0
1844,36880,0
1972,36858,0
2108,36867,0
2160,36869,0
2268,36852,0
2244,36888,0
2240,36871,0
2128,36869,0
2064,36841,0
1920,36863,0
1780,36880,0
1560,36864,0
1445,36881,0
1346,36852,0
1308,36868,0
1350,36886,0
1376,36866,0
1446,36895,0
1556,36861,0
1632,36869,0
1778,36863,0
1952,36870,0
2156,36857,0
2264,36899,0
2336,36885,0
2364,36897,0
2336,36870,0
2264,36896,0
2168,36863,0
2028,36891,0
1888,36861,0
1752,36866,0
1632,36893,0
1533,36864,0
1494,36898,0
1402,36869,0
1512,36871,0
1516,36874,0
1668,36871,0
1729,36904,0
1937,36881,0
2047,36879,0
2180,36882,0
2220,36879,0
2277,36897,0
2290,36882,0
2246,36884,0
2201,36866,0
2081,36877,0
1939,36901,0
1793,36879,0
1592,36881,0
1476,36868,0
1400,36884,0
1456,36889,0
1450,36881,0
1512,36879,0
1596,36875,0
1722,36901,0
1864,36878,0
2012,36909,0
2166,36870,0
2280,36872,0
2384,36900,0
2436,36889,0
2448,36899,0
2416,36879,0
2308,36885,0
2236,36889,0
2064,36889,0
1978,36923,0
1760,36885,0
1720,36890,0
1612,36877,0
1572,36893,0
1453,36921,0
1472,36887,0
1552,36890,0
1645,36877,0
1816,36893,0
1944,36916,0
2068,36892,0
2190,36902,0
2224,36878,0
2306,36894,0
2320,36918,0
2364,36896,0
2288,36906,0
2216,36897,0
2090,36908,0
1952,36895,0
1834,36919,0
1732,36890,0
1648,36881,0
1590,36909,0
1576,36897,0
1592,36924,0
1648,36900,0
1772,36896,0
1848,36909,0
2047,36902,0
2145,36920,0
2296,36908,0
2360,36901,0
2450,36906,0
2472,36899,0
2440,36926,0
2312,36889,0
2218,36897,0
2080,36920,0
1940,36905,0
1856,36929,0
1728,36895,0
1632,36898,0
1585,36918,0
1481,36900,0
1528,36923,0
1816,36814,0
1948,36907,0
2108,36879,0
2260,36927,0
2384,36892,0
2480,36888,0
2548,36894,0
2568,36898,0
2528,36888,0
2456,36919,0
2360,36885,0
2227,36888,0
2080,36887,0
1896,36869,0
1728,36909,0
1672,36874,0
1672,36870,0
1584,36871,0
1668,36867,0
1696,36890,0
1714,36856,0
1849,36856,0
1989,36854,0
2138,36851,0
2264,36866,0
2388,36845,0
2440,36835,0
2449,36827,0
2453,36832,0
2308,36851,0
2204,36818,0
2082,36841,0
2024,36747,0
1908,36819,0
1800,36809,0
1717,36825,0
1658,36806,0
1642,36798,0
1666,36822,0
1744,36789,0
1808,36790,0
1942,36817,0
2080,36794,0
2210,36808,0
2332,36787,0
2404,36779,0
2482,36802,0
2476,36773,0
2472,36792,0
2376,36757,0
2292,36758,0
2160,36793,0
2032,36758,0
1824,36777,0
1698,36747,0
1600,36751,0
1544,36764,0
1560,36746,0
1572,36762,0
1624,36741,0
1730,36747,0
1780,36753,0
1936,36739,0
2102,36761,0
2293,36747,0
2398,36706,0
2468,36728,0
2508,36719,0
2488,36725,0
2430,36726,0
2320,36748,0
2192,36721,0
2064,36726,0
1908,36698,0
1780,36713,0
1666,36744,0
1628,36709,0
1544,36723,0
1601,36698,0
1608,36712,0
1752,36739,0
1818,36698,0
2000,36719,0
2128,36697,0
2248,36693,0
2296,36734,0
2369,36695,0
2376,36731,0
2354,36703,0
2300,36693,0
2186,36721,0
2056,36713,0
1916,36724,0
1716,36698,0
1600,36699,0
1520,36711,0
1554,36689,0
1544,36712,0
1584,36712,0
1668,36707,0
1768,36697,0
1824,36709,0
2036,36709,0
2198,36679,0
2306,36706,0
2378,36736,0
2428,36707,0
2463,36721,0
2412,36690,0
2316,36711,0
2234,36713,0
2072,36704,0
1956,36733,0
1772,36708,0
1690,36705,0
1572,36697,0
1520,36709,0
1388,36732,0
1408,36703,0
1464,36714,0
1562,36703,0
1741,36708,0
1860,36741,0
1992,36714,0
2108,36714,0
2160,36716,0
2234,36715,0
2260,36746,0
2296,36723,0
2236,36708,0
2144,36711,0
2038,36726,0
1908,36710,0
1774,36730,0
1648,36721,0
1564,36750,0
1504,36709,0
1482,36730,0
1506,36739,0
1567,36727,0
1658,36751,0
1740,36725,0
1932,36726,0
2020,36742,0
2200,36726,0
2264,36757,0
2354,36731,0
2380,36725,0
2362,36726,0
2236,36724,0
2144,36755,0
2008,36729,0
1868,36734,0
1768,36716,0
1644,36730,0
1545,36768,0
1483,36729,0
1377,36739,0
1394,36727,0
1500,36740,0
1704,36751,0
1840,36759,0
1988,36747,0
2146,36737,0
2288,36722,0
2388,36739,0
2456,36742,0
2484,36769,0
2452,36741,0
2398,36741,0
2297,36745,0
2152,36751,0
2028,36768,0
1844,36743,0
1788,36741,0
1624,36752,0
1606,36758,0
1520,36776,0
1601,36759,0
1644,36746,0
1744,36746,0
1780,36747,0
1942,36786,0
2088,36755,0
2212,36750,0
2352,36756,0
2416,36754,0
2422,36793,0
2404,36759,0
2288,36760,0
2196,36745,0
2076,36757,0
2020,36772,0
1904,36788,0
1804,36769,0
1724,36755,0
1662,36765,0
1642,36786,0
1660,36769,0
1714,36780,0
1808,36749,0
1924,36767,0
2056,36791,0
2208,36772,0
2304,36796,0
2376,36766,0
2464,36779,0
2448,36790,0
2448,36768,0
2360,36791,0
2272,36770,0
2148,36776,0
2008,36800,0
1800,36781,0
1676,36810,0
1576,36771,0
1512,36785,0
1528,36806,0
1529,36785,0
1569,36806,0
1670,36787,0
1728,36781,0
1874,36785,0
2032,36779,0
2232,36776,0
2364,36785,0
2432,36788,0
2470,36784,0
2458,36772,0
2404,36785,0
2314,36805,0
2192,36780,0
2058,36782,0
1921,36759,0
1791,36790,0
1679,36805,0
1617,36780,0
1516,36786,0
1584,36770,0
1592,36779,0
1728,36799,0
1789,36779,0
1972,36774,0
2106,36762,0
2248,36775,0
2288,36802,0
2368,36775,0
2394,36785,0
2380,36761,0
2340,36782,0
2230,36799,0
2091,36781,0
1953,36801,0
1749,36778,0
1624,36773,0
1544,36792,0
1580,36786,0
1562,36787,0
1584,36796,0
1659,36773,0
1760,36803,0
1882,36782,0
2020,36779,0
2156,36791,0
2276,36776,0
2372,36801,0
2432,36781,0
2448,36782,0
2432,36784,0
2336,36767,0
2264,36807,0
2098,36775,0
2000,36776,0
1816,36761,0
1748,36776,0
1648,36803,0
1584,36775,0
1458,36782,0
1472,36756,0
1540,36774,0
1641,36798,0
1818,36773,0
1952,36782,0
2092,36766,0
2236,36761,0
2296,36797,0
2368,36775,0
2458,36774,0
2420,36793,0
2332,36794,0
2216,36788,0
2088,36787,0
1962,36761,0
1834,36771,0
1736,36748,0
1666,36769,0
1626,36795,0
1633,36777,0
1656,36772,0
1760,36748,0
1824,36768,0
2002,36795,0
2112,36763,0
2264,36798,0
2352,36762,0
2434,36763,0
2464,36787,0
2404,36768,0
2338,36788,0
2233,36763,0
2106,36765,0
1961,36773,0
1872,36768,0
1738,36799,0
1620,36765,0
1539,36759,0
1434,36782,0
1468,36784,0
1532,36795,0
1732,36774,0
1850,36769,0
2000,36779,0
2148,36767,0
2272,36774,0
2380,36767,0
2456,36774,0
2496,36796,0
2464,36770,0
2408,36771,0
2312,36771,0
2183,36763,0
2036,36809,0
1856,36773,0
1780,36776,0
1642,36763,0
1620,36777,0
1529,36795,0
1602,36773,0
1636,36792,0
1745,36754,0
1778,36776,0
1924,36797,0
2066,36782,0
2200,36794,0
2332,36764,0
2385,36773,0
2408,36804,0
2389,36789,0
2280,36795,0
2169,36780,0
2054,36780,0
1988,36784,0
1840,36807,0
1726,36798,0
1640,36798,0
1560,36801,0
1528,36810,0
1524,36795,0
1576,36788,0
1642,36775,0
1752,36789,0
1952,36815,0
1985,36797,0
2116,36801,0
2184,36775,0
2292,36791,0
2292,36820,0
2306,36799,0
2200,36807,0
2128,36787,0
1984,36795,0
1864,36833,0
1596,36799,0
1456,36816,0
1328,36785,0
1264,36794,0
1284,36822,0
1312,36794,0
1403,36822,0
1556,36805,0
1700,36801,0
1942,36832,0
2216,36807,0
2548,36828,0
2792,36795,0
3024,36791,0
3220,36827,0
3392,36830,0
3528,36810,0
3602,36813,0
3632,36799,0
3636,36808,0
3612,36845,0
3560,36822,0
3505,36830,0
3440,36808,0
3396,36814,0
3352,36845,0
3316,36816,0
3312,36842,0
3320,36805,0
3344,36824,0
3376,36847,0
3392,36818,0
3392,36853,0
3368,36816,0
3320,36821,0
3234,36855,0
3120,36822,0
2962,36852,0
2784,36815,0
2600,36833,0
2360,36860,0
2184,36836,0
2040,36853,0
1976,36857,0
1908,36856,0
1848,36851,0
1828,36838,0
1850,36858,0
1898,36866,0
1960,36849,0
2044,36864,0
2088,36842,0
2140,36840,0
2144,36867,0
2123,36844,0
2072,36885,0
1940,36852,0
1872,36848,0
1672,36872,0
1570,36852,0
1366,36881,0
1296,36848,0
1176,36850,0
1124,36875,0
980,36854,0
1004,36879,0
1073,36855,0
1181,36852,0
1382,36848,0
1524,36853,0
1670,36877,0
1818,36854,0
1864,36851,0
1946,36872,0
2002,36869,0
2080,36864,0
2122,36842,0
1924,36840,0
1821,36867,0
1680,36882,0
1544,36878,0
1421,36847,0
1312,36860,0
1244,36889,0
1212,36859,0
1216,36864,0
1245,36854,0
1370,36866,0
1428,36898,0
1624,36870,0
1788,36867,0
1920,36855,0
2036,36867,0
2132,36901,0
2164,36878,0
2164,36880,0
2024,36866,0
1924,36875,0
1809,36904,0
1664,36876,0
1558,36875,0
1430,36862,0
1316,36866,0
1232,36898,0
1120,36876,0
1131,36892,0
1210,36872,0
1424,36905,0
1572,36900,0
1720,36891,0
1892,36887,0
2032,36887,0
2150,36911,0
2244,36878,0
2298,36907,0
2288,36892,0
2229,36884,0
2138,36909,0
2004,36882,0
1880,36921,0
1692,36889,0
1630,36890,0
1464,36915,0
1446,36891,0
1356,36907,0
1412,36885,0
1468,36901,0
1576,36926,0
1600,36901,0
1752,36919,0
1909,36890,0
2064,36894,0
2204,36922,0
2298,36905,0
2312,36925,0
2313,36898,0
2208,36897,0
2122,36926,0
2010,36905,0
1960,36919,0
1844,36906,0
1736,36916,0
1640,36912,0
1576,36937,0
1552,36912,0
1562,36913,0
1606,36889,0
1712,36901,0
1842,36940,0
1944,36901,0
2083,36932,0
2212,36904,0
2275,36918,0
2377,36926,0
2378,36920,0
2392,36947,0
2292,36916,0
2234,36910,0
2096,36930,0
1964,36909,0
1748,36948,0
1620,36918,0
1498,36911,0
1432,36929,0
1432,36911,0
1434,36948,0
1467,36920,0
1546,36920,0
1600,36917,0
1744,36927,0
2136,36909,0
2238,36943,0
2328,36922,0
2372,36949,0
2368,36948,0
2316,36928,0
2224,36910,0
2116,36914,0
1964,36946,0
1828,36923,0
1696,36934,0
1578,36907,0
1516,36918,0
1408,36960,0
1478,36926,0
1476,36933,0
1625,36914,0
1692,36927,0
1904,36948,0
2028,36922,0
2104,36940,0
2234,36915,0
2320,36928,0
2372,36942,0
2380,36929,0
2360,36942,0
2268,36919,0
2146,36922,0
2008,36954,0
1826,36924,0
1704,36944,0
1608,36918,0
1654,36909,0
1640,36897,0
1652,36929,0
1717,36922,0
1820,36943,0
1937,36946,0
2082,36910,0
2234,36926,0
2376,36894,0
2492,36899,0
2568,36932,0
2608,36905,0
2616,36901,0
2536,36883,0
2468,36884,0
2344,36911,0
2233,36885,0
2064,36908,0
1980,36872,0
1864,36877,0
1796,36896,0
1692,36858,0
1668,36882,0
1715,36859,0
1794,36855,0
1940,36841,0
2068,36852,0
2188,36860,0
2337,36839,0
2372,36827,0
2480,36813,0
2512,36815,0
2568,36812,0
2524,36816,0
2448,36790,0
2344,36824,0
2204,36809,0
2074,36803,0
1948,36805,0
1842,36768,0
1772,36786,0
1714,36804,0
1708,36774,0
1727,36776,0
1804,36754,0
1856,36767,0
2016,36792,0
2104,36764,0
2272,36769,0
2328,36734,0
2428,36746,0
2456,36767,0
2456,36741,0
2352,36758,0
2260,36729,0
2144,36730,0
2010,36752,0
1910,36728,0
1764,36758,0
1648,36723,0
1564,36713,0
1448,36743,0
1472,36713,0
1522,36732,0
1716,36711,0
1836,36717,0
1984,36717,0
2128,36717,0
2268,36713,0
2396,36715,0
2476,36700,0
2516,36728,0
2508,36687,0
2466,36686,0
2372,36694,0
2248,36685,0
2120,36719,0
1932,36684,0
1852,36692,0
1704,36654,0
1672,36672,0
1572,36712,0
1625,36677,0
1658,36697,0
1752,36681,0
1793,36680,0
1922,36701,0
2072,36666,0
2212,36694,0
2360,36648,0
2433,36666,0
2468,36690,0
2452,36666,0
2372,36686,0
2292,36658,0
2186,36661,0
2128,36669,0
1996,36673,0
1892,36686,0
1778,36642,0
1724,36652,0
1696,36679,0
1690,36682,0
1736,36656,0
1809,36667,0
1925,36696,0
2040,36676,0
2164,36693,0
2308,36660,0
2376,36674,0
2480,36704,0
2482,36664,0
2508,36699,0
2440,36677,0
2372,36676,0
2248,36673,0
2106,36668,0
1898,36704,0
1770,36666,0
1666,36667,0
1574,36691,0
1578,36675,0
1565,36708,0
1596,36688,0
1672,36677,0
1720,36676,0
1872,36674,0
2036,36712,0
2248,36698,0
2364,36680,0
2464,36687,0
2520,36682,0
2512,36652,0
2488,36682,0
2408,36713,0
2280,36689,0
2148,36691,0
2009,36677,0
1884,36688,0
1767,36726,0
1692,36699,0
1592,36714,0
1640,36687,0
1632,36689,0
1756,36695,0
1816,36699,0
1984,36728,0
2112,36695,0
2256,36703,0
2306,36703,0
2400,36691,0
2440,36724,0
2424,36706,0
2412,36708,0
2312,36686,0
2196,36708,0
2048,36734,0
1864,36708,0
1746,36712,0
1636,36693,0
1680,36737,0
1632,36706,0
1636,36707,0
1692,36708,0
1772,36713,0
1890,36743,0
2024,36718,0
2156,36722,0
2276,36702,0
2386,36710,0
2456,36740,0
2492,36721,0
2492,36728,0
2408,36700,0
2352,36727,0
2208,36739,0
2096,36713,0
1908,36733,0
1825,36715,0
1704,36713,0
1636,36746,0
1498,36729,0
1492,36750,0
1536,36718,0
1633,36724,0
1796,36749,0
1908,36729,0
2050,36751,0
2188,36726,0
2258,36731,0
2358,36745,0
2424,36719,0
2472,36732,0
2444,36736,0
2356,36745,0
2252,36757,0
2124,36738,0
1994,36770,0
1852,36741,0
1756,36747,0
1672,36731,0
1620,36751,0
1640,36774,0
1629,36754,0
1718,36751,0
1776,36733,0
1964,36761,0
2068,36770,0
2240,36749,0
2324,36789,0
2430,36757,0
2484,36753,0
2480,36756,0
2400,36756,0
2309,36792,0
2192,36760,0
2049,36745,0
1961,36752,0
1810,36759,0
1694,36789,0
1604,36762,0
1480,36767,0
1492,36753,0
1724,36757,0
1992,36788,0
1849,36765,0
1721,36765,0
1610,36765,0
1521,36765,0
1464,36765,0
1461,36765,0
1504,36765,0
1586,36779,0
1696,36779,0
1834,36779,0
1980,36779,0
2114,36779,0
2240,36779,0
2320,36779,0
2368,36766,0
2372,36766,0
2330,36766,0
2256,36766,0
2144,36766,0
1992,36766,0
1852,36766,0
1720,36759,0
1624,36784,0
1538,36784,0
1540,36784,0
1553,36784,0
1574,36784,0
1640,36784,0
1696,36767,0
1852,36762,0
2024,36762,0
2236,36775,0
2372,36742,0
2472,36762,0
2536,36790,0
2548,36767,0
2520,36785,0
2436,36763,0
2328,36765,0
2196,36787,0
2053,36757,0
1912,36795,0
1785,36764,0
1720,36759,0
1604,36791,0
1648,36765,0
1636,36792,0
1756,36770,0
1816,36766,0
1980,36794,0
2112,36752,0
2148,36789,0
2312,36763,0
2400,36764,0
2440,36765,0
2442,36764,0
2426,36790,0
2332,36768,0
1620,36795,0
1578,36791,0
1576,36785,0
1612,36772,0
1696,36761,0
1800,36800,0
1936,36780,0
2070,36797,0
2192,36776,0
2310,36772,0
2394,36805,0
2427,36777,0
2426,36805,0
2356,36773,0
2280,36772,0
2152,36788,0
2052,36785,0
1836,36804,0
1685,36782,0
1576,36781,0
1489,36783,0
1445,36775,0
1428,36808,0
1464,36788,0
1552,36786,0
1734,36780,0
1846,36782,0
1969,36818,0
2096,36794,0
2160,36791,0
2264,36773,0
2306,36793,0
2384,36785,0
2344,36796,0
2265,36805,0
2152,36793,0
2020,36799,0
1880,36822,0
1738,36795,0
1616,36829,0
1496,36796,0
1457,36796,0
1440,36818,0
1454,36802,0
1548,36822,0
1592,36796,0
1786,36802,0
1880,36823,0
2064,36802,0
2156,36835,0
2244,36812,0
2272,36813,0
2266,36822,0
2144,36816,0
2056,36842,0
1941,36821,0
1830,36828,0
1768,36801,0
1688,36812,0
1644,36855,0
1664,36818,0
1653,36838,0
1796,36808,0
1988,36816,0
2300,36852,0
2594,36833,0
2904,36851,0
3252,36847,0
3582,36835,0
3892,36829,0
3966,36830,0
3980,36826,0
3964,36862,0
3968,36841,0
3964,36828,0
3968,36824,0
3944,36827,0
3924,36872,0
3840,36836,0
3728,36840,0
3592,36845,0
3472,36851,0
3344,36864,0
3240,36847,0
3170,36844,0
3112,36831,0
3093,36837,0
3092,36872,0
3104,36845,0
3128,36864,0
3098,36832,0
3052,36844,0
2969,36863,0
2832,36851,0
2690,36873,0
2518,36848,0
2380,36838,0
2192,36847,0
2005,36828,0
1852,36870,0
1665,36850,0
1606,36851,0
1516,36888,0
1484,36853,0
1498,36876,0
1548,36858,0
1632,36852,0
1725,36889,0
1828,36862,0
1886,36890,0
1988,36857,0
1986,36868,0
2024,36898,0
1937,36871,0
1900,36898,0
1768,36855,0
1660,36878,0
1436,36902,0
1296,36871,0
1188,36890,0
1116,36863,0
1121,36858,0
1118,36895,0
1157,36868,0
1241,36877,0
1284,36855,0
1432,36869,0
1620,36903,0
1872,36888,0
2014,36874,0
2136,36886,0
2212,36877,0
2240,36887,0
2212,36875,0
2136,36909,0
2032,36885,0
1896,36882,0
1754,36891,0
1616,36879,0
1483,36917,0
1412,36879,0
1280,36883,0
1332,36902,0
1312,36887,0
1440,36920,0
1496,36891,0
1688,36895,0
1818,36885,0
1980,36891,0
2040,36917,0
2146,36890,0
2204,36901,0
2224,36878,0
2224,36881,0
2139,36918,0
2004,36897,0
1861,36898,0
1656,36885,0
1513,36899,0
1420,36921,0
1368,36911,0
1364,36891,0
1396,36925,0
1476,36919,0
1588,36888,0
1716,36899,0
1864,36937,0
2004,36903,0
2138,36937,0
2220,36905,0
2272,36916,0
2280,36919,0
2228,36912,0
2180,36942,0
2032,36913,0
1952,36914,0
1776,36919,0
1686,36906,0
1562,36938,0
1400,36920,0
1349,36916,0
1338,36902,0
1380,36917,0
1472,36943,0
1634,36921,0
1760,36928,0
1896,36905,0
2037,36918,0
2112,36956,0
2222,36915,0
2289,36945,0
2264,36938,0
2356,36924,0
2288,36919,0
2192,36948,0
2074,36944,0
1942,36951,0
1816,36928,0
1696,36933,0
1602,36899,0
1552,36937,0
1520,36952,0
1541,36922,0
1608,36939,0
1654,36915,0
1832,36936,0
1920,36964,0
2104,36932,0
2184,36953,0
2308,36921,0
2340,36935,0
2376,36966,0
2288,36928,0
2208,36963,0
2089,36941,0
1952,36947,0
1857,36946,0
1720,36934,0
1578,36975,0
1473,36947,0
1368,36938,0
1349,36938,0
1386,36937,0
1588,36938,0
1698,36944,0
1852,36950,0
2006,36957,0
2164,36957,0
2301,36938,0
2416,36970,0
2464,36943,0
2488,36950,0
2464,36975,0
2388,36949,0
2275,36955,0
2160,36941,0
1970,36940,0
1876,36972,0
1728,36941,0
1668,36972,0
1564,36946,0
1590,36946,0
1612,36968,0
1684,36947,0
1696,36990,0
1830,36955,0
1988,36949,0
2128,36952,0
2288,36938,0
2384,36989,0
2420,36949,0
2434,36953,0
2368,36925,0
2294,36935,0
2208,36969,0
2130,36930,0
2024,36946,0
1904,36947,0
1804,36943,0
1716,36961,0
1672,36955,0
1648,36932,0
1680,36931,0
1738,36940,0
1840,36920,0
1956,36947,0
2098,36922,0
2232,36914,0
2336,36916,0
2456,36905,0
2500,36932,0
2530,36904,0
2496,36900,0
2448,36904,0
2344,36888,0
2234,36901,0
2028,36879,0
1904,36874,0
1784,36865,0
1698,36860,0
1680,36889,0
1648,36855,0
1656,36846,0
1725,36839,0
1736,36852,0
1864,36865,0
2028,36844,0
2226,36842,0
2354,36827,0
2448,36824,0
2510,36821,0
2532,36824,0
2508,36787,0
2442,36804,0
2325,36832,0
2204,36797,0
2069,36813,0
1936,36780,0
1789,36785,0
1721,36801,0
1612,36784,0
1640,36808,0
1612,36779,0
1724,36770,0
1776,36785,0
1936,36768,0
2068,36789,0
2208,36770,0
2272,36764,0
2368,36752,0
2420,36753,0
2440,36781,0
2428,36748,0
2352,36746,0
2217,36737,0
2083,36739,0
1888,36772,0
1737,36742,0
1625,36742,0
1628,36727,0
1580,36738,0
1568,36741,0
1600,36746,0
1666,36755,0
1776,36739,0
1900,36725,0
2040,36706,0
2176,36718,0
2308,36748,0
2408,36718,0
2471,36718,0
2496,36703,0
2436,36721,0
2384,36744,0
2248,36724,0
2160,36732,0
1972,36704,0
1876,36716,0
1744,36744,0
1664,36716,0
1494,36728,0
1472,36708,0
1468,36705,0
1532,36750,0
1673,36728,0
1782,36721,0
1904,36704,0
2032,36708,0
2120,36739,0
2224,36705,0
2306,36736,0
2404,36722,0
2392,36711,0
2338,36711,0
2260,36703,0
2148,36712,0
2038,36721,0
1904,36710,0
1791,36742,0
1704,36713,0
1636,36723,0
1584,36714,0
1605,36712,0
1682,36751,0
1720,36722,0
1896,36714,0
1994,36741,0
2162,36720,0
2240,36748,0
2360,36724,0
2416,36719,0
2440,36725,0
2360,36723,0
2280,36756,0
2164,36725,0
2032,36734,0
1924,36729,0
1786,36726,0
1648,36755,0
1578,36732,0
1428,36724,0
1413,36740,0
1446,36735,0
1624,36732,0
1742,36730,0
1876,36742,0
2036,36738,0
2180,36731,0
2312,36759,0
2424,36729,0
2480,36733,0
2508,36762,0
2472,36727,0
2402,36769,0
2275,36733,0
2176,36743,0
1976,36758,0
1884,36738,0
1712,36770,0
1660,36742,0
1546,36744,0
1560,36767,0
1560,36750,0
1634,36780,0
1636,36741,0
1748,36756,0
1891,36767,0
2036,36748,0
2208,36782,0
2290,36742,0
2352,36755,0
2377,36756,0
2308,36759,0
2248,36785,0
2160,36754,0
2116,36753,0
1992,36770,0
1876,36735,0
1764,36766,0
1680,36765,0
1620,36799,0
1600,36754,0
1672,36756,0
1681,36772,0
1768,36757,0
1889,36797,0
2011,36765,0
2160,36774,0
2248,36785,0
2378,36756,0
2404,36796,0
2450,36766,0
2380,36762,0
2352,36791,0
2241,36776,0
2144,36799,0
1920,36772,0
1792,36767,0
1658,36800,0
1556,36782,0
1540,36812,0
1498,36781,0
1500,36781,0
1565,36808,0
1594,36784,0
1728,36797,0
2120,36829,0
2256,36818,0
2376,36811,0
2440,36818,0
2472,36796,0
2456,36801,0
2400,36776,0
2303,36800,0
2176,36826,0
2042,36805,0
1908,36818,0
1770,36795,0
1688,36787,0
1548,36827,0
1576,36806,0
1532,36821,0
1646,36788,0
1676,36805,0
1850,36833,0
1964,36810,0
2056,36823,0
2186,36793,0
2284,36802,0
2374,36826,0
2396,36810,0
2392,36837,0
2325,36824,0
2204,36806,0
2072,36822,0
1892,36814,0
1748,36851,0
1634,36824,0
1636,36829,0
1584,36825,0
1560,36836,0
1592,36848,0
1652,36837,0
1754,36819,0
1864,36825,0
2016,36821,0
2140,36849,0
2272,36819,0
2368,36813,0
2420,36820,0
2466,36820,0
2410,36860,0
2388,36822,0
2248,36821,0
2146,36819,0
1977,36819,0
1874,36856,0
1744,36834,0
1665,36820,0
1496,36823,0
1458,36823,0
1482,36842,0
1544,36814,0
1682,36827,0
1804,36807,0
1931,36822,0
2065,36846,0
2160,36828,0
2272,36836,0
2360,36812,0
2448,36815,0
2456,36832,0
2392,36818,0
2300,36843,0
2200,36850,0
2076,36824,0
1956,36817,0
1841,36817,0
1752,36822,0
1698,36852,0
1661,36817,0
1668,36828,0
1720,36800,0
1762,36822,0
1928,36847,0
2018,36811,0
2192,36841,0
2273,36817,0
2416,36821,0
2468,36852,0
2512,36825,0
2448,36836,0
2384,36807,0
2304,36825,0
2185,36844,0
2076,36812,0
1940,36846,0
1819,36815,0
1726,36821,0
1604,36817,0
1584,36818,0
1616,36849,0
1778,36828,0
1872,36818,0
2004,36818,0
2138,36835,0
2272,36833,0
2400,36846,0
2484,36821,0
2544,36820,0
2548,36832,0
2508,36813,0
2434,36847,0
2308,36817,0
2176,36809,0
1978,36829,0
1878,36821,0
1696,36852,0
1628,36813,0
1504,36829,0
1510,36840,0
1508,36826,0
1573,36837,0
1580,36822,0
1710,36809,0
1857,36842,0
2024,36825,0
2186,36838,0
2298,36826,0
2368,36826,0
2386,36827,0
2352,36830,0
2288,36865,0
2204,36827,0
2160,36817,0
2042,36832,0
1936,36847,0
1824,36840,0
1730,36790,0
1672,36824,0
1648,36831,0
1662,36859,0
1720,36834,0
1812,36868,0
1928,36829,0
2036,36830,0
2202,36850,0
2298,36830,0
2425,36861,0
2480,36850,0
2532,36843,0
2496,36825,0
2464,36837,0
2360,36869,0
2248,36836,0
2048,36841,0
1904,36823,0
1768,36833,0
1666,36880,0
1624,36847,0
1592,36854,0
1574,36830,0
1617,36847,0
1632,36863,0
1764,36847,0
1920,36877,0
2132,36881,0
1936,36873,0
2000,36892,0
2121,36917,0
2297,36903,0
2537,36922,0
2816,36882,0
3120,36895,0
3432,36909,0
3736,36906,0
3968,36931,0
3988,36901,0
4000,36899,0
3988,36926,0
3992,36909,0
3992,36942,0
3976,36899,0
3940,36907,0
3840,36916,0
3704,36903,0
3545,36939,0
3369,36912,0
3208,36902,0
3060,36905,0
2960,36914,0
2896,36936,0
2866,36917,0
2856,36919,0
2868,36904,0
2960,36913,0
2912,36952,0
2912,36928,0
2924,36923,0
2912,36938,0
2832,36938,0
2720,36938,0
2572,36938,0
2396,36938,0
2212,36938,0
2018,36967,0
1840,36930,0
1676,36930,0
1534,36930,0
1442,36930,0
1372,36930,0
1388,36930,0
1380,36963,0
1500,36940,0
1562,36940,0
1728,36940,0
1785,36940,0
1929,36940,0
2000,36940,0
2064,36940,0
1968,36916,0
1926,36916,0
1840,36916,0
1724,36916,0
1628,36916,0
1495,36916,0
1365,36916,0
1262,36948,0
1121,36948,0
1098,36948,0
1320,36971,0
1429,36954,0
1564,36967,0
1720,36941,0
1888,36943,0
2026,36976,0
2144,36957,0
2224,36974,0
2272,36945,0
2256,36951,0
2200,36977,0
2103,36955,0
1984,36982,0
1796,36956,0
1704,36959,0
1536,36969,0
1484,36958,0
1356,36986,0
1380,36958,0
1380,36953,0
1344,36953,0
1461,36967,0
1594,37000,0
1750,36957,0
1910,36967,0
2096,36955,0
2208,36960,0
2122,36969,0
1949,36960,0
1834,36976,0
1700,36966,0
1594,36952,0
1520,36960,0
1478,36997,0
1476,36977,0
1512,37000,0
1600,36963,0
1704,36971,0
1830,36997,0
1980,36979,0
2072,36997,0
2226,36966,0
2264,36972,0
2338,36995,0
2280,36972,0
2224,37007,0
2134,36976,0
2016,36986,0
1882,36982,0
1744,36977,0
1608,37016,0
1490,36989,0
1482,36980,0
1443,36984,0
1444,36981,0
1493,37011,0
1530,36988,0
1669,36985,0
1813,36974,0
2056,36979,0
2210,36995,0
2336,37014,0
2584,36955,0
2468,37009,0
2468,37000,0
2408,37013,0
2324,36990,0
2196,37000,0
2052,37023,0
1912,37000,0
1770,37022,0
1672,36993,0
1545,37004,0
1552,37039,0
1504,36998,0
1602,37028,0
1640,37002,0
1801,37007,0
1932,37025,0
2080,37007,0
2160,37034,0
2278,37000,0
2345,37011,0
2378,37034,0
2420,37004,0
2352,37028,0
2248,37016,0
2120,37008,0
1936,37010,0
1792,37001,0
1664,37039,0
1662,37009,0
1588,37001,0
1552,37012,0
1569,37006,0
1618,37019,0
1717,37011,0
1829,37009,0
1968,37029,0
2104,37019,0
2258,37042,0
2344,37017,0
2427,37018,0
2472,37020,0
2428,37022,0
2402,37037,0
2288,37020,0
2192,37009,0
2012,37027,0
1912,37029,0
1768,37046,0
1676,37027,0
1516,37019,0
1460,37034,0
1474,37021,0
1524,37049,0
1653,37020,0
1776,37008,0
1900,37032,0
2036,37022,0
2128,37049,0
2248,37017,0
2342,37022,0
2456,37017,0
2462,37029,0
2420,36997,0
2336,37007,0
2232,37005,0
2108,37031,0
1970,37000,0
1844,36997,0
1738,37027,0
1670,37001,0
1620,37014,0
1612,36983,0
1660,36983,0
1696,37002,0
1856,36972,0
1952,37000,0
2132,36967,0
2226,36973,0
2376,36975,0
2448,36958,0
2492,36995,0
2448,36954,0
2394,36942,0
2320,36932,0
2180,36929,0
2096,36960,0
1939,36926,0
1801,36922,0
1686,36903,0
1544,36898,0
1510,36927,0
1536,36892,0
1672,36866,0
1772,36905,0
1896,36882,0
2040,36880,0
2186,36869,0
2326,36865,0
2440,36889,0
2524,36859,0
2568,36887,0
2548,36859,0
2492,36838,0
2404,36852,0
2292,36841,0
2096,36869,0
1996,36835,0
1828,36836,0
1760,36823,0
1628,36813,0
1640,36856,0
1618,36829,0
1681,36817,0
1664,36816,0
1782,36802,0
1916,36836,0
2064,36804,0
2240,36793,0
2348,36782,0
2416,36793,0
2452,36817,0
2410,36789,0
2369,36782,0
2292,36762,0
2242,36808,0
2116,36805,0
1976,36798,0
1850,36808,0
1744,36791,0
1664,36771,0
1604,36787,0
1596,36769,0
1628,36790,0
1688,36779,0
1800,36763,0
1930,36785,0
2058,36768,0
2160,36784,0
2316,36766,0
2372,36760,0
2460,36791,0
2432,36756,0
2412,36780,0
2344,36750,0
2232,36758,0
2052,36775,0
1920,36754,0
1794,36780,0
1680,36748,0
1648,36754,0
1600,36762,0
1582,36750,0
1593,36778,0
1616,36758,0
1720,36747,0
1856,36745,0
2076,36749,0
2212,36756,0
2324,36767,0
2412,36748,0
2448,36775,0
2442,36750,0
2392,36753,0
2302,36776,0
2180,36748,0
2053,36790,0
1910,36750,0
1766,36752,0
1666,36786,0
1528,36760,0
1538,36786,0
1480,36756,0
1582,36757,0
1652,36766,0
1770,36756,0
1916,36785,0
2058,36765,0
2116,36762,0
2240,36745,0
2328,36761,0
2389,36809,0
2416,36770,0
2368,36773,0
2272,36751,0
2145,36768,0
1960,36800,0
1820,36769,0
1676,36780,0
1606,36779,0
1584,36786,0
1586,36797,0
1618,36803,0
1721,36770,0
1824,36801,0
1966,36780,0
2106,36804,0
2256,36782,0
2358,36787,0
2443,36783,0
2496,36781,0
2476,36812,0
2464,36779,0
2344,36790,0
2266,36791,0
2112,36793,0
2004,36811,0
1868,36787,0
1684,36791,0
1600,36771,0
1548,36793,0
1540,36818,0
1577,36793,0
1702,36795,0
1786,36779,0
1917,36791,0
2052,36809,0
2136,36801,0
2256,36806,0
2362,36793,0
2458,36780,0
2468,36765,0
2448,36818,0
2362,36807,0
2252,36812,0
2130,36799,0
2000,36821,0
1868,36810,0
1760,36836,0
1677,36806,0
1624,36809,0
1613,36825,0
1650,36809,0
1688,36829,0
1826,36813,0
1906,36814,0
2081,36807,0
2184,36803,0
2320,36841,0
2400,36807,0
2456,36813,0
2392,36803,0
2356,36812,0
2260,36836,0
2136,36814,0
2037,36819,0
1896,36809,0
1752,36813,0
1633,36844,0
1481,36823,0
1444,36843,0
1437,36822,0
1594,36820,0
1682,36835,0
1796,36831,0
1941,36840,0
2092,36841,0
2224,36827,0
2348,36844,0
2433,36821,0
2648,36824,0
2484,36866,0
2440,36840,0
2347,36843,0
2236,36825,0
2058,36839,0
1960,36861,0
1792,36832,0
1724,36853,0
1592,36829,0
1604,36852,0
1584,36870,0
1640,36843,0
1640,36871,0
1746,36847,0
1904,36847,0
2048,36866,0
2224,36844,0
2336,36876,0
2416,36849,0
2452,36850,0
2418,36859,0
2384,36845,0
2306,36885,0
2268,36846,0
2141,36865,0
2040,36853,0
1920,36857,0
1804,36846,0
1736,36836,0
1688,36846,0
1684,36881,0
1718,36849,0
1794,36866,0
1898,36850,0
2016,36856,0
2160,36881,0
2266,36858,0
2408,36874,0
2460,36848,0
2536,36860,0
2512,36887,0
2496,36860,0
2416,36870,0
2308,36859,0
2114,36850,0
1976,36870,0
1849,36861,0
1728,36889,0
1688,36856,0
1634,36859,0
1618,36872,0
1632,36864,0
1656,36884,0
1770,36858,0
1906,36859,0
2132,36852,0
2276,36857,0
2400,36855,0
2488,36848,0
2540,36862,0
2552,36882,0
2512,36838,0
2432,36854,0
2312,36874,0
2172,36857,0
2046,36890,0
1907,36858,0
1804,36861,0
1660,36849,0
1664,36852,0
1594,36873,0
1672,36849,0
1696,36865,0
1840,36847,0
1954,36851,0
2100,36882,0
2160,36867,0
2290,36869,0
2368,36834,0
2434,36854,0
2456,36879,0
2416,36856,0
2316,36873,0
2197,36839,0
2018,36852,0
1894,36875,0
1776,36851,0
1748,36878,0
1696,36879,0
1652,36864,0
1656,36851,0
1698,36862,0
1781,36868,0
1888,36843,0
2008,36853,0
2148,36885,0
2280,36844,0
2392,36877,0
2453,36856,0
2498,36858,0
2464,36879,0
2440,36858,0
2324,36888,0
2248,36854,0
2064,36858,0
1964,36881,0
1832,36850,0
1724,36893,0
1544,36863,0
1488,36863,0
1475,36879,0
1512,36861,0
1637,36895,0
1728,36854,0
1844,36863,0
2008,36866,0
2060,36858,0
2192,36896,0
2286,36871,0
2404,36863,0
2408,36877,0
2408,36891,0
2332,36900,0
2228,36896,0
2120,36867,0
1978,36884,0
1852,36874,0
1756,36904,0
1650,36860,0
1584,36869,0
1562,36889,0
1616,36866,0
1636,36902,0
1784,36876,0
1857,36877,0
2056,36891,0
2144,36877,0
2300,36905,0
2368,36881,0
2426,36879,0
2377,36892,0
2357,36881,0
2273,36911,0
2154,36884,0
2058,36886,0
1925,36890,0
1770,36885,0
1680,36920,0
1506,36886,0
1453,36889,0
1460,36910,0
1604,36902,0
1690,36901,0
1812,36918,0
1952,36868,0
2088,36919,0
2236,36895,0
2360,36894,0
2434,36926,0
2474,36905,0
2480,36914,0
2424,36898,0
2301,36902,0
2192,36929,0
2004,36900,0
1892,36934,0
1704,36909,0
1628,36914,0
1488,36926,0
1489,36908,0
1472,36941,0
1520,36913,0
1505,36917,0
1620,36917,0
1744,36920,0
1912,36946,0
2044,36912,0
2145,36931,0
2200,36920,0
2240,36917,0
2200,36945,0
2177,36925,0
2144,36971,0
2092,36925,0
2047,36926,0
2024,36928,0
2036,36957,0
2074,36929,0
2164,36969,0
2308,36937,0
2508,36948,0
2760,36927,0
3032,36939,0
3325,36950,0
3616,36938,0
3888,36972,0
3968,36939,0
3976,36951,0
3968,36928,0
3984,36949,0
3972,36978,0
3960,36960,0
3952,36949,0
3848,36928,0
3712,36949,0
3544,36984,0
3364,36946,0
3188,36962,0
3028,36933,0
2884,36961,0
2792,36999,0
2698,36970,0
2696,36973,0
2716,36950,0
2792,36971,0
2844,36986,0
2864,36934,0
2892,36968,0
2888,36974,0
2814,36960,0
2696,36967,0
2552,36991,0
2384,36975,0
2200,36989,0
2002,36984,0
1794,36966,0
1634,36996,0
1432,36981,0
1388,37001,0
1272,36977,0
1328,36974,0
1288,36987,0
1416,36972,0
1514,37005,0
1642,36977,0
1720,36990,0
1810,36963,0
1910,36980,0
1984,37008,0
2018,36991,0
1980,37008,0
1896,36973,0
1778,36989,0
1588,37009,0
1450,36990,0
1324,37021,0
1324,36985,0
1248,36980,0
1210,36993,0
1216,36992,0
1253,37006,0
1339,37023,0
1452,36995,0
1592,37001,0
1748,36990,0
1890,37000,0
2016,37023,0
2106,37008,0
2172,36999,0
2148,36985,0
2152,36996,0
2046,37026,0
1964,36997,0
1800,37026,0
1706,37001,0
1546,36993,0
1440,37020,0
1248,37014,0
1200,37037,0
1188,37011,0
1220,36994,0
1365,37011,0
1476,36997,0
1602,37036,0
1760,37001,0
1850,37014,0
1992,37015,0
2112,37017,0
2248,37010,0
2281,37035,0
2256,37034,0
2196,37030,0
2068,37035,0
1956,36998,0
1816,37018,0
1652,37042,0
1544,37014,0
1461,37047,0
1396,37017,0
1357,37019,0
1378,37044,0
1396,37020,0
1562,37052,0
1640,37022,0
1836,37026,0
1940,37051,0
2104,37032,0
2202,37040,0
2264,37024,0
2232,37032,0
2204,37049,0
2121,37029,0
2008,37056,0
1920,37036,0
1772,37022,0
1622,37035,0
1492,37034,0
1332,37071,0
1284,37027,0
1280,37038,0
1430,37045,0
1489,37046,0
1640,37059,0
1780,37046,0
1932,37051,0
2097,37042,0
2224,37045,0
2328,37023,0
2384,37042,0
2408,37080,0
2384,37045,0
2284,37047,0
2192,37025,0
2012,37045,0
1913,37070,0
1744,37050,0
1660,37073,0
1508,37051,0
1500,37042,0
1466,37058,0
1500,37063,0
1473,37085,0
1573,37059,0
1720,37062,0
1874,37042,0
2054,37060,0
2181,37088,0
2262,37068,0
2320,37087,0
2288,37059,0
2260,37062,0
2208,37078,0
2160,37085,0
2046,37077,0
1920,37066,0
1784,37070,0
1682,37083,0
1586,37073,0
1528,37071,0
1500,37074,0
1528,37081,0
1580,37110,0
1676,37080,0
1771,37068,0
1920,37089,0
2017,37069,0
2176,37107,0
2240,37072,0
2324,37076,0
2312,37059,0
2312,37077,0
2240,37108,0
2128,37081,0
1941,37070,0
1802,37066,0
1660,37074,0
1544,37101,0
1512,37090,0
1434,37089,0
1408,37070,0
1428,37079,0
1432,37111,0
1553,37079,0
1696,37101,0
1946,37089,0
2102,37084,0
2236,37076,0
2348,37075,0
2420,37082,0
2456,37077,0
2426,37076,0
2372,37111,0
2264,37073,0
2133,37088,0
1988,37066,0
1843,37077,0
1733,37104,0
1576,37063,0
1570,37087,0
1492,37060,0
1572,37064,0
1574,37081,0
1736,37053,0
1836,37082,0
1994,37038,0
2074,37053,0
2208,37075,0
2308,37049,0
2376,37059,0
2418,37020,0
2384,37029,0
2301,37051,0
2184,37017,0
2004,37036,0
1856,37004,0
1718,37006,0
1700,37004,0
1624,37012,0
1556,36988,0
1546,36996,0
1568,37010,0
1636,36970,0
1738,36984,0
1862,36939,0
2008,36954,0
2144,36974,0
2257,36942,0
2352,36964,0
2416,36933,0
2408,36924,0
2408,36953,0
2306,36918,0
2240,36944,0
2069,36908,0
1984,36900,0
1845,36924,0
1736,36892,0
1560,36921,0
1504,36875,0
1472,36888,0
1499,36886,0
1617,36882,0
1709,36899,0
1818,36879,0
1988,36859,0
2050,36874,0
2196,36846,0
2436,36812,0
2464,36846,0
2448,36865,0
2382,36863,0
2300,36864,0
2172,36856,0
2032,36834,0
1908,36856,0
1780,36835,0
1686,36819,0
1620,36838,0
1568,36824,0
1601,36857,0
1605,36821,0
1754,36809,0
1842,36816,0
2016,36813,0
2128,36842,0
2280,36810,0
2372,36810,0
2392,36792,0
2420,36806,0
2412,36834,0
2320,36801,0
2202,36827,0
2105,36795,0
1960,36799,0
1810,36828,0
1670,36797,0
1504,36817,0
1440,36780,0
1428,36788,0
1554,36808,0
1624,36824,0
1732,36770,0
1852,36797,0
1996,36802,0
2144,36822,0
2266,36800,0
2380,36792,0
2425,36781,0
2448,36793,0
2428,36818,0
2351,36786,0
2224,36790,0
2043,36797,0
1948,36795,0
1770,36822,0
1681,36789,0
1524,36790,0
1514,36791,0
1456,36795,0
1494,36823,0
1457,36804,0
1560,36794,0
1689,36807,0
1836,36798,0
2020,36831,0
2150,36796,0
2232,36806,0
2324,36780,0
2272,36804,0
2258,36830,0
2185,36801,0
2154,36808,0
2047,36805,0
1908,36814,0
1776,36826,0
1669,36829,0
1568,36809,0
1504,36843,0
1472,36807,0
1496,36829,0
1556,36805,0
1656,36819,0
1756,36852,0
1916,36819,0
2010,36845,0
2188,36826,0
2248,36833,0
2346,36860,0
2336,36825,0
2234,36852,0
2272,36827,0
2168,36827,0
1968,36848,0
1824,36833,0
1677,36868,0
1549,36835,0
1496,36838,0
1425,36817,0
1385,36832,0
1432,36869,0
1392,36843,0
1498,36853,0
1633,36829,0
1888,36840,0
2036,36832,0
2180,36845,0
2296,36835,0
2376,36851,0
2416,36850,0
2386,36855,0
2322,36834,0
2228,36848,0
2096,36877,0
1952,36855,0
1804,36883,0
1672,36849,0
1516,36862,0
1514,36878,0
1420,36852,0
1496,36883,0
1508,36852,0
1660,36859,0
1776,36884,0
1938,36866,0
2020,36891,0
2169,36861,0
2284,36856,0
2368,36879,0
2428,36868,0
2409,36902,0
2360,36867,0
2247,36873,0
2064,36870,0
1936,36870,0
1808,36897,0
1768,36888,0
1684,36876,0
1620,36881,0
1612,36888,0
1616,36878,0
1676,36871,0
1769,36885,0
1896,36909,0
2020,36886,0
2156,36907,0
2276,36881,0
2375,36893,0
2440,36913,0
2432,36896,0
2434,36926,0
2336,36899,0
2268,36901,0
2096,36906,0
1992,36893,0
1844,36929,0
1736,36906,0
1548,36900,0
1486,36905,0
1446,36904,0
1461,36934,0
1560,36914,0
1658,36904,0
1768,36901,0
1894,36911,0
1992,36934,0
2144,36914,0
2248,36923,0
2394,36920,0
2432,36909,0
2417,36924,0
2368,36920,0
2264,36910,0
2160,36905,0
2016,36909,0
1880,36934,0
1748,36910,0
1656,36943,0
1580,36909,0
1532,36910,0
1564,36946,0
1552,36915,0
1696,36950,0
1762,36909,0
1944,36920,0
2042,36917,0
2212,36926,0
2308,36947,0
2385,36921,0
2360,36925,0
2336,36899,0
2278,36921,0
2176,36942,0
2072,36919,0
1920,36942,0
1774,36916,0
1640,36913,0
1457,36937,0
1390,36919,0
1369,36949,0
1488,36916,0
1558,36892,0
1668,36891,0
1788,36911,0
1953,36917,0
2108,36903,0
2232,36915,0
2332,36934,0
2412,36906,0
2432,36942,0
2412,36898,0
2332,36911,0
2240,36918,0
2080,36906,0
1976,36940,0
1800,36906,0
1704,36905,0
1560,36913,0
1536,36907,0
1492,36940,0
1520,36907,0
1481,36919,0
1581,36895,0
1721,36903,0
1864,36936,0
2064,36903,0
2188,36908,0
2289,36886,0
2368,36901,0
2368,36918,0
2360,36904,0
2312,36912,0
2280,36927,0
2184,36917,0
2056,36905,0
1932,36906,0
1816,36892,0
1730,36926,0
1658,36898,0
1634,36937,0
1650,36886,0
1700,36899,0
1800,36886,0
1907,36894,0
2040,36932,0
2144,36900,0
2316,36908,0
2384,36870,0
2484,36894,0
2472,36927,0
2500,36902,0
2424,36921,0
2336,36895,0
2148,36892,0
2016,36909,0
1872,36895,0
1752,36926,0
1689,36895,0
1605,36893,0
1556,36913,0
1584,36893,0
1536,36924,0
1628,36900,0
1760,36889,0
1900,36928,0
2136,36892,0
2280,36892,0
2400,36902,0
2480,36918,0
2516,36894,0
2504,36927,0
2456,36888,0
2352,36912,0
2244,36922,0
2113,36898,0
1968,36931,0
1848,36903,0
1696,36901,0
1670,36920,0
1576,36891,0
1637,36931,0
1616,36915,0
1768,36907,0
1872,36892,0
2008,36905,0
2084,36932,0
2218,36900,0
2324,36918,0
2392,36882,0
2456,36909,0
2432,36940,0
2360,36911,0
2256,36928,0
2082,36897,0
1962,36925,0
1780,36952,0
1682,36901,0
1624,36908,0
1598,36915,0
1604,36923,0
1660,36951,0
1752,36926,0
1864,36934,0
1984,36909,0
2120,36921,0
2240,36946,0
2327,36932,0
2378,36943,0
2368,36917,0
2372,36932,0
2264,36956,0
2180,36936,0
2016,36967,0
1900,36936,0
1748,36935,0
1537,36949,0
1424,36934,0
1366,36969,0
1325,36941,0
1344,36950,0
1460,36930,0
1546,36948,0
1671,36971,0
1772,36944,0
1856,36966,0
1978,36946,0
2076,36946,0
2216,36952,0
2260,36948,0
2268,36960,0
2240,36979,0
2184,36958,0
2122,36964,0
2074,36938,0
2014,36959,0
1994,36991,0
2004,36964,0
2076,36979,0
2173,36958,0
2352,36967,0
2536,36983,0
2824,36966,0
3104,36993,0
3404,36974,0
3688,36978,0
3900,36987,0
3966,36972,0
3976,37006,0
3984,36981,0
3980,36983,0
3977,36964,0
3924,36988,0
3820,37006,0
3648,36986,0
3472,36999,0
3280,36971,0
3060,36987,0
2900,37020,0
2773,36992,0
2712,37001,0
2666,37009,0
2672,36997,0
2686,36996,0
2736,37018,0
2792,37028,0
2836,36998,0
2864,36999,0
2872,36993,0
2840,36995,0
2788,37029,0
2638,37000,0
2480,37018,0
2288,36994,0
2128,36999,0
1904,37017,0
1760,37003,0
1510,37027,0
1477,37004,0
1362,37007,0
1346,37025,0
1240,37014,0
1296,37036,0
1386,37001,0
1506,37008,0
1684,37017,0
1798,37015,0
1890,37049,0
1970,37023,0
1940,37012,0
1933,37033,0
1888,37022,0
1888,37043,0
1785,37028,0
1660,37028,0
1535,37028,0
1418,37015,0
1333,37033,0
1260,37052,0
1220,37024,0
1226,37029,0
1284,37049,0
1374,37017,0
1461,37060,0
1626,37027,0
1722,37032,0
1896,37030,0
1986,37033,0
2096,37059,0
2096,37030,0
2152,37036,0
2064,37034,0
1976,37034,0
1770,37066,0
1624,37038,0
1477,37035,0
1340,37039,0
1300,37041,0
1218,37075,0
1169,37051,0
1189,37047,0
1172,37038,0
1284,37040,0
1440,37068,0
1680,37027,0
1850,37058,0
2020,37062,0
2144,37066,0
2236,37065,0
2288,37050,0
2292,37078,0
2236,37059,0
2164,37050,0
2024,37040,0
1884,37053,0
1751,37089,0
1608,37069,0
1448,37062,0
1344,37044,0
1334,37067,0
1378,37084,0
1384,37060,0
1524,37082,0
1626,37061,0
1777,37065,0
1860,37094,0
2006,37067,0
2124,37083,0
2209,37057,0
2292,37072,0
2280,37099,0
2214,37077,0
2105,37101,0
1938,37060,0
1794,37081,0
1672,37097,0
1653,37077,0
1560,37083,0
1504,37074,0
1474,37080,0
1489,37083,0
1538,37078,0
1656,37088,0
1764,37105,0
1880,37079,0
2046,37114,0
2180,37080,0
2271,37090,0
2360,37118,0
2368,37096,0
2384,37118,0
2288,37097,0
2224,37085,0
2064,37126,0
1976,37103,0
1820,37122,0
1708,37099,0
1508,37090,0
1432,37111,0
1382,37095,0
1393,37137,0
1497,37103,0
1574,37098,0
1680,37105,0
1820,37101,0
1912,37138,0
2060,37107,0
2188,37107,0
2340,37108,0
2406,37112,0
2408,37109,0
2369,37112,0
2288,37117,0
2156,37129,0
2028,37113,0
1890,37134,0
1745,37116,0
1641,37121,0
1552,37111,0
1480,37120,0
1490,37145,0
1472,37120,0
1608,37116,0
1680,37117,0
1852,37119,0
1956,37154,0
2128,37120,0
2232,37139,0
2316,37111,0
2304,37120,0
2296,37150,0
2256,37124,0
2144,37158,0
2064,37132,0
1921,37123,0
1768,37147,0
1618,37128,0
1450,37157,0
1378,37118,0
1344,37127,0
1460,37107,0
1517,37139,0
1616,37129,0
1756,37129,0
1888,37152,0
1944,37127,0
2172,37144,0
2290,37123,0
2380,37128,0
2428,37160,0
2416,37134,0
2367,37158,0
2276,37139,0
2112,37133,0
2024,37126,0
1840,37119,0
1753,37143,0
1592,37116,0
1556,37125,0
1496,37095,0
1524,37110,0
1476,37149,0
1569,37109,0
1692,37129,0
1846,37089,0
2037,37100,0
2177,37120,0
2284,37091,0
2368,37120,0
2372,37084,0
2373,37078,0
2328,36906,0
2238,37035,0
2104,37066,0
1980,37065,0
1874,37073,0
1776,37077,0
1696,37043,0
1649,37026,0
1650,37034,0
1680,37023,0
1760,37038,0
1870,37001,0
2000,36999,0
2088,36980,0
2264,36987,0
2352,36999,0
2448,36974,0
2464,36965,0
2482,36935,0
2432,36947,0
2288,36984,0
2177,36949,0
2032,36945,0
1888,36922,0
1756,36928,0
1692,36947,0
1590,36918,0
1539,36912,0
1523,36895,0
1504,36902,0
1593,36923,0
1722,36891,0
1946,36906,0
2094,36900,0
2242,36892,0
2378,36881,0
2464,36864,0
2504,36857,0
2520,36861,0
2464,36892,0
2368,36866,0
2264,36858,0
2120,36850,0
1953,36858,0
1840,36874,0
1676,36847,0
1644,36847,0
1544,36828,0
1572,36831,0
1568,36872,0
1692,36841,0
1796,36848,0
1936,36829,0
2016,36827,0
2157,36854,0
2285,36825,0
2372,36844,0
2444,36812,0
2452,36817,0
2384,36845,0
2296,36819,0
2124,36831,0
2001,36805,0
1849,36809,0
1816,36817,0
1720,36837,0
1650,36833,0
1604,36829,0
1612,36813,0
1656,36835,0
1732,36822,0
1834,36822,0
1956,36802,0
2098,36811,0
2225,36832,0
2344,36812,0
2412,36831,0
2432,36804,0
2464,36814,0
2384,36836,0
2314,36812,0
2160,36822,0
2076,36793,0
1912,36809,0
1800,36839,0
1593,36815,0
1504,36832,0
1448,36790,0
1441,36822,0
1532,36840,0
1596,36813,0
1690,36840,0
1816,36808,0
1892,36811,0
2032,36843,0
2164,36816,0
2320,36800,0
2364,36826,0
2370,36801,0
2338,36797,0
2260,36829,0
2160,36847,0
2024,36817,0
1874,36826,0
1744,36842,0
1624,36829,0
1540,36858,0
1479,36824,0
1477,36819,0
1456,36836,0
1628,36827,0
1656,36867,0
1840,36841,0
1936,36832,0
2128,36848,0
2250,36826,0
2348,36863,0
2344,36837,0
2360,36824,0
2329,36857,0
2242,36837,0
2168,36855,0
2024,36833,0
1872,36850,0
1728,36853,0
1560,36837,0
1480,36871,0
1441,36848,0
1534,36862,0
1586,36847,0
1676,36831,0
1796,36828,0
1932,36850,0
2088,36840,0
2225,36868,0
2340,36836,0
2416,36853,0
2472,36877,0
2474,36852,0
2412,36863,0
2340,36842,0
2184,36858,0
2088,36893,0
1920,36870,0
1816,36866,0
1652,36853,0
1621,36860,0
1560,36890,0
1562,36857,0
1504,36876,0
1590,36856,0
1698,36863,0
1841,36884,0
2017,36864,0
2148,36893,0
2260,36860,0
2378,36867,0
2340,36882,0
2350,36865,0
2328,36896,0
2288,36895,0
2212,36881,0
2064,36900,0
1944,36902,0
1810,36895,0
1704,36877,0
1632,36876,0
1584,36871,0
1576,36880,0
1636,36916,0
1672,36879,0
1762,36896,0
1904,36874,0
2008,36890,0
2176,36919,0
2250,36887,0
2380,36910,0
2388,36895,0
2416,36893,0
2376,36911,0
2296,36893,0
2120,36935,0
1988,36898,0
1840,36896,0
1719,36913,0
1645,36899,0
1555,36928,0
1502,36901,0
1489,36905,0
1450,36914,0
1540,36907,0
1669,36935,0
1904,36917,0
2065,36875,0
2208,36937,0
2333,36908,0
2420,36914,0
2480,36882,0
2480,36900,0
2442,36938,0
2352,36909,0
2236,36911,0
2100,36894,0
1943,36909,0
1824,36933,0
1652,36907,0
1618,36919,0
1512,36902,0
1546,36906,0
1528,36931,0
1657,36903,0
1744,36939,0
1888,36908,0
1948,36909,0
2101,36916,0
2224,36914,0
2314,36941,0
2384,36914,0
2386,36905,0
2336,36897,0
2251,36900,0
2066,36929,0
1936,36899,0
1810,36897,0
1760,36875,0
1649,36916,0
1592,36894,0
1548,36903,0
1554,36897,0
1592,36893,0
1665,36906,0
1788,36908,0
1912,36927,0
2056,36901,0
2338,36896,0
2312,36894,0
2400,36895,0
2424,36926,0
2464,36899,0
2388,36896,0
2340,36871,0
2200,36886,0
2096,36911,0
1960,36888,0
1840,36915,0
1634,36884,0
1546,36886,0
1489,36911,0
1472,36894,0
1564,36917,0
1626,36888,0
1720,36889,0
1857,36901,0
1946,36886,0
2106,36915,0
2416,36885,0
2485,36908,0
2512,36904,0
2488,36896,0
2420,36891,0
2328,36890,0
2208,36899,0
2076,36878,0
1948,36884,0
1836,36910,0
1754,36887,0
1654,36903,0
1666,36880,0
1632,36884,0
1752,36920,0
1816,36883,0
1976,36903,0
2076,36865,0
2228,36875,0
2344,36911,0
2372,36886,0
2442,36922,0
2432,36884,0
2392,36887,0
2320,36905,0
2212,36885,0
2080,36911,0
1930,36880,0
1776,36883,0
1588,36904,0
1509,36887,0
1464,36919,0
1568,36903,0
1608,36882,0
1690,36889,0
1818,36910,0
1944,36903,0
2104,36919,0
2244,36889,0
2364,36899,0
2448,36876,0
2514,36887,0
2520,36911,0
2477,36886,0
2388,36905,0
2244,36875,0
2144,36891,0
1976,36916,0
1866,36894,0
1700,36922,0
1669,36891,0
1592,36899,0
1578,36900,0
1516,36900,0
1584,36918,0
1688,36891,0
1828,36888,0
2000,36893,0
2144,36901,0
2244,36937,0
2322,36907,0
2336,36918,0
2354,36903,0
2332,36905,0
2328,36903,0
2380,36905,0
2116,36905,0
1998,36872,0
1880,36915,0
1769,36912,0
1689,36923,0
1628,36911,0
1612,36942,0
1642,36915,0
1696,36917,0
1765,36905,0
1890,36914,0
1981,36941,0
2132,36917,0
2196,36922,0
2303,36909,0
2300,36919,0
2336,36957,0
2288,36932,0
2200,36932,0
2026,36912,0
1898,36923,0
1738,36960,0
1609,36934,0
1552,36956,0
1456,36930,0
1385,36931,0
1356,36950,0
1305,36936,0
1378,36969,0
1482,36944,0
1714,36935,0
1864,36955,0
2018,36929,0
2169,36957,0
2308,36951,0
2444,36945,0
2524,36970,0
2576,36944,0
2608,36953,0
2620,36974,0
2636,36951,0
2616,36974,0
2656,36954,0
2688,36953,0
2808,36986,0
2916,36959,0
3088,36983,0
3240,36951,0
3432,36971,0
3624,36983,0
3804,36965,0
3960,36988,0
3994,36963,0
3988,36977,0
3984,36987,0
3976,36967,0
3960,36993,0
3916,36968,0
3816,36976,0
3672,36997,0
3490,36973,0
3304,37003,0
3112,36986,0
2948,36974,0
2794,36991,0
2668,36983,0
2552,36986,0
2504,36980,0
2468,36997,0
2484,36978,0
2512,36985,0
2536,36955,0
2584,36982,0
2605,37015,0
2624,36984,0
2570,37004,0
2540,36978,0
2416,36981,0
2300,37007,0
2100,36990,0
1976,37015,0
1776,36985,0
1613,36989,0
1378,36991,0
1246,36975,0
1173,37013,0
1126,36990,0
1204,36995,0
1254,36973,0
1349,36999,0
1454,37018,0
1544,36984,0
1709,37010,0
1856,36990,0
2058,37001,0
2130,37003,0
2160,37001,0
2154,37001,0
2096,37012,0
1978,37004,0
1856,36993,0
1712,37007,0
1576,37031,0
1454,37006,0
1364,37021,0
1282,36999,0
1280,37008,0
1248,37024,0
1376,37007,0
1440,37045,0
1628,37007,0
1718,37001,0
1924,37011,0
2046,37006,0
2160,37049,0
2164,37013,0
2192,37020,0
2161,37000,0
2093,37006,0
2024,37042,0
1881,37016,0
1736,37022,0
1584,37006,0
1412,37024,0
1309,37040,0
1257,37013,0
1360,37021,0
1410,37027,0
1480,37028,0
1596,37024,0
1740,37029,0
1896,37022,0
2044,37039,0
2180,37013,0
2282,37032,0
2352,37052,0
2352,37026,0
2312,37048,0
2248,37019,0
2104,37033,0
2024,37049,0
1828,37028,0
1736,37063,0
1576,37031,0
1535,37031,0
1480,37014,0
1472,37029,0
1410,37069,0
1488,37034,0
1600,37044,0
1737,37024,0
1933,37031,0
2072,37076,0
2188,37049,0
2274,37048,0
2292,37029,0
2312,37043,0
2288,37071,0
2280,37049,0
2196,37049,0
2080,37043,0
1950,37041,0
1812,37051,0
1704,37072,0
1610,37044,0
1556,37045,0
1530,37069,0
1564,37056,0
1612,37070,0
1711,37059,0
1840,37054,0
1936,37082,0
2120,37058,0
2216,37083,0
2344,37050,0
2376,37059,0
2432,37060,0
2404,37057,0
2340,37098,0
2188,37072,0
2056,37084,0
1910,37052,0
1780,37070,0
1696,37099,0
1592,37078,0
1515,37076,0
1478,37060,0
1440,37080,0
1498,37113,0
1608,37080,0
1828,37097,0
1980,37105,0
2120,37088,0
2249,37079,0
2344,37099,0
2405,37060,0
2432,37085,0
2396,37109,0
2312,37090,0
2204,37102,0
2080,37078,0
1908,37091,0
1776,37116,0
1596,37088,0
1548,37118,0
1434,37097,0
1452,37092,0
1400,37100,0
1532,37088,0
1612,37130,0
1752,37095,0
1808,37091,0
1952,37100,0
2084,37096,0
2192,37123,0
2296,37094,0
2312,37095,0
2266,37100,0
2188,37085,0
2048,37120,0
1928,37097,0
1764,37032,0
1676,37102,0
1584,37125,0
1520,37113,0
1544,37111,0
1564,37100,0
1644,37118,0
1756,37070,0
1892,37089,0
2036,37115,0
2184,37093,0
2296,37105,0
2405,37080,0
2440,37075,0
2490,37108,0
2456,37079,0
2416,37103,0
2280,37074,0
2192,37073,0
2047,37095,0
1880,37059,0
1741,37093,0
1652,37062,0
1582,37059,0
1560,37078,0
1642,37044,0
1688,37071,0
1778,37030,0
1892,37035,0
1986,37033,0
2140,37024,0
2280,37050,0
2464,37032,0
2540,37013,0
2576,37011,0
2572,36994,0
2512,37001,0
2426,36977,0
2312,36975,0
2170,36976,0
2046,37002,0
1928,36961,0
1828,36969,0
1759,36937,0
1736,36950,0
1704,36965,0
1808,36937,0
1844,36955,0
2016,36923,0
2096,36914,0
2264,36951,0
2396,36914,0
2504,36933,0
2520,36913,0
2536,36892,0
2534,36911,0
2453,36889,0
2396,36912,0
2268,36875,0
2120,36881,0
1986,36860,0
1804,36868,0
1724,36880,0
1668,36853,0
1764,36846,0
1764,36861,0
1842,36833,0
1946,36863,0
2064,36840,0
2224,36837,0
2344,36842,0
2468,36806,0
2552,36817,0
2620,36854,0
2640,36820,0
2609,36836,0
2544,36798,0
2416,36822,0
2324,36837,0
2160,36808,0
2056,36833,0
1896,36810,0
1842,36797,0
1772,36825,0
1762,36804,0
1684,36829,0
1752,36804,0
1837,36797,0
1978,36815,0
2153,36797,0
2290,36813,0
2408,36795,0
2500,36796,0
2536,36819,0
2568,36797,0
2560,36820,0
2544,36779,0
2464,36791,0
2352,36789,0
2217,36785,0
2096,36808,0
1978,36807,0
1874,36796,0
1820,36827,0
1777,36800,0
1784,36796,0
1832,36794,0
1897,36792,0
2012,36812,0
2100,36786,0
2264,36801,0
2352,36780,0
2468,36787,0
2496,36816,0
2544,36789,0
2496,36802,0
2436,36781,0
2276,36781,0
2144,36815,0
1984,36794,0
1840,36818,0
1744,36786,0
1621,36802,0
1540,36812,0
1485,36797,0
1436,36833,0
1498,36797,0
1616,36800,0
1834,36817,0
1988,36810,0
2144,36822,0
2288,36808,0
2396,36823,0
2476,36801,0
2500,36811,0
2492,36799,0
2448,36805,0
2324,36831,0
2196,36811,0
2047,36818,0
1908,36790,0
1728,36806,0
1682,36835,0
1556,36814,0
1580,36835,0
1538,36818,0
1664,36807,0
1738,36830,0
1892,36813,0
1968,36833,0
2128,36819,0
2272,36814,0
2380,36833,0
2472,36818,0
2516,36864,0
2481,36821,0
2425,36826,0
2288,36806,0
2156,36816,0
2034,36845,0
1984,36823,0
1889,36826,0
1791,36831,0
1728,36847,0
1714,36831,0
1732,36836,0
1790,36827,0
1888,36870,0
2000,36831,0
2144,36851,0
2272,36822,0
2394,36839,0
2500,36862,0
2544,36832,0
2616,36842,0
2552,36821,0
2520,36830,0
2400,36867,0
2312,36839,0
2160,36858,0
2028,36830,0
1825,36849,0
1724,36876,0
1652,36842,0
1606,36859,0
1658,36832,0
1697,36845,0
1764,36878,0
1886,36854,0
1956,36864,0
2106,36831,0
2248,36856,0
2400,36851,0
2488,36850,0
2520,36858,0
2508,36871,0
2450,36851,0
2356,36858,0
2228,36877,0
2098,36864,0
1952,36883,0
1824,36855,0
1710,36857,0
1620,36878,0
1608,36864,0
1556,36893,0
1656,36868,0
1704,36867,0
1868,36886,0
1962,36867,0
2148,36894,0
2276,36862,0
2400,36882,0
2418,36877,0
2456,36882,0
2448,36911,0
2392,36875,0
2336,36879,0
2216,36879,0
2076,36870,0
1928,36906,0
1748,36888,0
1652,36877,0
1581,36888,0
1641,36885,0
1668,36868,0
1728,36879,0
1820,36900,0
1936,36872,0
2060,36908,0
2204,36880,0
2336,36883,0
2430,36862,0
2504,36877,0
2528,36907,0
2508,36881,0
2448,36905,0
2320,36878,0
2216,36877,0
2047,36895,0
1952,36880,0
1780,36914,0
1732,36882,0
1656,36879,0
1632,36859,0
1560,36879,0
1620,36912,0
1712,36872,0
1834,36884,0
2016,36864,0
2163,36877,0
2284,36901,0
2376,36878,0
2409,36895,0
2457,36876,0
2460,36880,0
2384,36888,0
2272,36898,0
2140,36890,0
2016,36862,0
1894,36882,0
1784,36859,0
1720,36867,0
1652,36902,0
1676,36875,0
1712,36882,0
1784,36865,0
1904,36877,0
1985,36902,0
2178,36871,0
2264,36885,0
2396,36864,0
2432,36866,0
2528,36895,0
2480,36873,0
2384,36899,0
2280,36867,0
2160,36862,0
2024,36881,0
1890,36856,0
1804,36892,0
1706,36868,0
1625,36865,0
1589,36875,0
1552,36860,0
1625,36887,0
1746,36877,0
1968,36880,0
2124,36890,0
2304,36870,0
2460,36873,0
2592,36875,0
2682,36866,0
2720,36880,0
2720,36865,0
2664,36864,0
2565,36866,0
2428,36861,0
2272,36886,0
2136,36855,0
1945,36859,0
1872,36844,0
1736,36862,0
1724,36896,0
1658,36861,0
1734,36864,0
1804,36838,0
1908,36867,0
1970,36894,0
2093,36852,0
2208,36869,0
2312,36856,0
