2224,36113,0
2330,36124,0
2384,36121,0
2400,36114,0
2412,36105,0
2360,36102,0
2242,36123,0
2109,36117,0
1936,36112,0
1796,36065,0
1689,36066,0
1688,35950,0
1626,36086,0
1604,36070,0
1618,36048,0
1674,36020,0
1764,36048,0
1873,36044,0
2001,36070,0
2128,36053,0
2237,36047,0
2328,36033,0
2378,36002,0
2400,36005,0
2344,36002,0
2308,35996,0
2176,35990,0
2096,35999,0
1996,36006,0
1840,36016,0
1712,36002,0
1628,35998,0
1473,35960,0
1442,35972,0
1457,35965,0
1530,35969,0
1684,35954,0
1788,35957,0
1918,35974,0
2050,35978,0
2128,35980,0
2240,35969,0
2314,35930,0
2404,35950,0
2394,35934,0
2340,35962,0
2257,35941,0
2148,35934,0
2047,35954,0
1901,35942,0
1794,35937,0
1690,35915,0
1616,35935,0
1592,35932,0
1576,35923,0
1660,35926,0
1684,35924,0
1844,35942,0
1936,35944,0
2104,35941,0
2184,35938,0
2308,35915,0
2360,35919,0
2388,35926,0
2320,35928,0
2248,35918,0
2137,35917,0
2016,35923,0
1915,35930,0
1785,35943,0
1654,35950,0
1564,35951,0
1420,35928,0
1401,35919,0
1412,35939,0
1584,35934,0
1704,35945,0
1816,35925,0
1949,35962,0
2088,35944,0
2202,35936,0
2308,35957,0
2368,35963,0
2378,35955,0
2352,35937,0
2284,35949,0
2185,35941,0
2040,35948,0
1890,35941,0
1780,35946,0
1600,35956,0
1564,35980,0
1444,35979,0
1472,35972,0
1468,35959,0
1544,35937,0
1544,35964,0
1676,35961,0
1813,35962,0
1962,35960,0
2128,35965,0
2217,35981,0
2262,36000,0
2282,35992,0
2216,35992,0
2160,35953,0
2072,35983,0
2024,35997,0
1916,35995,0
1790,35993,0
1684,35966,0
1596,35999,0
1534,36013,0
1512,35969,0
1521,35995,0
1642,35992,0
1666,35993,0
1788,36004,0
1906,36003,0
2044,36009,0
2120,36032,0
2256,36027,0
2276,36021,0
2344,36006,0
2288,36001,0
2256,36014,0
2160,36007,0
2044,36007,0
1848,36015,0
1712,36016,0
1589,36039,0
1490,36050,0
1482,36054,0
1460,36012,0
1458,36017,0
1515,36034,0
1553,36030,0
1696,36030,0
1856,36034,0
2080,36026,0
2220,36061,0
2336,36049,0
2436,36039,0
2448,36050,0
2432,36057,0
2384,36026,0
2288,36042,0
2164,36043,0
2040,36043,0
1904,36044,0
1776,36048,0
1698,36076,0
1568,36090,0
1593,36078,0
1562,36073,0
1668,36047,0
1716,36071,0
1896,36065,0
2026,36068,0
2160,36076,0
2228,36074,0
2336,36089,0
2400,36100,0
2428,36095,0
2432,36090,0
2368,36064,0
2262,36088,0
2130,36086,0
1952,36085,0
1826,36079,0
1720,36078,0
1738,36103,0
1692,36109,0
1662,36094,0
1689,36122,0
1756,36078,0
1842,36098,0
1944,36094,0
2080,36096,0
2210,36117,0
2348,36126,0
2436,36125,0
2479,36126,0
2492,36094,0
2432,36111,0
2385,36121,0
2260,36106,0
2164,36114,0
1992,36119,0
1882,36139,0
1768,36134,0
1689,36137,0
1532,36117,0
1524,36108,0
1513,36120,0
1574,36116,0
1701,36116,0
1832,36121,0
1958,36117,0
2086,36144,0
2176,36137,0
2276,36133,0
2340,36115,0
2428,36145,0
2416,36123,0
2368,36111,0
2264,36136,0
2140,36136,0
2008,36139,0
1874,36110,0
1754,36113,0
1660,36120,0
1592,36118,0
1552,36118,0
1562,36115,0
1616,36134,0
1648,36148,0
1824,36135,0
1912,36136,0
2092,36114,0
2176,36110,0
2292,36115,0
2372,36111,0
2400,36109,0
2328,36122,0
2274,36109,0
2160,36138,0
2032,36145,0
1942,36133,0
1793,36102,0
1666,36108,0
1552,36114,0
1436,36114,0
1425,36114,0
1446,36104,0
1616,36094,0
1728,36124,0
1856,36103,0
1992,36111,0
2160,36130,0
2282,36141,0
2376,36128,0
2448,36127,0
2472,36088,0
2442,36105,0
2368,36111,0
2256,36107,0
2148,36103,0
1968,36107,0
1888,36124,0
1714,36136,0
1664,36129,0
1540,36138,0
1572,36095,0
1580,36099,0
1652,36107,0
1664,36117,0
1796,36105,0
1929,36107,0
2092,36120,0
2248,36127,0
2352,36147,0
2416,36133,0
2432,36110,0
2376,36099,0
2320,36120,0
2168,36154,0
2047,36136,0
1928,36082,0
1813,36122,0
1712,36118,0
1644,36100,0
1616,36093,0
1626,36121,0
1684,36123,0
1776,36118,0
1880,36116,0
2000,36120,0
2148,36141,0
2224,36146,0
2368,36148,0
2408,36108,0
2452,36113,0
2400,36127,0
2356,36126,0
2256,36124,0
2072,36120,0
1936,36141,0
1804,36148,0
1688,36147,0
1586,36143,0
1558,36108,0
1548,36124,0
1552,36133,0
1592,36128,0
1648,36128,0
1770,36128,0
1924,36141,0
2152,36154,0
2292,36160,0
2424,36125,0
2470,36151,0
2498,36155,0
2482,36142,0
2424,36146,0
2320,36142,0
2196,36137,0
2056,36156,0
1928,36182,0
1799,36164,0
1708,36159,0
1584,36125,0
1618,36152,0
1588,36147,0
1700,36152,0
1736,36157,0
1904,36153,0
2032,36177,0
2178,36182,0
2241,36197,0
2345,36191,0
2412,36163,0
2434,36159,0
2436,36172,0
2368,36167,0
2245,36166,0
2108,36178,0
1920,36192,0
1786,36198,0
1670,36205,0
1650,36180,0
1578,36187,0
1548,36148,0
1570,36202,0
1624,36190,0
1713,36178,0
1840,36202,0
1952,36224,0
2084,36204,0
2210,36213,0
2298,36183,0
2351,36190,0
2368,36202,0
2316,36193,0
2264,36200,0
2104,36209,0
2000,36211,0
1802,36230,0
1688,36235,0
1552,36234,0
1472,36185,0
1328,36211,0
1344,36211,0
1434,36217,0
1572,36218,0
1808,36211,0
2029,36234,0
2296,36254,0
2578,36246,0
2832,36249,0
3120,36213,0
3394,36223,0
3632,36227,0
3796,36201,0
3904,36247,0
3944,36234,0
3936,36260,0
3906,36254,0
3832,36269,0
3776,36275,0
3664,36234,0
3568,36235,0
3480,36256,0
3435,36242,0
3364,36244,0
3352,36254,0
3360,36255,0
3384,36273,0
3420,36277,0
3440,36281,0
3448,36245,0
3448,36259,0
3416,36262,0
3336,36265,0
3224,36267,0
3056,36268,0
2901,36289,0
2736,36295,0
2548,36301,0
2368,36288,0
2208,36263,0
2048,36272,0
1960,36283,0
1924,36272,0
2016,36267,0
2047,36276,0
2104,36294,0
2180,36272,0
2260,36287,0
2336,36316,0
2376,36323,0
2398,36281,0
2384,36293,0
2328,36294,0
2232,36298,0
2109,36307,0
1994,36293,0
1794,36313,0
1720,36326,0
1524,36328,0
1484,36313,0
1366,36285,0
1402,36304,0
1408,36307,0
1512,36305,0
1508,36314,0
1632,36312,0
1792,36337,0
1940,36350,0
2112,36339,0
2192,36328,0
2253,36303,0
2264,36316,0
2188,36318,0
2128,36315,0
2028,36317,0
1977,36323,0
1824,36333,0
1722,36324,0
1596,36326,0
1496,36362,0
1432,36359,0
1413,36354,0
1436,36353,0
1498,36318,0
1598,36331,0
1736,36337,0
1845,36336,0
2012,36329,0
2104,36340,0
2224,36358,0
2260,36357,0
2314,36359,0
2256,36333,0
2226,36345,0
2112,36345,0
2000,36349,0
1784,36347,0
1633,36340,0
1510,36351,0
1386,36381,0
1368,36378,0
1360,36370,0
1363,36341,0
1394,36356,0
1452,36349,0
1594,36354,0
1754,36362,0
1984,36374,0
2128,36358,0
2240,36369,0
2312,36379,0
2336,36369,0
2324,36388,0
2264,36354,0
2176,36360,0
2044,36368,0
1908,36374,0
1770,36377,0
1629,36365,0
1556,36379,0
1436,36389,0
1473,36406,0
1448,36382,0
1576,36360,0
1628,36368,0
1804,36373,0
1944,36370,0
2098,36377,0
2176,36377,0
2272,36391,0
2328,36422,0
2356,36409,0
2376,36398,0
2274,36377,0
2176,36388,0
2033,36384,0
1856,36377,0
1720,36388,0
1592,36383,0
1608,36400,0
1528,36417,0
1526,36415,0
1540,36402,0
1602,36398,0
1701,36388,0
1828,36386,0
1965,36393,0
2100,36380,0
2208,36400,0
2302,36417,0
2367,36418,0
2384,36427,0
2320,36403,0
2280,36389,0
2152,36392,0
2064,36406,0
1881,36389,0
1788,36397,0
1650,36401,0
1564,36425,0
1398,36424,0
1380,36424,0
1401,36404,0
1466,36398,0
1593,36408,0
1728,36408,0
1865,36407,0
1992,36408,0
2092,36416,0
2192,36440,0
2276,36430,0
2384,36428,0
2364,36415,0
2280,36432,0
2194,36418,0
2069,36431,0
1938,36441,0
1798,36436,0
1672,36431,0
1572,36402,0
1504,36410,0
1476,36417,0
1464,36413,0
1548,36412,0
1576,36416,0
1756,36445,0
1860,36444,0
2036,36448,0
2128,36407,0
2280,36418,0
2320,36427,0
2352,36420,0
2288,36421,0
2208,36415,0
2136,36443,0
1984,36443,0
1894,36437,0
1752,36407,0
1624,36423,0
1517,36423,0
1394,36411,0
1384,36418,0
1604,36281,0
1706,36416,0
1844,36393,0
1996,36412,0
2152,36397,0
2284,36410,0
2384,36426,0
2470,36424,0
2480,36416,0
2464,36414,0
2394,36381,0
2288,36398,0
2180,36378,0
2000,36383,0
1914,36378,0
1756,36387,0
1704,36403,0
1596,36391,0
1620,36371,0
1640,36332,0
1612,36343,0
1730,36351,0
1848,36333,0
1992,36324,0
2144,36318,0
2296,36331,0
2393,36336,0
2448,36329,0
2450,36306,0
2384,36278,0
2320,36282,0
2226,36272,0
2168,36281,0
2047,36265,0
1916,36274,0
1796,36257,0
1700,36241,0
1586,36224,0
1600,36243,0
1614,36243,0
1664,36239,0
1752,36218,0
1856,36178,0
1989,36186,0
2124,36190,0
2208,36175,0
2340,36167,0
2368,36171,0
2408,36184,0
2370,36185,0
2312,36180,0
2208,36137,0
2104,36134,0
1892,36128,0
1769,36126,0
1632,36116,0
1532,36110,0
1534,36113,0
1488,36119,0
1502,36120,0
1554,36124,0
1600,36103,0
1738,36058,0
1888,36085,0
2124,36075,0
2272,36089,0
2372,36079,0
2456,36054,0
2476,36070,0
2468,36066,0
2400,36084,0
2302,36081,0
2176,36067,0
2060,36021,0
1912,36037,0
1776,36048,0
1690,36037,0
1560,36027,0
1600,36016,0
1568,36036,0
1662,36048,0
1716,36047,0
1773,36017,0
2008,36011,0
2162,36014,0
2228,36005,0
2320,36010,0
2385,36011,0
2408,36024,0
2408,36036,0
2336,36024,0
2228,36031,0
2090,35987,0
1904,36008,0
1770,36011,0
1656,36000,0
1666,36017,0
1589,35997,0
1574,35997,0
1602,36006,0
1666,35994,0
1750,35996,0
1872,36000,0
2008,35992,0
2124,35992,0
2252,36004,0
2330,36025,0
2376,36029,0
2400,36013,0
2338,35996,0
2290,35986,0
2160,36015,0
2056,35997,0
1880,36009,0
1784,36001,0
1664,36021,0
1568,36030,0
1400,36023,0
1380,36027,0
1392,35997,0
1464,36011,0
1600,36000,0
1736,36004,0
1856,36024,0
1992,36024,0
2080,36036,0
2184,36045,0
2272,36042,0
2360,36026,0
2352,36023,0
2298,36042,0
2218,36022,0
2088,36037,0
1972,36051,0
1828,36063,0
1708,36062,0
1613,36040,0
1552,36027,0
1542,36042,0
1527,36043,0
1604,36043,0
1640,36040,0
1824,36059,0
1908,36081,0
2096,36086,0
2200,36074,0
2328,36039,0
2384,36054,0
2432,36055,0
2346,36063,0
2288,36059,0
2176,36067,0
2056,36088,0
1960,36096,0
1813,36086,0
1692,36094,0
1608,36054,0
1460,36079,0
1456,36076,0
1481,36077,0
1658,36084,0
1768,36102,0
1888,36085,0
2044,36091,0
2170,36072,0
2304,36085,0
2428,36098,0
2476,36111,0
2480,36116,0
2460,36096,0
2392,36087,0
2300,36100,0
2156,36094,0
1976,36099,0
1880,36096,0
1720,36104,0
1668,36127,0
1568,36131,0
1588,36131,0
1592,36107,0
1654,36105,0
1672,36115,0
1800,36111,0
1952,36122,0
2102,36119,0
2249,36128,0
2356,36145,0
2421,36153,0
2444,36149,0
2368,36127,0
2309,36121,0
2216,36128,0
2160,36149,0
2026,36148,0
1912,36136,0
1757,36150,0
1688,36159,0
1624,36127,0
1594,36143,0
1600,36141,0
1664,36145,0
1758,36147,0
1868,36154,0
1988,36161,0
2132,36178,0
2217,36181,0
2356,36133,0
2388,36160,0
2448,36158,0
2392,36155,0
2362,36156,0
2256,36156,0
2146,36174,0
1938,36189,0
1814,36193,0
1682,36188,0
1588,36148,0
1580,36168,0
1537,36166,0
1548,36168,0
1598,36169,0
1632,36170,0
1761,36194,0
1913,36196,0
2144,36182,0
2278,36179,0
2378,36183,0
2442,36164,0
2472,36171,0
2466,36183,0
2384,36198,0
2296,36204,0
2170,36202,0
2028,36168,0
1893,36176,0
1761,36178,0
1672,36179,0
1532,36176,0
1568,36179,0
1528,36190,0
1632,36200,0
1672,36203,0
1836,36174,0
1945,36169,0
2100,36173,0
2154,36178,0
2266,36171,0
2324,36175,0
2352,36178,0
2356,36199,0
2282,36201,0
2164,36192,0
2040,36158,0
1848,36165,0
1712,36171,0
1608,36167,0
1524,36192,0
1560,36165,0
1556,36179,0
1581,36151,0
1654,36152,0
1741,36169,0
1868,36161,0
2004,36176,0
2152,36167,0
2276,36166,0
2361,36179,0
2419,36193,0
2452,36188,0
2392,36191,0
2360,36149,0
2244,36160,0
2132,36172,0
1964,36151,0
1876,36168,0
1748,36146,0
1669,36179,0
1520,36190,0
1492,36188,0
1508,36175,0
1564,36135,0
1709,36162,0
1820,36162,0
1935,36152,0
2070,36154,0
2144,36154,0
2229,36165,0
2388,36160,0
2380,36160,0
2328,36161,0
2240,36169,0
2122,36145,0
2008,36137,0
1890,36148,0
1772,36161,0
1680,36160,0
1622,36154,0
1592,36149,0
1587,36179,0
1674,36179,0
1712,36181,0
1890,36162,0
1976,36144,0
2152,36154,0
2232,36155,0
2372,36154,0
2408,36143,0
2380,36157,0
2336,36183,0
2268,36182,0
2168,36168,0
2032,36137,0
1932,36158,0
1794,36166,0
1664,36156,0
1560,36153,0
1424,36159,0
1420,36157,0
1446,36176,0
1620,36160,0
1724,36137,0
1856,36175,0
2000,36158,0
2152,36170,0
2272,36158,0
2384,36154,0
2428,36160,0
2464,36173,0
2416,36185,0
2352,36191,0
2248,36193,0
2140,36169,0
1944,36163,0
1868,36172,0
1698,36168,0
1658,36165,0
1528,36175,0
1560,36201,0
1556,36195,0
1640,36203,0
1645,36172,0
1784,36173,0
1926,36182,0
2074,36177,0
2234,36175,0
2322,36182,0
2376,36192,0
2400,36224,0
2336,36217,0
2268,36211,0
2180,36174,0
2128,36191,0
2016,36209,0
1896,36193,0
1796,36207,0
1700,36216,0
1640,36206,0
1624,36209,0
1640,36219,0
1684,36235,0
1796,36235,0
1896,36235,0
2013,36190,0
2144,36229,0
2212,36212,0
2328,36221,0
2344,36231,0
2392,36222,0
2314,36252,0
2272,36253,0
2144,36251,0
2032,36227,0
1818,36220,0
1652,36230,0
1526,36240,0
1427,36237,0
1424,36234,0
1399,36251,0
1416,36274,0
1474,36274,0
1520,36281,0
1648,36229,0
1803,36250,0
2018,36254,0
2138,36253,0
2216,36253,0
2280,36265,0
2288,36257,0
2256,36263,0
2204,36248,0
2124,36264,0
2047,36261,0
1992,36264,0
1922,36263,0
1872,36268,0
1916,36279,0
1928,36296,0
2080,36295,0
2208,36274,0
2465,36289,0
2700,36281,0
3000,36290,0
3288,36289,0
3552,36287,0
3808,36299,0
3969,36319,0
3994,36319,0
3985,36318,0
3960,36281,0
3933,36303,0
3856,36296,0
3716,36301,0
3560,36291,0
3376,36309,0
3200,36331,0
3056,36312,0
2930,36340,0
2824,36317,0
2764,36321,0
2740,36337,0
2756,36299,0
2796,36316,0
2868,36317,0
2928,36314,0
2984,36329,0
3028,36323,0
3036,36337,0
3000,36349,0
2904,36354,0
2650,36341,0
2634,36318,0
2484,36332,0
2280,36336,0
2128,36333,0
1948,36327,0
1810,36336,0
1600,36358,0
1536,36357,0
1481,36371,0
1500,36341,0
1606,36339,0
1674,36343,0
1781,36345,0
1877,36349,0
1938,36345,0
2028,36351,0
2096,36374,0
2174,36368,0
2152,36340,0
2096,36362,0
1994,36356,0
1880,36337,0
1756,36384,0
1628,36376,0
1514,36368,0
1370,36347,0
1348,36369,0
1320,36372,0
1325,36364,0
1392,36368,0
1440,36375,0
1610,36390,0
1704,36395,0
1888,36392,0
1961,36348,0
2108,36357,0
2160,36384,0
2196,36372,0
2096,36371,0
2034,36374,0
1924,36378,0
1797,36407,0
1720,36408,0
1579,36396,0
1452,36368,0
1352,36380,0
1224,36379,0
1216,36376,0
1258,36386,0
1448,36402,0
1568,36395,0
1700,36398,0
1856,36392,0
2000,36386,0
2128,36391,0
2232,36383,0
2288,36385,0
2308,36389,0
2282,36391,0
2194,36397,0
2072,36404,0
1954,36423,0
1768,36414,0
1664,36407,0
1492,36386,0
1436,36410,0
1318,36400,0
1352,36399,0
1360,36402,0
1442,36409,0
1444,36426,0
1576,36438,0
1728,36426,0
1876,36420,0
2049,36407,0
2148,36414,0
2204,36420,0
2225,36407,0
2160,36422,0
2089,36416,0
2008,36427,0
1972,36421,0
1838,36421,0
1712,36428,0
1604,36395,0
1512,36416,0
1356,36418,0
1428,36433,0
1448,36441,0
1516,36442,0
1606,36413,0
1736,36411,0
1855,36433,0
1996,36426,0
2089,36423,0
2212,36425,0
2226,36438,0
2300,36454,0
2224,36452,0
2194,36442,0
2080,36418,0
1968,36435,0
1745,36435,0
1616,36432,0
1488,36430,0
1400,36437,0
1392,36461,0
1377,36469,0
1390,36457,0
1464,36440,0
1504,36432,0
1654,36439,0
2047,36473,0
2200,36459,0
2312,36442,0
2384,36456,0
2420,36466,0
2404,36438,0
2332,36454,0
2236,36469,0
2124,36470,0
1978,36472,0
1864,36428,0
1717,36452,0
1644,36459,0
1504,36454,0
1533,36450,0
1504,36443,0
1612,36467,0
1660,36487,0
1832,36483,0
1964,36468,0
2032,36451,0
2168,36464,0
2260,36464,0
2328,36458,0
2354,36459,0
2364,36464,0
2296,36490,0
2201,36486,0
2080,36490,0
1904,36450,0
1784,36472,0
1684,36460,0
1704,36418,0
1657,36470,0
1664,36475,0
1694,36464,0
1772,36496,0
1890,36503,0
2000,36490,0
2156,36480,0
2284,36459,0
2424,36462,0
2516,36469,0
2580,36468,0
2618,36468,0
2568,36480,0
2544,36493,0
2420,36492,0
2328,36485,0
2168,36442,0
2080,36456,0
1962,36469,0
1872,36461,0
1720,36449,0
1685,36457,0
1696,36466,0
1745,36487,0
1877,36470,0
1982,36439,0
2104,36440,0
2220,36431,0
2288,36426,0
2384,36429,0
2452,36419,0
2521,36418,0
2498,36408,0
2452,36410,0
2354,36419,0
2226,36377,0
2100,36376,0
1976,36384,0
1860,36381,0
1760,36364,0
1692,36369,0
1658,36379,0
1672,36382,0
1720,36370,0
1749,36347,0
1908,36314,0
2000,36328,0
2164,36308,0
2240,36304,0
2360,36299,0
2408,36298,0
2424,36319,0
2352,36290,0
2288,36286,0
2176,36263,0
2052,36239,0
1952,36254,0
1810,36245,0
1680,36224,0
1574,36214,0
1444,36224,0
1424,36237,0
1462,36220,0
1624,36203,0
1724,36175,0
1856,36181,0
2000,36155,0
2136,36197,0
2258,36160,0
2352,36154,0
2416,36142,0
2436,36162,0
2408,36169,0
2329,36144,0
2203,36120,0
2104,36115,0
1905,36113,0
1812,36109,0
1640,36099,0
1597,36094,0
1474,36110,0
1501,36109,0
1506,36103,0
1588,36097,0
1592,36054,0
1716,36073,0
1868,36070,0
2016,36063,0
2172,36056,0
2266,36052,0
2329,36066,0
2344,36078,0
2272,36068,0
2221,36032,0
2120,36028,0
2076,36032,0
1944,36046,0
1824,36015,0
1716,36025,0
1624,36030,0
1562,36027,0
1535,36051,0
1548,36045,0
1600,36046,0
1692,36002,0
1808,36011,0
1916,36015,0
2058,36010,0
2144,36012,0
2276,36016,0
2308,36034,0
2364,36034,0
2320,36028,0
2282,35989,0
2174,36004,0
2068,36006,0
1866,36005,0
1740,36009,0
1624,36002,0
1538,36030,0
1541,36030,0
1486,36027,0
1540,36007,0
1600,35994,0
1644,36003,0
1782,36004,0
1932,36007,0
2146,36007,0
2296,36001,0
2392,36012,0
2448,36021,0
2476,36023,0
2454,36004,0
2392,36017,0
2296,36010,0
2168,36018,0
2026,36015,0
1904,36043,0
1757,36047,0
1680,36036,0
1552,36001,0
1584,36017,0
1546,36026,0
1660,36017,0
1712,36017,0
1872,36021,0
2000,36035,0
2140,36062,0
2204,36062,0
2304,36047,0
2368,36014,0
2386,36031,0
2392,36047,0
2321,36036,0
2212,36040,0
2090,36050,0
1912,36058,0
1762,36079,0
1656,36070,0
1664,36059,0
1616,36040,0
1589,36056,0
1628,36069,0
1672,36076,0
1768,36057,0
1880,36068,0
2016,36054,0
2140,36072,0
2256,36094,0
2344,36094,0
2386,36080,0
2400,36062,0
2344,36081,0
2296,36071,0
2160,36065,0
2068,36082,0
1880,36091,0
1800,36110,0
1662,36108,0
1598,36095,0
1440,36074,0
1416,36094,0
1442,36082,0
1514,36090,0
1673,36095,0
1794,36104,0
1928,36125,0
2083,36120,0
2168,36109,0
2274,36094,0
2360,36101,0
2448,36075,0
2448,36104,0
2400,36110,0
2312,36122,0
2201,36124,0
2088,36130,0
1976,36100,0
1880,36110,0
1788,36114,0
1738,36119,0
1789,36108,0
1750,36127,0
1834,36160,0
1880,36148,0
2047,36155,0
2152,36106,0
2324,36140,0
2408,36133,0
2524,36135,0
2584,36138,0
2610,36147,0
2536,36173,0
2452,36163,0
2338,36150,0
2203,36136,0
2104,36152,0
1948,36156,0
1816,36145,0
1698,36159,0
1568,36170,0
1532,36180,0
1552,36177,0
1704,36192,0
1796,36164,0
1918,36179,0
2060,36181,0
2184,36151,0
2296,36175,0
2384,36174,0
2452,36174,0
2464,36169,0
2436,36175,0
2384,36191,0
2245,36196,0
2132,36190,0
1962,36159,0
1876,36176,0
1712,36170,0
1668,36166,0
1544,36173,0
1576,36170,0
1572,36207,0
1642,36197,0
1650,36199,0
1782,36163,0
1910,36166,0
2048,36175,0
2208,36167,0
2290,36166,0
2352,36183,0
2368,36201,0
2304,36192,0
2240,36194,0
2092,36155,0
1972,36162,0
1864,36188,0
1728,36192,0
1632,36141,0
1578,36165,0
1544,36170,0
1564,36167,0
1616,36163,0
1720,36193,0
1824,36192,0
1977,36187,0
2098,36153,0
2202,36163,0
2328,36175,0
2376,36164,0
2442,36159,0
2385,36166,0
2356,36181,0
2252,36186,0
2088,36193,0
1956,36183,0
1834,36147,0
1708,36157,0
1616,36163,0
1594,36163,0
1588,36159,0
1568,36167,0
1612,36185,0
1656,36187,0
1776,36165,0
1924,36149,0
2136,36155,0
2404,36157,0
2360,36128,0
2420,36171,0
2448,36165,0
2428,36173,0
2360,36169,0
2266,36172,0
2148,36140,0
2016,36143,0
1888,36150,0
1768,36141,0
1680,36144,0
1568,36149,0
1600,36152,0
1572,36171,0
1697,36182,0
1752,36166,0
1924,36128,0
2052,36142,0
2192,36146,0
2256,36133,0
2364,36134,0
2412,36147,0
2432,36158,0
2434,36172,0
2346,36157,0
2236,36132,0
2112,36131,0
1920,36128,0
1784,36139,0
1684,36124,0
1680,36131,0
1624,36107,0
1608,36134,0
1620,36128,0
1704,36144,0
1794,36134,0
1916,36138,0
2052,36130,0
2192,36129,0
2312,36163,0
2402,36148,0
2464,36144,0
2480,36112,0
2440,36126,0
2396,36131,0
2264,36127,0
2180,36130,0
2016,36150,0
1938,36161,0
1820,36153,0
1736,36136,0
1588,36128,0
1561,36140,0
1600,36132,0
1664,36131,0
1808,36134,0
1928,36152,0
2066,36162,0
2202,36166,0
2280,36124,0
2392,36129,0
2476,36127,0
2556,36126,0
2544,36142,0
2488,36152,0
2404,36115,0
2276,36147,0
2144,36132,0
2012,36142,0
1898,36141,0
1790,36151,0
1722,36176,0
1688,36167,0
1695,36161,0
1740,36130,0
1769,36142,0
1924,36147,0
2012,36149,0
2176,36151,0
2256,36154,0
2380,36180,0
2412,36181,0
2444,36178,0
2348,36137,0
2274,36155,0
2154,36150,0
2033,36165,0
1918,36161,0
1773,36178,0
1648,36191,0
1540,36191,0
1428,36197,0
1404,36170,0
1436,36153,0
1713,36188,0
1716,36175,0
1832,36158,0
1970,36182,0
2090,36177,0
2200,36191,0
2268,36214,0
2325,36206,0
2348,36208,0
2328,36158,0
2290,36197,0
2240,36194,0
2188,36192,0
2117,36194,0
2120,36202,0
2084,36218,0
2160,36225,0
2202,36220,0
2380,36185,0
2559,36202,0
2796,36203,0
3048,36199,0
3332,36209,0
3632,36215,0
3904,36230,0
3980,36241,0
3972,36231,0
3981,36212,0
3972,36219,0
3992,36217,0
3988,36219,0
3956,36224,0
3904,36224,0
3804,36227,0
3688,36205,0
3536,36245,0
3408,36219,0
3276,36233,0
3156,36231,0
3088,36238,0
3032,36244,0
3038,36260,0
3044,36262,0
3076,36264,0
3128,36247,0
3168,36236,0
3184,36258,0
3172,36248,0
3144,36255,0
3044,36251,0
2942,36265,0
2788,36283,0
2620,36279,0
2401,36270,0
2210,36246,0
2048,36259,0
1904,36271,0
1824,36260,0
1744,36260,0
1700,36278,0
1702,36295,0
1689,36297,0
1792,36264,0
1910,36264,0
2104,36268,0
2218,36268,0
2308,36265,0
2368,36301,0
2388,36285,0
2364,36307,0
2312,36293,0
2204,36271,0
2084,36287,0
1954,36280,0
1824,36284,0
1691,36286,0
1600,36295,0
1472,36313,0
1504,36312,0
1456,36308,0
1564,36275,0
1600,36306,0
1769,36305,0
1880,36297,0
2032,36296,0
2084,36312,0
2176,36322,0
2248,36323,0
2272,36313,0
2284,36291,0
2216,36302,0
2102,36302,0
1970,36294,0
1784,36308,0
1668,36316,0
1544,36331,0
1560,36318,0
1498,36293,0
1492,36329,0
1508,36328,0
1572,36344,0
1680,36323,0
1788,36324,0
1936,36314,0
2047,36309,0
2172,36324,0
2260,36322,0
2312,36346,0
2336,36346,0
2272,36342,0
2232,36309,0
2080,36328,0
1992,36332,0
1800,36326,0
1732,36328,0
1588,36334,0
1508,36346,0
1348,36360,0
1320,36357,0
1348,36338,0
1410,36325,0
1568,36346,0
1674,36335,0
1809,36336,0
1952,36340,0
2036,36348,0
2152,36371,0
2240,36371,0
2320,36351,0
2312,36340,0
2260,36352,0
2168,36350,0
2047,36340,0
1930,36350,0
1800,36352,0
1688,36385,0
1590,36374,0
1535,36378,0
1512,36333,0
1505,36355,0
1584,36352,0
1626,36353,0
1808,36353,0
1906,36363,0
2084,36381,0
2184,36378,0
2302,36383,0
2360,36342,0
2400,36354,0
2320,36358,0
2252,36370,0
2138,36348,0
2018,36363,0
1936,36389,0
1785,36392,0
1656,36383,0
1556,36338,0
1416,36352,0
1398,36367,0
1600,36368,0
1720,36370,0
1848,36370,0
1988,36360,0
2132,36380,0
2264,36367,0
2364,36361,0
2424,36373,0
2456,36391,0
2424,36397,0
2360,36390,0
2255,36349,0
2120,36368,0
1964,36363,0
1856,36364,0
1712,36369,0
1676,36374,0
1544,36397,0
1560,36396,0
1574,36374,0
1585,36356,0
1678,36370,0
1818,36375,0
1956,36374,0
2121,36372,0
2272,36400,0
2380,36395,0
2456,36395,0
2472,36361,0
2432,36377,0
2370,36374,0
2292,36364,0
2240,36368,0
2136,36392,0
2032,36375,0
1924,36394,0
1844,36344,0
1780,36370,0
1772,36379,0
1780,36385,0
1828,36400,0
1920,36398,0
2032,36360,0
2152,36375,0
2284,36381,0
2360,36366,0
2476,36365,0
2508,36377,0
2552,36393,0
2496,36392,0
2448,36382,0
2352,36350,0
2232,36367,0
2048,36364,0
1893,36352,0
1772,36346,0
1684,36368,0
1660,36382,0
1624,36378,0
1632,36363,0
1673,36322,0
1720,36343,0
1856,36337,0
2000,36332,0
2216,36316,0
2352,36341,0
2456,36328,0
2526,36324,0
2548,36315,0
2536,36309,0
2464,36288,0
2364,36282,0
2248,36277,0
2114,36284,0
1976,36299,0
1838,36287,0
1752,36258,0
1616,36234,0
1640,36244,0
1600,36226,0
1708,36214,0
1748,36213,0
1889,36209,0
2018,36243,0
2144,36214,0
2208,36191,0
2308,36158,0
2358,36170,0
2388,36163,0
2384,36148,0
2292,36143,0
2184,36146,0
2064,36153,0
1872,36143,0
1744,36120,0
1648,36100,0
1642,36105,0
1584,36101,0
1576,36088,0
1584,36084,0
1650,36098,0
1753,36093,0
1860,36091,0
1992,36085,0
2148,36038,0
2256,36053,0
2352,36046,0
2411,36033,0
2425,36025,0
2392,36022,0
2324,36044,0
2196,36033,0
2100,36025,0
1908,35992,0
1826,35989,0
1689,35996,0
1618,35982,0
1440,35985,0
1416,35983,0
1444,35995,0
1493,35998,0
1632,35990,0
1770,35976,0
1900,35946,0
2033,35955,0
2112,35948,0
2224,35942,0
2320,35933,0
2388,35938,0
2376,35904,0
2320,35933,0
2244,35921,0
2108,35936,0
1988,35925,0
1852,35924,0
1742,35934,0
1636,35933,0
1574,35942,0
1548,35933,0
1532,35892,0
1606,35917,0
1636,35909,0
1808,35905,0
1900,35906,0
2084,35910,0
2162,35933,0
2300,35934,0
2372,35927,0
2388,35882,0
2308,35911,0
2245,35896,0
2140,35894,0
2016,35899,0
1913,35915,0
1776,35929,0
1653,35928,0
1549,35887,0
1424,35892,0
1378,35903,0
1418,35897,0
1588,35904,0
1696,35924,0
1824,35912,0
1976,35894,0
2116,35902,0
2248,35884,0
2344,35899,0
2413,35897,0
2420,35904,0
2396,35903,0
2328,35894,0
2201,35932,0
2084,35938,0
1906,35920,0
1810,35900,0
1656,35916,0
1596,35915,0
1476,35908,0
1500,35918,0
1512,35930,0
1572,35936,0
1584,35940,0
1704,35918,0
1846,35909,0
1994,35917,0
2146,35916,0
2256,35921,0
2308,35920,0
2321,35938,0
2272,35943,0
2226,35949,0
2124,35909,0
2080,35931,0
1964,35930,0
1856,35950,0
1741,35938,0
1648,35931,0
1590,35937,0
1561,35966,0
1576,35958,0
1628,35950,0
1730,35920,0
1848,35944,0
1970,35944,0
2114,35935,0
2184,35951,0
2320,35953,0
2344,35981,0
2384,35969,0
2340,35948,0
2304,35936,0
2188,35947,0
2076,35957,0
1872,35947,0
1732,35952,0
1600,35965,0
1516,35985,0
1506,35980,0
1472,35965,0
1485,35959,0
1530,35960,0
1580,35951,0
1705,35954,0
1868,35956,0
2104,35958,0
2248,35973,0
2348,35954,0
2424,35981,0
2456,35956,0
2434,35983,0
2370,35968,0
2262,35968,0
2136,35962,0
2004,35985,0
1872,36007,0
1736,35998,0
1648,35998,0
1522,35962,0
1554,35973,0
1528,35978,0
1640,35982,0
1682,35980,0
1864,36006,0
1984,36017,0
2144,36012,0
2208,36000,0
2312,35977,0
2384,35999,0
2416,35991,0
2420,35988,0
2337,35987,0
2236,36017,0
2100,36014,0
1908,36022,0
1776,35997,0
1668,35997,0
1661,36006,0
1600,36022,0
1600,36024,0
1624,35996,0
1684,36036,0
1785,36033,0
1908,35998,0
2033,36015,0
2164,36014,0
2282,36021,0
2384,36015,0
2432,36014,0
2472,36042,0
2388,36043,0
2360,36040,0
2228,35997,0
2132,36016,0
1952,36027,0
1874,36014,0
1736,36021,0
1658,36014,0
1484,36048,0
1457,36046,0
1472,36044,0
1536,36007,0
1682,36019,0
1796,36018,0
1926,36020,0
2056,36020,0
2128,36024,0
2245,36044,0
2408,36008,0
2394,36009,0
2322,36043,0
2236,35997,0
2108,36023,0
1992,36042,0
1848,36023,0
1724,36010,0
1632,36030,0
1568,36024,0
1528,36021,0
1543,36030,0
1588,36037,0
1640,36042,0
1798,36043,0
1896,36010,0
2096,36018,0
2176,36029,0
2308,36018,0
2368,36015,0
2344,36027,0
2320,36042,0
2245,36049,0
2152,36048,0
2012,36003,0
1924,36020,0
1783,36016,0
1646,36015,0
1536,36016,0
1408,36017,0
1384,36047,0
1418,36035,0
1596,36008,0
1708,36006,0
1833,36022,0
1984,36002,0
2144,36021,0
2276,36014,0
2376,36015,0
2460,36012,0
2488,36009,0
2464,36037,0
2408,36037,0
2293,36022,0
2188,35990,0
2012,36009,0
1924,36013,0
1760,36005,0
1704,36010,0
1564,36019,0
1596,36037,0
1596,36028,0
1660,36017,0
1664,35988,0
1780,36008,0
1924,36002,0
2057,36003,0
2220,36000,0
2308,35999,0
2369,36025,0
2376,36029,0
2316,36022,0
2264,35987,0
2164,36002,0
2129,35999,0
1986,36022,0
1868,36000,0
1768,36023,0
1668,36020,0
1597,36024,0
1568,36017,0
1584,35990,0
1638,35998,0
1728,35998,0
1836,36001,0
1946,35994,0
2100,36016,0
2192,36032,0
2324,36022,0
2360,36007,0
2408,35980,0
2368,36001,0
2336,36004,0
2224,35991,0
2112,36006,0
1925,36016,0
1798,36035,0
1656,36014,0
1568,36004,0
1548,35993,0
1524,36006,0
1533,36001,0
1589,35998,0
1624,36002,0
1756,36003,0
1906,36030,0
2124,36005,0
2264,36006,0
2377,36002,0
2444,35999,0
2466,36007,0
2448,36004,0
2376,36001,0
2276,36004,0
2152,36005,0
2018,36023,0
1890,36027,0
1758,36037,0
1650,36010,0
1526,36002,0
1532,36014,0
1500,36005,0
1592,36010,0
1628,36010,0
1773,36035,0
1890,36046,0
2028,36046,0
2084,36026,0
2170,36008,0
2232,36016,0
2260,36021,0
2252,36021,0
2177,36024,0
2069,36028,0
1948,36052,0
1752,36048,0
1622,36050,0
1504,36008,0
1504,36049,0
1440,36026,0
1402,36037,0
1428,36035,0
1482,36049,0
1584,36063,0
1716,36065,0
1884,36024,0
2076,36043,0
2260,36041,0
2436,36036,0
2609,36048,0
2744,36047,0
2832,36069,0
2940,36070,0
3012,36071,0
3092,36037,0
3136,36048,0
3224,36058,0
3320,36064,0
3416,36059,0
3520,36082,0
3636,36092,0
3761,36091,0
3884,36097,0
3960,36052,0
3968,36072,0
3970,36073,0
3972,36072,0
3976,36073,0
3984,36080,0
3968,36101,0
3952,36102,0
3928,36078,0
3864,36099,0
3760,36094,0
3600,36095,0
3432,36084,0
3232,36081,0
3066,36081,0
2890,36110,0
2736,36127,0
2616,36123,0
2520,36095,0
2480,36091,0
2432,36092,0
2464,36097,0
2468,36101,0
2532,36106,0
2544,36124,0
2572,36129,0
2556,36125,0
2522,36091,0
2384,36102,0
2280,36107,0
2144,36113,0
1972,36106,0
1856,36124,0
1700,36141,0
1548,36144,0
1429,36129,0
1282,36100,0
1256,36127,0
1280,36124,0
1456,36136,0
1549,36123,0
1680,36133,0
1824,36108,0
1968,36143,0
2104,36123,0
2196,36120,0
2256,36142,0
2272,36124,0
2240,36138,0
2168,36142,0
2045,36169,0
1932,36170,0
1732,36159,0
1648,36129,0
1484,36145,0
1433,36147,0
1312,36151,0
1320,36149,0
1338,36161,0
1402,36167,0
1414,36170,0
1530,36144,0
1696,36144,0
1846,36150,0
2026,36157,0
2116,36148,0
2196,36157,0
2224,36184,0
2136,36183,0
2090,36175,0
2000,36142,0
1952,36151,0
1816,36189,0
1692,36163,0
1577,36168,0
1485,36187,0
1416,36190,0
1388,36195,0
1397,36156,0
1464,36174,0
1548,36168,0
1680,36167,0
1794,36173,0
1942,36177,0
2024,36195,0
2152,36211,0
2176,36202,0
2234,36172,0
2160,36177,0
2144,36185,0
2020,36178,0
1916,36177,0
1690,36192,0
1548,36207,0
1418,36219,0
1322,36213,0
1308,36163,0
1280,36190,0
1280,36190,0
1334,36192,0
1370,36200,0
1498,36210,0
1664,36223,0
1892,36176,0
2044,36198,0
2156,36194,0
2224,36223,0
2272,36197,0
2256,36202,0
2192,36198,0
2088,36203,0
1961,36230,0
1830,36238,0
1662,36228,0
1557,36196,0
1449,36214,0
1329,36209,0
1360,36211,0
1320,36220,0
1429,36245,0
1474,36236,0
1640,36247,0
1765,36200,0
1920,36223,0
1978,36231,0
2085,36223,0
2148,36223,0
2192,36232,0
2200,36246,0
2126,36251,0
2016,36247,0
1893,36208,0
1696,36231,0
1552,36231,0
1448,36265,0
1394,36247,0
1368,36248,0
1385,36233,0
1450,36254,0
1550,36222,0
1680,36237,0
1820,36244,0
1960,36258,0
2080,36262,0
2176,36233,0
2227,36224,0
2257,36244,0
2200,36238,0
2176,36240,0
2024,36249,0
1948,36270,0
1780,36263,0
1676,36271,0
1548,36231,0
1364,36237,0
1301,36244,0
1275,36247,0
1298,36249,0
1376,36257,0
1526,36273,0
1660,36270,0
1788,36252,0
1942,36240,0
2018,36258,0
2140,36252,0
2232,36257,0
2316,36265,0
2312,36266,0
2252,36254,0
2160,36251,0
2052,36271,0
1919,36248,0
1784,36252,0
1736,36265,0
1576,36288,0
1507,36283,0
1480,36266,0
1483,36249,0
1544,36247,0
1578,36246,0
1756,36238,0
1848,36248,0
2040,36278,0
2130,36261,0
2258,36268,0
2322,36223,0
2360,36247,0
2276,36238,0
2221,36232,0
2112,36232,0
1984,36232,0
1898,36248,0
1752,36242,0
1620,36233,0
1520,36206,0
1400,36214,0
1376,36200,0
1408,36191,0
1576,36192,0
1662,36214,0
1840,36207,0
1956,36180,0
2096,36181,0
2236,36155,0
2332,36166,0
2400,36152,0
2424,36149,0
2404,36149,0
2336,36158,0
2217,36160,0
2108,36151,0
1928,36132,0
1836,36093,0
1664,36105,0
1625,36099,0
1504,36091,0
1516,36077,0
1521,36094,0
1596,36097,0
1602,36091,0
1728,36088,0
1864,36037,0
2004,36051,0
2180,36045,0
2264,36036,0
2320,36025,0
2328,36034,0
2266,36040,0
2201,36032,0
2113,35997,0
2060,35986,0
1937,36010,0
1812,35988,0
1696,35979,0
1600,35975,0
1534,35997,0
1509,35978,0
1524,35947,0
1584,35958,0
1672,35947,0
1785,35946,0
1888,35938,0
2047,35960,0
2136,35958,0
2264,35937,0
2300,35913,0
2344,35911,0
2284,35907,0
2250,35901,0
2148,35902,0
2024,35917,0
1808,35919,0
1668,35904,0
1542,35870,0
1453,35876,0
1445,35881,0
1413,35878,0
1424,35873,0
1473,35894,0
1512,35899,0
1648,35884,0
1802,35847,0
2042,35871,0
2172,35851,0
2280,35876,0
2352,35829,0
2376,35866,0
2360,35858,0
2300,35865,0
2194,35859,0
2068,35838,0
1924,35833,0
1778,35840,0
1645,35833,0
1552,35832,0
1408,35831,0
1436,35853,0
1388,35856,0
1500,35838,0
1528,35815,0
1704,35830,0
1828,35823,0
1968,35832,0
2040,35823,0
2124,35854,0
2208,35847,0
2232,35851,0
2232,35809,0
2164,35831,0
2064,35827,0
1932,35822,0
1728,35822,0
1586,35854,0
1480,35849,0
1493,35824,0
1440,35842,0
1402,35831,0
1430,35828,0
1492,35866,0
1588,35824,0
1700,35825,0
1840,35834,0
1984,35864,0
2092,35851,0
2196,35845,0
2240,35820,0
2268,35834,0
2196,35828,0
2160,35835,0
2024,35841,0
1932,35859,0
1760,35871,0
1662,35863,0
1540,35819,0
1448,35832,0
1280,35844,0
1256,35840,0
1283,35844,0
1347,35848,0
1500,35876,0
1637,35871,0
1774,35851,0
1916,35845,0
2000,35856,0
2112,35863,0
2202,35856,0
2296,35871,0
2290,35880,0
2232,35860,0
2144,35863,0
2036,35879,0
1904,35857,0
1764,35863,0
1650,35887,0
1552,35890,0
1491,35845,0
1448,35865,0
1436,35867,0
1533,35867,0
1555,35874,0
1732,35871,0
1825,35894,0
2020,35902,0
2104,35886,0
2232,35867,0
2296,35885,0
2324,35880,0
2244,35879,0
2168,35888,0
2056,35909,0
1924,35897,0
1824,35905,0
1680,35867,0
1552,35894,0
1444,35887,0
1314,35887,0
1288,35890,0
1334,35888,0
1517,35902,0
1616,35900,0
1756,35886,0
1912,35907,0
2064,35887,0
2196,35894,0
2304,35917,0
2374,35923,0
2408,35914,0
2380,35876,0
2312,35896,0
2195,35909,0
2088,35897,0
1898,35900,0
1818,35920,0
1648,35936,0
1600,35931,0
1464,35908,0
1500,35893,0
1498,35905,0
1586,35913,0
1592,35908,0
1720,35926,0
1869,35930,0
2012,35936,0
2184,35940,0
2297,35924,0
2341,35906,0
2347,35927,0
2288,35925,0
2230,35917,0
2106,35947,0
1976,35947,0
1852,35900,0
1732,35948,0
1640,35928,0
1588,35941,0
1552,35923,0
1573,35931,0
1626,35924,0
1720,35931,0
1828,35939,0
1956,35957,0
2100,35970,0
2176,35958,0
2320,35923,0
2360,35926,0
2400,35937,0
2352,35937,0
2316,35933,0
2212,35939,0
2032,35967,0
1894,35978,0
1760,35955,0
1634,35923,0
1532,35944,0
1508,35935,0
1469,35943,0
1472,35938,0
1515,35948,0
1548,35982,0
1677,35963,0
1840,35946,0
2072,35951,0
2192,35929,0
2296,35969,0
2374,35948,0
2400,35939,0
2380,35943,0
2320,35934,0
2220,35935,0
2096,35940,0
1968,35943,0
1826,35939,0
1681,35968,0
1512,35970,0
1476,35973,0
1505,35934,0
1464,35944,0
1576,35945,0
1612,35941,0
1784,35945,0
1904,35951,0
2056,35973,0
2116,35969,0
2218,35955,0
2284,35935,0
2306,35949,0
2320,35946,0
2241,35943,0
2129,35947,0
2000,35959,0
1824,35964,0
1688,35973,0
1584,35929,0
1592,35951,0
1545,35952,0
1532,35946,0
1570,35922,0
1640,35954,0
1744,35963,0
1872,35954,0
2013,35926,0
2152,35944,0
2274,35941,0
2364,35935,0
2427,35933,0
2450,35951,0
2384,35957,0
2368,35956,0
2216,35949,0
2120,35923,0
1946,35936,0
1848,35930,0
1704,35925,0
1628,35936,0
1464,35956,0
1432,35961,0
1456,35947,0
1516,35914,0
1664,35940,0
1796,35940,0
1922,35933,0
2058,35936,0
2144,35953,0
2248,35972,0
2328,35952,0
2424,35934,0
2416,35918,0
2372,35946,0
2280,35956,0
2160,35946,0
2028,35935,0
1912,35934,0
1786,35972,0
1692,35964,0
1604,35954,0
1576,35918,0
1574,35942,0
1648,35934,0
1680,35931,0
1858,35931,0
1944,35949,0
2128,35958,0
2208,35963,0
2344,35938,0
2416,35938,0
2424,35942,0
2360,35933,0
2289,35931,0
2176,35940,0
2052,35972,0
1925,35957,0
1795,35962,0
1657,35936,0
1548,35945,0
1412,35947,0
1389,35950,0
1425,35955,0
1586,35927,0
1688,35957,0
1816,35949,0
2042,35936,0
2106,35971,0
2228,35948,0
2330,35948,0
2386,35949,0
2404,35943,0
2388,35956,0
2322,35982,0
2184,35976,0
2064,35979,0
1876,35928,0
1776,35953,0
1592,35958,0
1540,35959,0
1400,35963,0
1428,35963,0
1416,35977,0
1488,35988,0
1489,35953,0
1622,35957,0
1760,35959,0
1909,35962,0
2076,35967,0
2162,35966,0
2213,35981,0
2208,35994,0
2132,36000,0
2052,35944,0
1928,35981,0
1878,35996,0
1760,35991,0
1648,35972,0
1556,35979,0
1576,35982,0
1528,35970,0
1592,35979,0
1708,35972,0
1884,35990,0
2112,35971,0
2361,35988,0
2677,36004,0
2988,36016,0
3280,36012,0
3582,35979,0
3848,36002,0
3960,35991,0
3976,36004,0
3960,35995,0
3956,35996,0
3952,36034,0
3944,36035,0
3872,36024,0
3780,35992,0
3668,36007,0
3536,36010,0
3433,36013,0
3328,36010,0
3268,36014,0
3224,36038,0
3221,36049,0
3272,36035,0
3320,36039,0
3348,35997,0
3368,36031,0
3368,36022,0
3320,36030,0
3264,36053,0
3144,36053,0
2992,36045,0
2824,36023,0
2624,36037,0
2428,36036,0
2248,36032,0
2084,36042,0
1904,36057,0
1860,36070,0
1752,36062,0
1784,36017,0
1746,36040,0
1856,36038,0
1936,36034,0
2024,36047,0
2048,36070,0
2117,36076,0
2152,36068,0
2156,36036,0
2152,36053,0
2072,36050,0
1969,36051,0
1836,36050,0
1636,36068,0
1527,36080,0
1425,36077,0
1440,36057,0
1400,36066,0
1388,36049,0
1421,36082,0
1496,36060,0
1594,36077,0
1728,36095,0
1868,36080,0
1992,36064,0
2104,36056,0
2196,36062,0
2237,36065,0
2272,36061,0
2202,36062,0
2169,36095,0
2024,36097,0
1940,36092,0
1736,36066,0
1660,36068,0
1528,36083,0
1442,36069,0
1265,36074,0
1242,36070,0
1262,36093,0
1326,36105,0
1488,36101,0
1614,36057,0
1756,36081,0
1888,36070,0
1984,36077,0
2096,36081,0
2200,36084,0
2290,36087,0
2282,36082,0
2216,36063,0
2120,36103,0
2004,36098,0
1868,36069,0
1738,36093,0
1604,36087,0
1504,36085,0
1424,36096,0
1388,36118,0
1392,36113,0
1456,36116,0
1494,36086,0
1678,36092,0
1748,36101,0
1938,36090,0
2008,36092,0
2168,36097,0
2212,36134,0
2256,36131,0
2176,36121,0
2104,36085,0
1993,36105,0
1864,36116,0
1762,36088,0
1636,36112,0
1499,36113,0
1388,36132,0
1256,36143,0
1240,36142,0
1453,36152,0
1552,36126,0
1696,36122,0
1854,36142,0
2000,36120,0
2136,36117,0
2232,36119,0
2308,36116,0
2344,36130,0
2328,36151,0
2256,36146,0
2162,36113,0
2036,36123,0
1852,36131,0
1772,36117,0
1596,36130,0
1549,36121,0
1484,36146,0
1456,36143,0
1472,36149,0
1432,36113,0
1544,36119,0
1672,36129,0
1810,36123,0
1960,36127,0
2132,36142,0
2216,36154,0
2277,36165,0
2296,36145,0
2232,36131,0
2165,36147,0
2072,36129,0
2033,36152,0
1902,36130,0
1772,36157,0
1664,36157,0
1568,36129,0
1520,36115,0
1490,36144,0
1504,36149,0
1560,36136,0
1656,36142,0
1769,36162,0
1888,36173,0
2044,36159,0
2121,36125,0
2264,36147,0
2280,36143,0
2344,36134,0
2292,36138,0
2256,36148,0
2138,36173,0
2016,36173,0
1813,36155,0
1672,36142,0
1546,36149,0
1453,36147,0
1450,36145,0
1420,36155,0
1426,36170,0
1490,36171,0
1520,36171,0
1658,36146,0
1834,36152,0
2058,36144,0
2201,36162,0
2316,36141,0
2398,36143,0
2420,36167,0
2420,36141,0
2344,36150,0
2260,36147,0
2121,36149,0
1996,36151,0
1866,36170,0
1748,36175,0
1656,36130,0
1525,36130,0
1560,36135,0
1538,36142,0
1644,36133,0
1688,36142,0
1876,36157,0
1996,36147,0
2156,36133,0
2232,36115,0
2338,36126,0
2418,36119,0
2456,36112,0
2464,36121,0
2401,36145,0
2292,36127,0
2180,36103,0
2002,36089,0
1884,36088,0
1764,36074,0
1768,36078,0
1722,36088,0
1696,36056,0
1712,36067,0
1766,36049,0
1860,36033,0
1980,36030,0
2112,36029,0
2400,36020,0
2348,36021,0
2448,36036,0
2505,36030,0
2532,36027,0
2464,35977,0
2424,35999,0
2304,35980,0
2210,35976,0
2032,35980,0
1944,35994,0
1816,35990,0
1712,35975,0
1554,35930,0
1524,35951,0
1536,35940,0
1592,35934,0
1733,35934,0
1840,35959,0
1964,35952,0
2093,35913,0
2164,35896,0
2266,35896,0
2340,35899,0
2420,35876,0
2402,35896,0
2344,35875,0
2260,35888,0
2136,35879,0
2000,35863,0
1880,35863,0
1762,35862,0
1656,35871,0
1580,35871,0
1548,35877,0
1536,35832,0
1616,35844,0
1652,35837,0
1826,35820,0
1922,35811,0
2088,35832,0
2176,35854,0
2308,35838,0
2376,35816,0
2408,35804,0
2328,35803,0
2272,35798,0
2176,35799,0
2048,35799,0
1948,35816,0
1815,35818,0
1680,35811,0
1590,35769,0
1452,35788,0
1441,35783,0
1476,35773,0
1640,35778,0
1748,35787,0
1873,35812,0
2000,35797,0
2148,35776,0
2280,35755,0
2376,35781,0
2440,35771,0
2480,35770,0
2440,35758,0
2368,35780,0
2261,35795,0
2122,35788,0
1952,35747,0
1864,35767,0
1689,35764,0
1636,35762,0
1512,35761,0
1540,35781,0
1534,35800,0
1604,35785,0
1612,35745,0
1728,35771,0
1872,35773,0
2016,35769,0
2180,35771,0
2248,35784,0
2300,35795,0
2332,35801,0
2256,35757,0
2210,35768,0
2104,35783,0
2052,35775,0
1932,35792,0
1790,35796,0
1680,35777,0
1580,35757,0
1520,35782,0
1481,35779,0
1501,35780,0
1554,35798,0
1641,35805,0
1760,35800,0
1879,35776,0
2021,35784,0
2106,35784,0
2248,35781,0
2272,35785,0
2328,35790,0
2276,35816,0
2240,35818,0
2136,35804,0
2025,35782,0
1812,35795,0
1684,35790,0
1556,35799,0
1456,35801,0
1450,35834,0
1424,35830,0
1430,35820,0
1473,35798,0
1520,35803,0
1666,35806,0
1816,35811,0
2042,35812,0
2192,35803,0
2288,35828,0
2352,35813,0
2388,35810,0
2372,35837,0
2308,35840,0
2204,35833,0
2088,35807,0
1952,35833,0
1804,35830,0
1676,35828,0
1592,35820,0
1458,35840,0
1484,35853,0
1458,35852,0
1560,35820,0
1604,35836,0
1780,35841,0
1912,35842,0
2056,35832,0
2122,35845,0
2240,35864,0
2312,35857,0
2346,35839,0
2344,35839,0
2300,35844,0
2188,35845,0
2066,35850,0
1892,35854,0
1754,35879,0
1642,35877,0
1648,35832,0
1600,35858,0
1576,35885,0
1592,35862,0
1661,35868,0
1744,35873,0
1864,35866,0
2004,35866,0
2140,35873,0
2260,35889,0
2360,35893,0
2402,35886,0
2432,35866,0
2384,35877,0
2356,35876,0
2212,35879,0
2132,35885,0
1962,35905,0
1874,35914,0
1760,35900,0
1656,35878,0
1520,35886,0
1489,35887,0
1507,35898,0
1577,35892,0
1728,35917,0
1848,35924,0
1964,35929,0
2104,35877,0
2192,35897,0
2308,35902,0
2468,35916,0
2474,35925,0
2412,35875,0
2326,35921,0
2212,35919,0
2090,35892,0
1952,35906,0
1828,35916,0
1736,35904,0
1658,35899,0
1616,35915,0
1609,35938,0
1674,35934,0
1704,35923,0
1872,35890,0
1960,35915,0
2124,35905,0
2216,35911,0
2324,35914,0
2388,35940,0
2360,35937,0
2340,35921,0
2293,35901,0
2192,35920,0
2058,35914,0
1968,35908,0
1820,35916,0
1693,35943,0
1576,35932,0
1448,35895,0
1417,35904,0
1449,35913,0
1612,35916,0
1704,35896,0
1832,35917,0
1964,35921,0
2116,35911,0
2250,35912,0
2340,35905,0
2408,35907,0
2432,35941,0
2409,35936,0
2344,35922,0
2232,35888,0
2116,35899,0
1936,35916,0
1856,35915,0
1680,35919,0
1632,35934,0
1504,35935,0
1535,35935,0
1538,35887,0
1604,35908,0
1613,35906,0
1744,35912,0
1885,35915,0
2036,35921,0
2216,35936,0
2313,35931,0
2376,35883,0
2397,35911,0
2360,35913,0
2304,35906,0
2220,35911,0
2176,35894,0
2072,35938,0
1956,35950,0
1846,35933,0
1756,35913,0
1688,35907,0
1668,35920,0
1674,35938,0
1726,35927,0
1820,35915,0
1920,35899,0
2034,35898,0
2184,35914,0
2288,35910,0
2392,35916,0
2424,35926,0
2480,35936,0
2428,35887,0
2400,35924,0
2296,35905,0
2184,35911,0
1992,35911,0
1858,35936,0
1744,35934,0
1633,35942,0
1620,35902,0
1588,35912,0
1592,35923,0
1630,35900,0
1656,35912,0
1784,35916,0
1944,35936,0
2152,35900,0
2288,35896,0
2392,35924,0
2472,35918,0
2504,35914,0
2480,35939,0
2418,35904,0
2324,35919,0
2202,35916,0
2086,35908,0
1948,35924,0
1819,35951,0
1720,35948,0
1600,35924,0
1620,35914,0
1580,35931,0
1680,35923,0
1718,35926,0
1880,35935,0
1992,35947,0
2152,35948,0
2208,35903,0
2321,35929,0
2396,35934,0
2410,35925,0
2410,35929,0
2368,35931,0
2250,35964,0
2123,35941,0
1930,35936,0
1802,35918,0
1692,35930,0
1692,35922,0
1626,35958,0
1608,35953,0
1625,35939,0
1680,35942,0
1756,35943,0
1860,35939,0
1986,35943,0
2100,35943,0
2208,35968,0
2284,35962,0
2336,35969,0
2352,35943,0
2272,35954,0
2232,35940,0
2088,35950,0
1996,35956,0
1824,35973,0
1736,35983,0
1609,35933,0
1528,35957,0
1364,35957,0
1333,35962,0
1332,35958,0
1378,35971,0
1498,35982,0
1602,35986,0
1728,35953,0
1862,35968,0
1956,35971,0
2106,35963,0
2256,35983,0
2400,35998,0
2480,35973,0
2536,35973,0
2559,36002,0
2576,35979,0
2592,36012,0
2616,36021,0
2680,36015,0
2760,35977,0
2866,35991,0
3008,35992,0
3153,36001,0
3320,36007,0
3496,36033,0
3668,36027,0
3848,36021,0
3952,35998,0
3956,36006,0
3960,36000,0
3964,36003,0
3940,36014,0
3936,36046,0
3828,36032,0
3696,36017,0
3520,36010,0
3336,36027,0
3142,36028,0
2962,36011,0
2790,36039,0
2656,36052,0
2544,36049,0
2496,36011,0
2544,36033,0
2572,36018,0
2616,36038,0
2696,36036,0
2756,36060,0
2800,36046,0
2840,36039,0
2844,36044,0
2808,36043,0
2736,36052,0
2616,36054,0
2461,36078,0
2296,36069,0
2072,36064,0
1948,36046,0
1740,36060,0
1658,36048,0
1504,36048,0
1504,36066,0
1464,36080,0
1520,36094,0
1500,36088,0
1602,36057,0
1737,36064,0
1872,36058,0
2036,36066,0
2120,36063,0
2176,36087,0
2184,36101,0
2116,36087,0
2080,36060,0
1969,36080,0
1932,36070,0
1812,36071,0
1682,36103,0
1568,36070,0
1472,36077,0
1422,36099,0
1388,36114,0
1402,36104,0
1462,36062,0
1552,36090,0
1680,36083,0
1794,36080,0
1944,36080,0
2034,36107,0
2168,36107,0
2200,36107,0
2272,36087,0
2208,36098,0
2176,36096,0
2076,36099,0
1956,36093,0
1748,36124,0
1608,36116,0
1490,36105,0
1376,36083,0
1377,36096,0
1341,36096,0
1331,36098,0
1376,36103,0
1416,36127,0
1546,36122,0
1712,36106,0
1936,36119,0
2072,36112,0
2180,36103,0
2244,36112,0
2280,36101,0
2266,36110,0
2192,36121,0
2080,36136,0
1956,36134,0
1812,36115,0
1680,36108,0
1536,36119,0
1460,36113,0
1324,36120,0
1364,36131,0
1324,36140,0
1452,36147,0
1489,36139,0
1670,36113,0
1790,36124,0
1956,36134,0
2016,36114,0
2120,36134,0
2180,36150,0
2220,36161,0
2228,36117,0
2154,36131,0
2041,36130,0
1920,36125,0
1760,36132,0
1582,36146,0
1472,36178,0
1420,36155,0
1398,36145,0
1428,36146,0
1488,36158,0
1584,36139,0
1704,36143,0
1842,36144,0
1980,36137,0
2106,36166,0
2208,36167,0
2283,36181,0
2320,36153,0
2256,36149,0
2244,36149,0
2096,36147,0
2008,36160,0
1840,36169,0
1760,36175,0
1640,36183,0
1458,36139,0
1388,36156,0
1366,36164,0
1386,36152,0
1448,36152,0
1602,36179,0
1722,36184,0
1854,36180,0
1976,36153,0
2084,36165,0
2195,36161,0
2276,36157,0
2376,36178,0
2360,36176,0
2336,36170,0
2225,36176,0
2104,36186,0
1980,36168,0
1842,36174,0
1730,36167,0
1632,36192,0
1552,36203,0
1526,36197,0
1508,36155,0
1580,36167,0
1610,36171,0
1788,36170,0
1882,36170,0
2052,36199,0
2148,36194,0
2168,36184,0
2354,36162,0
2392,36179,0
2336,36178,0
2280,36164,0
2202,36192,0
2084,36193,0
2000,36197,0
1870,36156,0
1748,36172,0
1650,36174,0
1528,36169,0
1504,36169,0
1544,36186,0
1720,36165,0
1818,36171,0
1940,36177,0
2092,36196,0
2233,36155,0
2362,36184,0
2452,36145,0
2512,36165,0
2544,36159,0
2520,36157,0
2452,36159,0
2344,36190,0
2240,36183,0
2056,36176,0
1976,36137,0
1798,36149,0
1760,36148,0
1632,36151,0
1648,36144,0
1660,36159,0
1724,36157,0
1744,36155,0
1857,36112,0
2008,36116,0
2153,36123,0
2312,36101,0
2413,36103,0
2470,36123,0
2509,36125,0
2442,36103,0
2384,36074,0
2288,36082,0
2232,36089,0
2128,36077,0
1992,36067,0
1880,36087,0
1791,36012,0
1730,36043,0
1682,36040,0
1698,36043,0
1746,36055,0
1816,36044,0
1920,35999,0
2035,36009,0
2172,35998,0
2248,36002,0
2364,35986,0
2400,36015,0
2440,36002,0
2393,35984,0
2352,35952,0
2240,35969,0
2120,35954,0
1920,35948,0
1782,35949,0
1652,35961,0
1552,35953,0
1540,35935,0
1508,35924,0
1506,35921,0
1556,35918,0
1588,35900,0
1718,35911,0
1864,35917,0
2080,35896,0
2216,35888,0
2320,35864,0
2388,35880,0
2416,35877,0
2404,35868,0
2336,35863,0
2238,35894,0
2128,35888,0
1981,35856,0
1845,35845,0
1714,35849,0
1632,35834,0
1498,35836,0
1521,35832,0
1484,35859,0
1586,35851,0
1626,35821,0
1786,35809,0
1912,35823,0
2047,35811,0
2124,35805,0
2208,35813,0
2288,35829,0
2307,35828,0
2314,35806,0
2250,35783,0
2134,35798,0
2014,35800,0
1826,35791,0
1690,35799,0
1580,35816,0
1592,35808,0
1517,35782,0
1516,35778,0
1496,35777,0
1580,35877,0
1678,35769,0
1794,35780,0
1929,35808,0
2068,35796,0
2196,35778,0
2296,35774,0
2354,35774,0
2392,35779,0
2344,35781,0
2324,35782,0
2202,35803,0
2106,35802,0
1944,35792,0
1856,35766,0
1720,35777,0
1641,35775,0
1472,35785,0
1444,35787,0
1450,35812,0
1510,35802,0
1664,35779,0
1776,35778,0
1889,35786,0
2024,35780,0
2114,35789,0
2209,35787,0
2298,35811,0
2392,35784,0
2388,35802,0
2330,35782,0
2236,35796,0
2128,35801,0
1996,35820,0
1860,35815,0
1740,35768,0
1652,35799,0
1576,35799,0
1544,35788,0
1563,35798,0
1612,35825,0
1648,35836,0
1820,35814,0
1920,35803,0
2100,35810,0
2176,35811,0
2288,35806,0
2384,35806,0
2420,35829,0
2352,35831,0
2304,35816,0
2184,35808,0
2058,35820,0
1960,35813,0
1834,35816,0
1692,35840,0
1580,35848,0
1450,35851,0
1410,35812,0
1426,35819,0
1496,35839,0
1688,35839,0
1796,35829,0
1936,35824,0
2064,35805,0
2192,35832,0
2272,35826,0
2330,35824,0
2346,35841,0
2328,35860,0
2260,35854,0
2148,35828,0
2047,35836,0
1860,35839,0
1784,35833,0
1616,35842,0
1576,35871,0
1444,35870,0
1484,35860,0
1497,35835,0
1564,35854,0
1574,35838,0
1704,35850,0
1824,35856,0
1976,35876,0
2144,35872,0
2240,35830,0
2308,35854,0
2328,35856,0
2272,35853,0
2224,35860,0
2084,35913,0
1972,35869,0
1856,35883,0
1736,35869,0
1644,35896,0
1588,35868,0
1553,35858,0
1568,35885,0
1624,35902,0
1704,35900,0
1820,35858,0
1924,35866,0
2088,35884,0
2156,35882,0
2288,35890,0
2328,35898,0
2392,35911,0
2352,35903,0
2308,35871,0
2208,35891,0
2034,35895,0
1904,35892,0
1768,35897,0
1664,35914,0
1552,35923,0
1538,35915,0
1522,35882,0
1512,35908,0
1558,35897,0
1604,35903,0
1720,35903,0
1864,35927,0
2090,35913,0
2220,35879,0
2328,35907,0
2396,35917,0
2432,35900,0
2408,35936,0
2344,35944,0
2234,35895,0
2124,35909,0
1988,35902,0
1842,35907,0
1722,35900,0
1616,35931,0
1492,35934,0
1512,35896,0
1464,35908,0
1576,35909,0
1620,35910,0
1784,35912,0
1904,35919,0
2060,35934,0
2112,35934,0
2228,35891,0
2296,35903,0
2312,35910,0
2328,35910,0
2258,35913,0
2162,35938,0
2036,35930,0
1842,35919,0
1717,35916,0
1604,35913,0
1622,35920,0
1554,35928,0
1544,35904,0
1560,35900,0
1641,35905,0
1746,35883,0
1864,35907,0
2006,35908,0
2148,35908,0
2268,35902,0
2376,35925,0
2422,35935,0
2464,35913,0
2412,35896,0
2360,35900,0
2240,35910,0
2160,35898,0
1984,35908,0
1876,35923,0
1754,35935,0
1670,35898,0
1506,35901,0
1478,35906,0
1496,35899,0
1562,35899,0
1718,35916,0
1824,35934,0
1950,35928,0
2093,35891,0
2192,35908,0
2304,35902,0
2372,35904,0
2456,35912,0
2464,35885,0
2416,35904,0
2332,35896,0
2232,35918,0
2105,35896,0
1972,35897,0
1862,35908,0
1760,35928,0
1678,35924,0
1638,35898,0
1629,35893,0
1688,35898,0
1716,35894,0
1872,35892,0
1952,35915,0
2124,35917,0
2204,35916,0
2338,35888,0
2384,35892,0
2416,35892,0
2332,35895,0
2260,35909,0
2168,35927,0
2029,35916,0
1906,35887,0
1804,35898,0
1672,35890,0
1558,35886,0
1440,35893,0
1408,35919,0
1448,35921,0
1608,35898,0
1726,35913,0
1840,35894,0
2005,35904,0
2140,35901,0
2276,35893,0
2372,35884,0
2440,35904,0
2452,35933,0
2436,35918,0
2376,35911,0
2285,35897,0
2176,35897,0
1988,35889,0
1812,35900,0
1746,35908,0
1688,35935,0
1578,35932,0
1577,35894,0
1588,35897,0
1657,35909,0
1652,35906,0
1760,35916,0
1896,35919,0
2028,35938,0
2192,35931,0
2281,35891,0
2331,35904,0
2344,35907,0
2281,35908,0
2232,35916,0
2136,35931,0
2096,35928,0
1974,35921,0
1852,35917,0
1740,35918,0
1653,35934,0
1576,35912,0
1552,35933,0
1576,35950,0
1588,35944,0
1685,35927,0
1789,35924,0
1903,35924,0
2047,35920,0
2112,35929,0
2232,35946,0
2272,35957,0
2322,35965,0
2256,35921,0
2236,35932,0
2132,35935,0
2017,35930,0
1794,35941,0
1648,35976,0
1498,35970,0
1384,35971,0
1312,35937,0
1298,35949,0
1304,35944,0
1364,35949,0
1448,35954,0
1620,35980,0
1848,35973,0
2172,35968,0
2402,35968,0
2628,35956,0
2840,35966,0
3024,35955,0
3172,35962,0
3288,35991,0
3376,35990,0
3448,35967,0
3496,35959,0
3516,35974,0
3536,35966,0
3540,35971,0
3560,35981,0
3536,36007,0
3552,36005,0
3568,35974,0
3608,35977,0
3648,35983,0
3696,35983,0
3744,35982,0
3780,35991,0
3776,36009,0
3760,36010,0
3698,35965,0
3616,35985,0
3492,35989,0
3336,35992,0
3162,35989,0
2976,36021,0
2790,36025,0
2641,36020,0
2552,36009,0
2444,36008,0
2356,36009,0
2336,35995,0
2308,36038,0
2250,36043,0
2386,36008,0
2448,36012,0
2504,36015,0
2554,36010,0
2576,36012,0
2583,36023,0
2544,36049,0
2441,36031,0
2364,36001,0
2200,36026,0
2104,36031,0
1888,36029,0
1776,36020,0
1618,36046,0
1532,36050,0
1360,36037,0
1317,36022,0
1328,36027,0
1368,36022,0
1522,36028,0
1648,36047,0
1769,36061,0
1905,36060,0
1988,36031,0
2096,36033,0
2188,36032,0
2284,36047,0
2272,36047,0
2220,36040,0
2140,36053,0
2020,36074,0
1896,36067,0
1768,36034,0
1656,36043,0
1564,36040,0
1504,36052,0
1464,36054,0
1478,36073,0
1540,36080,0
1576,36038,0
1756,36044,0
1836,36044,0
2016,36040,0
2100,36045,0
2236,36072,0
2276,36083,0
2320,36074,0
2232,36037,0
2160,36049,0
2056,36056,0
1961,36052,0
1832,36061,0
1700,36089,0
1569,36094,0
1464,36062,0
1344,36062,0
1337,36063,0
1542,36102,0
1662,36074,0
1778,36084,0
1928,36070,0
2080,36080,0
2202,36088,0
2312,36095,0
2370,36059,0
2402,36064,0
2368,36070,0
2308,36067,0
2204,36076,0
2090,36104,0
1912,36104,0
1824,36092,0
1648,36078,0
1600,36083,0
1472,36082,0
1492,36084,0
1489,36095,0
1456,36105,0
1541,36102,0
1658,36067,0
1796,36092,0
1928,36089,0
2089,36082,0
2184,36082,0
2228,36117,0
2260,36118,0
2194,36116,0
2132,36081,0
2036,36099,0
2016,36102,0
1910,36091,0
1788,36105,0
1690,36073,0
1608,36103,0
1552,36108,0
1535,36083,0
1560,36090,0
1620,36098,0
1720,36121,0
1826,36124,0
1960,36106,0
2096,36092,0
2176,36101,0
2312,36095,0
2344,36092,0
2400,36114,0
2368,36135,0
2320,36128,0
2208,36129,0
2108,36093,0
1904,36114,0
1772,36110,0
1654,36107,0
1560,36113,0
1552,36142,0
1514,36130,0
1534,36130,0
1578,36106,0
1616,36113,0
1752,36101,0
1913,36106,0
2130,36115,0
2282,36140,0
2392,36131,0
2482,36113,0
2516,36109,0
2504,36119,0
2452,36115,0
2360,36125,0
2244,36148,0
2128,36140,0
2012,36136,0
1887,36105,0
1812,36123,0
1708,36124,0
1738,36115,0
1708,36115,0
1820,36142,0
1856,36144,0
2016,36119,0
2148,36105,0
2292,36126,0
2368,36117,0
2460,36116,0
2536,36124,0
2560,36141,0
2568,36137,0
2492,36107,0
2385,36110,0
2254,36123,0
2080,36112,0
1954,36119,0
1830,36135,0
1832,36126,0
1762,36119,0
1744,36127,0
1770,36112,0
1820,36124,0
1904,36142,0
2024,36131,0
2146,36119,0
2276,36100,0
2392,36111,0
2482,36108,0
2544,36091,0
2576,36093,0
2530,36117,0
2500,36113,0
2392,36088,0
2300,36077,0
2144,36072,0
2047,36065,0
1924,36070,0
1848,36061,0
1696,36087,0
1670,36077,0
1680,36061,0
1741,36040,0
1868,36031,0
1961,36035,0
2080,36023,0
2202,36029,0
2280,36039,0
2386,36034,0
2458,36012,0
2536,36020,0
2520,36000,0
2464,35990,0
2370,35993,0
2257,35971,0
2132,35964,0
2008,35954,0
1890,35961,0
1796,35980,0
1722,35967,0
1682,35939,0
1665,35928,0
1734,35931,0
1764,35920,0
1918,35918,0
2020,35923,0
2184,35924,0
2276,35915,0
2384,35866,0
2448,35885,0
2484,35876,0
2404,35871,0
2344,35868,0
2244,35893,0
2136,35875,0
2024,35854,0
1902,35854,0
1768,35840,0
1664,35842,0
1536,35833,0
1500,35840,0
1536,35843,0
1696,35819,0
1790,35838,0
1906,35806,0
2060,35779,0
2186,35818,0
2314,35794,0
2400,35783,0
2460,35804,0
2492,35802,0
2464,35798,0
2400,35754,0
2295,35763,0
2176,35772,0
1996,35759,0
1904,35757,0
1732,35782,0
1688,35779,0
1562,35736,0
1584,35740,0
1586,35741,0
1650,35737,0
1668,35738,0
1792,35766,0
1922,35759,0
2072,35757,0
2228,35719,0
2336,35724,0
2400,35726,0
2420,35729,0
2368,35734,0
2326,35750,0
2240,35748,0
2184,35724,0
2082,35737,0
1952,35710,0
1848,35741,0
1762,35736,0
1684,35705,0
1656,35715,0
1674,35720,0
1720,35700,0
1808,35718,0
1970,35736,0
2012,35735,0
2160,35731,0
2228,35696,0
2360,35716,0
2392,35712,0
2448,35712,0
2392,35719,0
2360,35733,0
2265,35739,0
2160,35738,0
1964,35686,0
1828,35729,0
1708,35716,0
1616,35712,0
1592,35726,0
1568,35747,0
1568,35756,0
1616,35735,0
1668,35714,0
1788,35723,0
1938,35720,0
2168,35722,0
2296,35749,0
2400,35725,0
2466,35741,0
2512,35721,0
2496,35728,0
2444,35735,0
2336,35732,0
2224,35746,0
2104,35760,0
1968,35749,0
1837,35730,0
1750,35745,0
1628,35737,0
1644,35739,0
1604,35739,0
1696,35757,0
1752,35772,0
1890,35762,0
2012,35731,0
2149,35748,0
2210,35754,0
2316,35751,0
2380,35754,0
2408,35777,0
2416,35771,0
2344,35751,0
2248,35751,0
2136,35755,0
1944,35753,0
1808,35747,0
1696,35782,0
1648,35772,0
1620,35787,0
1632,35757,0
1696,35771,0
1788,35759,0
1896,35768,0
2034,35789,0
2152,35789,0
2268,35746,0
2372,35764,0
2427,35761,0
2448,35763,0
2400,35769,0
2356,35806,0
2240,35795,0
2152,35781,0
1984,35758,0
1908,35766,0
1776,35776,0
1610,35771,0
1556,35790,0
1528,35807,0
1554,35799,0
1610,35752,0
1754,35769,0
1856,35783,0
1992,35782,0
2116,35795,0
2200,35808,0
2304,35797,0
2392,35763,0
2468,35805,0
2620,35771,0
2408,35793,0
2328,35817,0
2216,35814,0
2092,35787,0
1960,35795,0
1840,35793,0
1740,35818,0
1672,35819,0
1636,35816,0
1632,35787,0
1696,35802,0
1736,35798,0
1892,35809,0
1988,35808,0
2164,35836,0
2256,35827,0
2380,35791,0
2444,35800,0
2480,35803,0
2408,35812,0
2340,35805,0
2252,35839,0
2128,35829,0
2016,35817,0
1898,35802,0
1776,35813,0
1662,35809,0
1552,35814,0
1522,35814,0
1536,35839,0
1704,35805,0
1796,35827,0
1918,35825,0
2041,35818,0
2184,35813,0
2304,35805,0
2392,35810,0
2456,35817,0
2472,35818,0
2450,35814,0
2376,35832,0
2258,35847,0
2156,35846,0
1978,35815,0
1890,35820,0
1730,35817,0
1680,35817,0
1557,35826,0
1569,35845,0
1569,35854,0
1648,35812,0
1653,35821,0
1770,35827,0
1898,35823,0
2048,35813,0
2202,35845,0
2294,35846,0
2352,35832,0
2369,35802,0
2312,35825,0
2244,35813,0
2154,35817,0
2104,35825,0
1986,35816,0
1864,35803,0
1748,35832,0
1652,35809,0
1580,35832,0
1556,35794,0
1570,35817,0
1628,35813,0
1704,35821,0
1816,35813,0
1939,35831,0
2072,35849,0
2153,35838,0
2288,35802,0
2320,35816,0
2384,35815,0
2328,35815,0
2304,35823,0
2200,35838,0
2098,35837,0
1898,35807,0
1776,35808,0
1658,35816,0
1560,35812,0
1560,35808,0
1528,35834,0
1541,35840,0
1593,35835,0
1642,35794,0
1776,35803,0
1932,35810,0
2152,35803,0
2302,35811,0
2400,35817,0
2476,35812,0
2508,35812,0
2496,35812,0
2433,35811,0
2328,35843,0
2212,35836,0
2080,35807,0
1944,35812,0
1808,35811,0
1713,35814,0
1585,35812,0
1604,35822,0
1560,35844,0
1660,35840,0
1696,35804,0
1856,35800,0
1978,35805,0
2128,35817,0
2192,35810,0
2277,35848,0
2352,35836,0
2384,35822,0
2388,35804,0
2325,35819,0
2216,35806,0
2096,35812,0
1904,35845,0
1792,35842,0
1680,35825,0
1682,35798,0
1616,35814,0
1594,35834,0
1616,35826,0
1664,35818,0
1762,35806,0
1876,35817,0
2000,35817,0
2144,35820,0
2262,35838,0
2352,35846,0
2416,35837,0
2440,35815,0
2372,35828,0
2356,35823,0
2218,35820,0
2140,35842,0
1976,35847,0
1876,35849,0
1752,35807,0
1666,35834,0
1508,35838,0
1481,35837,0
1488,35822,0
1546,35868,0
1672,35864,0
1802,35836,0
1928,35836,0
2056,35831,0
2136,35828,0
2252,35838,0
2320,35854,0
2408,35869,0
2388,35849,0
2328,35845,0
2232,35861,0
2108,35845,0
1968,35864,0
1826,35833,0
1704,35863,0
1600,35852,0
1508,35848,0
1468,35857,0
1455,35877,0
1516,35875,0
1536,35842,0
1712,35850,0
1809,35855,0
1976,35858,0
2068,35861,0
2204,35888,0
2244,35895,0
2256,35871,0
2168,35851,0
2080,35865,0
1965,35860,0
1832,35869,0
1750,35885,0
1648,35895,0
1560,35891,0
1541,35858,0
1488,35872,0
1578,35879,0
1738,35868,0
2024,35873,0
2288,35881,0
2584,35849,0
2904,35885,0
3236,35896,0
3568,35882,0
3836,35879,0
3972,35894,0
3960,35900,0
3964,35913,0
3968,35881,0
3984,35884,0
3968,35892,0
3968,35883,0
3936,35890,0
3860,35918,0
3748,35923,0
3664,35898,0
3540,35892,0
3456,35890,0
3400,35901,0
3348,35897,0
3328,35925,0
3340,35930,0
3344,35927,0
3360,35884,0
3347,35910,0
3320,35906,0
3264,35898,0
3152,35908,0
3032,35930,0
2884,35939,0
2752,35920,0
2568,35924,0
2392,35916,0
2222,35933,0
2076,35915,0
1948,35920,0
1856,35921,0
1808,35954,0
1796,35951,0
1832,35917,0
1884,35919,0
1956,35915,0
2060,35926,0
2092,35929,0
2192,35955,0
2216,35952,0
2250,35934,0
2178,35920,0
2144,35920,0
2040,35931,0
1922,35919,0
1712,35943,0
1578,35958,0
1453,35951,0
1364,35913,0
1354,35942,0
1328,35937,0
1329,35927,0
1368,35942,0
1404,35957,0
1525,35968,0
1918,35965,0
2054,35950,0
2148,35939,0
2225,35969,0
2248,35956,0
2234,35947,0
2172,35949,0
2092,35935,0
1964,35951,0
1828,35969,0
1704,35967,0
1583,35957,0
1488,35947,0
1364,35951,0
1398,35949,0
1376,35939,0
1482,35972,0
1509,35979,0
1696,35964,0
1818,35947,0
1904,35949,0
2054,35944,0
2156,35966,0
2234,35954,0
2272,35984,0
2284,35983,0
2216,35938,0
2108,35963,0
1980,35958,0
1784,35957,0
1656,35955,0
1540,35990,0
1560,35978,0
2240,35999,0
2217,35999,0
2160,36016,0
2048,36016,0
1920,36016,0
1778,36016,0
1632,36016,0
1514,36016,0
1414,36016,0
1338,36002,0
1316,36002,0
1340,36002,0
1394,36002,0
1498,36002,0
1622,36002,0
1774,36002,0
1922,35972,0
2056,35972,0
2157,35972,0
2240,35972,0
2262,35972,0
2248,35972,0
2184,35972,0
2072,36000,0
1948,35981,0
1864,35981,0
1714,35981,0
1573,35981,0
1470,35981,0
1328,35981,0
1312,35993,0
1336,35979,0
1508,35976,0
1612,35989,0
1740,35993,0
1896,35992,0
2036,35995,0
2180,36015,0
2282,36016,0
2366,35998,0
2376,35991,0
2366,35991,0
2300,35984,0
2213,35992,0
2108,36016,0
1944,36024,0
1836,35999,0
1689,35984,0
1616,35991,0
1493,35990,0
1508,35992,0
1512,36004,0
1592,36019,0
1585,36007,0
1713,35972,0
1858,35993,0
2010,35989,0
2176,35986,0
2278,35999,0
2136,35983,0
2024,36007,0
1898,36005,0
1796,35991,0
1702,35999,0
1633,36005,0
1604,35987,0
1610,35973,0
1664,35979,0
1756,35958,0
1868,35968,0
1992,35988,0
2130,35989,0
2224,35974,0
2356,35935,0
2392,35955,0
2444,35946,0
2384,35954,0
2320,35948,0
2226,35966,0
2104,35951,0
1972,35910,0
1835,35931,0
1716,35911,0
1613,35914,0
1600,35911,0
1566,35933,0
1558,35928,0
1597,35921,0
1640,35882,0
1760,35882,0
1900,35886,0
2121,35874,0
2252,35868,0
2352,35890,0
2424,35867,0
2450,35843,0
2448,35857,0
2376,35851,0
2280,35829,0
2164,35826,0
2032,35848,0
1890,35847,0
1742,35798,0
1660,35811,0
1528,35791,0
1554,35796,0
1500,35788,0
1608,35802,0
1636,35800,0
1794,35793,0
1924,35759,0
2066,35766,0
2122,35754,0
2224,35747,0
2298,35754,0
2336,35765,0
2344,35758,0
2264,35707,0
2164,35720,0
2041,35719,0
1848,35703,0
1724,35710,0
1600,35725,0
1608,35720,0
1548,35712,0
1516,35690,0
1534,35701,0
1598,35695,0
1696,35680,0
1804,35678,0
1948,35663,0
2072,35657,0
2186,35679,0
2289,35678,0
2346,35640,0
2362,35643,0
2308,35643,0
2272,35640,0
2136,35638,0
2047,35652,0
1856,35650,0
1785,35641,0
1641,35618,0
1556,35625,0
1400,35618,0
1376,35623,0
1398,35621,0
1452,35643,0
1600,35634,0
1720,35593,0
1845,35609,0
1978,35605,0
2060,35607,0
2177,35603,0
2248,35629,0
2340,35603,0
2332,35612,0
2276,35609,0
2188,35619,0
2073,35601,0
1948,35597,0
1808,35595,0
1701,35593,0
1584,35623,0
1532,35620,0
1492,35592,0
1498,35594,0
1572,35590,0
1592,35596,0
1776,35594,0
1872,35620,0
2044,35615,0
2136,35580,0
2264,35591,0
2324,35600,0
2362,35594,0
2288,35595,0
2224,35613,0
2121,35630,0
1997,35620,0
1904,35583,0
1848,35606,0
1626,35609,0
1544,35604,0
1384,35607,0
1349,35629,0
1368,35631,0
1526,35623,0
1626,35613,0
1748,35626,0
1896,35610,0
2024,35618,0
2164,35614,0
2252,35636,0
2324,35633,0
2348,35614,0
2336,35620,0
2260,35620,0
2146,35615,0
2032,35611,0
1866,35640,0
1772,35643,0
1604,35611,0
1558,35628,0
1444,35624,0
1456,35612,0
1476,35625,0
1541,35657,0
1540,35653,0
1684,35619,0
1820,35615,0
1968,35637,0
2136,35621,0
2234,35632,0
2296,35659,0
2312,35655,0
2256,35633,0
2196,35632,0
2064,35681,0
1940,35615,0
1824,35635,0
1708,35630,0
1612,35648,0
1584,35638,0
1525,35639,0
1544,35664,0
1588,35658,0
1674,35643,0
1788,35636,0
1919,35640,0
2064,35641,0
2138,35639,0
2280,35660,0
2312,35680,0
2384,35654,0
2340,35642,0
2292,35658,0
2192,35649,0
2028,35653,0
1881,35662,0
1752,35677,0
1626,35680,0
1530,35636,0
1540,35666,0
1500,35654,0
1510,35657,0
1568,35665,0
1600,35690,0
1730,35675,0
1883,35635,0
2104,35681,0
2240,35670,0
2344,35689,0
2418,35697,0
2444,35677,0
2432,35700,0
2376,35702,0
2265,35654,0
2148,35675,0
2030,35672,0
1874,35681,0
1738,35681,0
1644,35708,0
1516,35715,0
1546,35666,0
1504,35689,0
1597,35687,0
1632,35683,0
1802,35689,0
1908,35713,0
2056,35715,0
2113,35684,0
2216,35686,0
2264,35696,0
2296,35696,0
2304,35697,0
2224,35723,0
2120,35720,0
1990,35684,0
1816,35688,0
1668,35708,0
1552,35696,0
1562,35683,0
1504,35716,0
1472,35723,0
1504,35702,0
1556,35719,0
1654,35685,0
1784,35697,0
1918,35704,0
2068,35701,0
2184,35706,0
2282,35743,0
2344,35730,0
2372,35684,0
2320,35713,0
2282,35700,0
2152,35703,0
2060,35708,0
1880,35726,0
1800,35712,0
1672,35676,0
1576,35710,0
1402,35704,0
1356,35696,0
1376,35707,0
1433,35731,0
1592,35719,0
1688,35703,0
1800,35703,0
1952,35710,0
2024,35696,0
2136,35696,0
2214,35721,0
2314,35700,0
2302,35715,0
2232,35693,0
2144,35726,0
2016,35701,0
1898,35678,0
1744,35705,0
1612,35691,0
1520,35694,0
1442,35694,0
1402,35722,0
1401,35718,0
1452,35703,0
1482,35692,0
1664,35704,0
1744,35686,0
1928,35694,0
2008,35713,0
2144,35720,0
2192,35703,0
2234,35674,0
2144,35695,0
2072,35693,0
1954,35679,0
1836,35694,0
1740,35710,0
1600,35706,0
1474,35661,0
1390,35688,0
1232,35682,0
1228,35687,0
1257,35689,0
1440,35685,0
1558,35658,0
1688,35688,0
1857,35684,0
1996,35670,0
2136,35691,0
2244,35657,0
2324,35675,0
2360,35661,0
2328,35662,0
2272,35687,0
2175,35695,0
2047,35686,0
1878,35650,0
1772,35667,0
1600,35670,0
1554,35667,0
1432,35665,0
1449,35700,0
1444,35686,0
1516,35657,0
1520,35660,0
1636,35660,0
1780,35649,0
1936,35658,0
2112,35688,0
2202,35682,0
2262,35646,0
2289,35659,0
2232,35657,0
2180,35658,0
2084,35650,0
2024,35632,0
1912,35662,0
1780,35661,0
1672,35659,0
1576,35670,0
1512,35653,0
1482,35652,0
1500,35643,0
1556,35653,0
1642,35677,0
1752,35671,0
1892,35628,0
2044,35647,0
2136,35648,0
2288,35644,0
2328,35658,0
2384,35671,0
2336,35662,0
2316,35634,0
2232,35645,0
2120,35656,0
1940,35645,0
1805,35642,0
1680,35676,0
1606,35675,0
1568,35664,0
1568,35636,0
1571,35652,0
1633,35647,0
1692,35646,0
1816,35651,0
1976,35668,0
2186,35643,0
2324,35661,0
2452,35674,0
2524,35645,0
2559,35660,0
2570,35642,0
2508,35644,0
2416,35649,0
2301,35674,0
2180,35672,0
2046,35672,0
1902,35637,0
1824,35659,0
1692,35649,0
1704,35655,0
1664,35659,0
1748,35666,0
1784,35678,0
1924,35636,0
2040,35660,0
2168,35652,0
2224,35652,0
2316,35656,0
2384,35688,0
2416,35676,0
2428,35647,0
2362,35661,0
2258,35654,0
2136,35657,0
1954,35670,0
1800,35701,0
1660,35681,0
1656,35660,0
1572,35679,0
1542,35669,0
1545,35685,0
1618,35664,0
1744,35662,0
1892,35694,0
2088,35689,0
2298,35669,0
2512,35665,0
2720,35674,0
2911,35666,0
3088,35673,0
3216,35695,0
3344,35700,0
3424,35701,0
3504,35661,0
3572,35682,0
3608,35670,0
3632,35673,0
3650,35693,0
3672,35703,0
3692,35696,0
3724,35659,0
3760,35685,0
3780,35679,0
3810,35685,0
3838,35684,0
3866,35714,0
3904,35706,0
3884,35667,0
3784,35725,0
3684,35695,0
3556,35695,0
3420,35665,0
3232,35689,0
3058,35692,0
2868,35691,0
2692,35688,0
2536,35691,0
2412,35721,0
2308,35709,0
2230,35719,0
2204,35680,0
2168,35701,0
2248,35700,0
2272,35693,0
2360,35724,0
2368,35725,0
2425,35718,0
2430,35691,0
2352,35708,0
2288,35700,0
2192,35705,0
2056,35705,0
1906,35725,0
1800,35722,0
1648,35689,0
1496,35703,0
1388,35692,0
1256,35708,0
1234,35714,0
1266,35728,0
1440,35739,0
1545,35710,0
1682,35714,0
1840,35733,0
1982,35729,0
2120,35709,0
2194,35707,0
2284,35712,0
2302,35712,0
2268,35741,0
2212,35737,0
2088,35699,0
1981,35712,0
1800,35711,0
1704,35709,0
1552,35719,0
1496,35745,0
1378,35732,0
1408,35702,0
1426,35718,0
1493,35723,0
1512,35709,0
1654,35718,0
1800,35752,0
1961,35741,0
2140,35696,0
2242,35717,0
2316,35718,0
2342,35716,0
2292,35721,0
2234,35742,0
2144,35754,0
2112,35739,0
1996,35733,0
1868,35732,0
1757,35723,0
1668,35720,0
1605,35724,0
1568,35727,0
1638,35732,0
1624,35753,0
1761,35750,0
1824,35713,0
1943,35727,0
2080,35730,0
2164,35741,0
2302,35728,0
2322,35766,0
2384,35762,0
2328,35720,0
2290,35734,0
2176,35736,0
2068,35735,0
1864,35746,0
1696,35767,0
1574,35767,0
1484,35733,0
1464,35743,0
1426,35747,0
1432,35749,0
1477,35761,0
1508,35774,0
1638,35769,0
1792,35739,0
2020,35753,0
2157,35764,0
2248,35772,0
2338,35763,0
2368,35732,0
2348,35766,0
2293,35790,0
2186,35782,0
2060,35746,0
1924,35761,0
1780,35760,0
1641,35763,0
1556,35782,0
1429,35800,0
1464,35791,0
1420,35759,0
1541,35772,0
1576,35771,0
1750,35773,0
1876,35784,0
2040,35794,0
2100,35791,0
2208,35775,0
2281,35784,0
2304,35765,0
2324,35781,0
2250,35806,0
2137,35809,0
2013,35776,0
1824,35787,0
1690,35778,0
1568,35790,0
1580,35781,0
1512,35805,0
1494,35786,0
1520,35791,0
1573,35808,0
1669,35771,0
1781,35788,0
1918,35803,0
2040,35793,0
2168,35805,0
2248,35819,0
2304,35816,0
2324,35807,0
2276,35799,0
2244,35800,0
2100,35798,0
2000,35813,0
1832,35827,0
1728,35823,0
1602,35792,0
1500,35801,0
1336,35800,0
1306,35800,0
1330,35807,0
1384,35831,0
1533,35830,0
1650,35785,0
1790,35809,0
1928,35803,0
2000,35809,0
2120,35809,0
2200,35843,0
2292,35813,0
2284,35811,0
2228,35811,0
2138,35813,0
2016,35808,0
1892,35825,0
1752,35777,0
1636,35808,0
1535,35796,0
1468,35804,0
1448,35789,0
1439,35824,0
1512,35817,0
1548,35794,0
1732,35790,0
1832,35789,0
2024,35777,0
2104,35780,0
2268,35791,0
2320,35801,0
2360,35788,0
2296,35760,0
2236,35770,0
2128,35763,0
2016,35758,0
1922,35787,0
1786,35792,0
1662,35760,0
1546,35730,0
1428,35740,0
1416,35729,0
1443,35726,0
1604,35715,0
1720,35724,0
1846,35704,0
2004,35746,0
2153,35724,0
2272,35697,0
2376,35700,0
2448,35690,0
2472,35703,0
2458,35713,0
2394,35690,0
2292,35647,0
2180,35664,0
2000,35649,0
1916,35644,0
1748,35643,0
1696,35671,0
1572,35646,0
1608,35599,0
1594,35615,0
1657,35615,0
1656,35598,0
1776,35617,0
1916,35619,0
2065,35603,0
2224,35579,0
2330,35590,0
2384,35568,0
2410,35569,0
2352,35586,0
2281,35582,0
2212,35561,0
2164,35549,0
2042,35544,0
1916,35545,0
1820,35542,0
1736,35526,0
1656,35513,0
1632,35513,0
1632,35539,0
1692,35532,0
1780,35499,0
1880,35490,0
2000,35490,0
2144,35480,0
2228,35473,0
2364,35497,0
2408,35499,0
2464,35476,0
2420,35454,0
2392,35466,0
2292,35452,0
2176,35458,0
2000,35467,0
1852,35477,0
1724,35464,0
1624,35433,0
1589,35437,0
1566,35440,0
1568,35433,0
1613,35448,0
1648,35460,0
1772,35456,0
1932,35425,0
2146,35429,0
2288,35437,0
2388,35446,0
2472,35426,0
2504,35456,0
2484,35427,0
2420,35418,0
2316,35424,0
2212,35416,0
2076,35422,0
1930,35441,0
1801,35441,0
1716,35422,0
1584,35423,0
1604,35418,0
1562,35427,0
1662,35419,0
1696,35425,0
1856,35452,0
1970,35442,0
2128,35413,0
2292,35422,0
2268,35413,0
2338,35418,0
2362,35434,0
2368,35452,0
2300,35443,0
2188,35413,0
2072,35420,0
1888,35429,0
1744,35431,0
1637,35464,0
1578,35422,0
1560,35413,0
1588,35442,0
1648,35443,0
1728,35450,0
1848,35419,0
1982,35428,0
2104,35427,0
2232,35437,0
2328,35447,0
2378,35468,0
2416,35463,0
2344,35418,0
2312,35437,0
2184,35445,0
2096,35446,0
1920,35452,0
1829,35469,0
1696,35466,0
1520,35430,0
1460,35447,0
1440,35443,0
1452,35449,0
1520,35476,0
1664,35477,0
1784,35470,0
1908,35442,0
2056,35446,0
2122,35453,0
2240,35451,0
2320,35461,0
2408,35464,0
2416,35477,0
2352,35460,0
2272,35473,0
2148,35459,0
2034,35461,0
1898,35461,0
1789,35462,0
1688,35471,0
1608,35482,0
1576,35482,0
1562,35461,0
1520,35467,0
1664,35466,0
1824,35466,0
1920,35476,0
2088,35498,0
2184,35494,0
2320,35456,0
2384,35472,0
2412,35474,0
2356,35477,0
2296,35492,0
2196,35499,0
2080,35477,0
1992,35474,0
1848,35483,0
1728,35485,0
1625,35487,0
1490,35497,0
1462,35519,0
1494,35509,0
1665,35505,0
1766,35499,0
1892,35497,0
2024,35468,0
2164,35512,0
2296,35521,0
2400,35519,0
2461,35510,0
2504,35487,0
2480,35498,0
2410,35503,0
2315,35502,0
2200,35508,0
2032,35538,0
1942,35529,0
1776,35496,0
1730,35506,0
1612,35509,0
1640,35525,0
1620,35523,0
1704,35551,0
1704,35543,0
1820,35510,0
1956,35513,0
2104,35527,0
2264,35522,0
2361,35533,0
2422,35558,0
2445,35549,0
2400,35524,0
2344,35537,0
2257,35530,0
2200,35542,0
2100,35547,0
1978,35541,0
1874,35545,0
1772,35534,0
1718,35529,0
1688,35541,0
1708,35544,0
1740,35541,0
1828,35541,0
1924,35571,0
2032,35566,0
2188,35529,0
2256,35544,0
2393,35552,0
2416,35538,0
2480,35555,0
2428,35584,0
2396,35577,0
2288,35530,0
2184,35551,0
1988,35550,0
1856,35548,0
1744,35562,0
1656,35568,0
1632,35567,0
1595,35522,0
1610,35546,0
1652,35548,0
1704,35548,0
1826,35567,0
1976,35587,0
2192,35552,0
2325,35580,0
2424,35569,0
2680,35551,0
2536,35526,0
2520,35533,0
2456,35552,0
2368,35550,0
2256,35549,0
2124,35559,0
1984,35581,0
1844,35571,0
1772,35540,0
1634,35553,0
1652,35555,0
1612,35557,0
1718,35570,0
1760,35577,0
1908,35553,0
2034,35551,0
2176,35551,0
2244,35542,0
2345,35543,0
2432,35562,0
2464,35575,0
2472,35556,0
2405,35541,0
2315,35550,0
2186,35545,0
2018,35548,0
1900,35562,0
1780,35570,0
1784,35523,0
1730,35571,0
1688,35543,0
1712,35564,0
1772,35566,0
1866,35546,0
1972,35542,0
2114,35579,0
2248,35574,0
2368,35531,0
2448,35540,0
2581,35545,0
2552,35543,0
2512,35562,0
2480,35569,0
2364,35565,0
2280,35537,0
2128,35540,0
2044,35540,0
1908,35539,0
1842,35559,0
1688,35573,0
1660,35556,0
1680,35530,0
1733,35548,0
1868,35545,0
1980,35551,0
2107,35560,0
2234,35568,0
2322,35568,0
2421,35531,0
2496,35546,0
2580,35562,0
2570,35534,0
2520,35561,0
2434,35547,0
2332,35557,0
2204,35567,0
2064,35569,0
1956,35530,0
1850,35541,0
1778,35538,0
1732,35537,0
1718,35556,0
1784,35561,0
1808,35554,0
1960,35550,0
2049,35549,0
2224,35545,0
2312,35556,0
2440,35582,0
2520,35582,0
2528,35544,0
2472,35555,0
2418,35560,0
2306,35545,0
2186,35550,0
2098,35580,0
1968,35583,0
1826,35543,0
1722,35560,0
1600,35563,0
1562,35557,0
1584,35558,0
1732,35575,0
1837,35562,0
1956,35540,0
2104,35570,0
2244,35570,0
2362,35571,0
2464,35566,0
2532,35564,0
2558,35592,0
2544,35600,0
2484,35578,0
2387,35558,0
2281,35574,0
2120,35572,0
2024,35583,0
1872,35586,0
1816,35617,0
1700,35592,0
1712,35563,0
1714,35586,0
1784,35578,0
1760,35584,0
1868,35601,0
1992,35615,0
2132,35610,0
2284,35592,0
2357,35605,0
2410,35588,0
2416,35590,0
2348,35613,0
2280,35623,0
2182,35610,0
2136,35604,0
2010,35614,0
1904,35599,0
1786,35610,0
1692,35608,0
1630,35622,0
1596,35637,0
1588,35631,0
1624,35611,0
1680,35618,0
1780,35608,0
1884,35599,0
2012,35623,0
2104,35636,0
2264,35646,0
2336,35602,0
2456,35620,0
2484,35618,0
2552,35622,0
2552,35643,0
2576,35652,0
2544,35639,0
2580,35615,0
2640,35628,0
2736,35629,0
2896,35633,0
3052,35644,0
3196,35656,0
3376,35643,0
3560,35622,0
3792,35637,0
3956,35672,0
3968,35669,0
3976,35634,0
3976,35647,0
3966,35646,0
3960,35633,0
3928,35648,0
3844,35666,0
3720,35649,0
3560,35638,0
3392,35651,0
3232,35644,0
3060,35659,0
2912,35671,0
2808,35682,0
2712,35658,0
2696,35651,0
2824,35655,0
2692,35647,0
2724,35656,0
2740,35681,0
2778,35691,0
2788,35680,0
2796,35663,0
2746,35667,0
2686,35661,0
2570,35661,0
2410,35674,0
2272,35689,0
2024,35684,0
1850,35658,0
1701,35669,0
1660,35672,0
1580,35662,0
1542,35669,0
1528,35689,0
1568,35667,0
1650,35667,0
1760,35673,0
1888,35670,0
2016,35669,0
2142,35673,0
2224,35696,0
2280,35689,0
2316,35667,0
2266,35666,0
2228,35671,0
2100,35664,0
2012,35670,0
1840,35706,0
1740,35703,0
1621,35668,0
1524,35677,0
1360,35683,0
1328,35689,0
1354,35688,0
1402,35697,0
1560,35711,0
1661,35674,0
1816,35682,0
1952,35690,0
2034,35683,0
2160,35694,0
2236,35716,0
2344,35708,0
2332,35687,0
2280,35722,0
2194,35686,0
2080,35697,0
1968,35689,0
1832,35713,0
1706,35710,0
1612,35679,0
1528,35696,0
1497,35689,0
1498,35695,0
1560,35694,0
1592,35720,0
1748,35715,0
1834,35688,0
2012,35705,0
2084,35692,0
2228,35701,0
2284,35710,0
2312,35737,0
2240,35727,0
2168,35692,0
2064,35709,0
1940,35703,0
1840,35708,0
1705,35730,0
1561,35742,0
1472,35724,0
1322,35714,0
1306,35717,0
1332,35709,0
1498,35728,0
1602,35725,0
1740,35732,0
1882,35700,0
2032,35731,0
2168,35722,0
2264,35734,0
2324,35729,0
2512,35730,0
2340,35747,0
2266,35766,0
2154,35719,0
2034,35725,0
1848,35745,0
1764,35736,0
1577,35737,0
1534,35767,0
1404,35768,0
1424,35718,0
1424,35744,0
1481,35747,0
1488,35754,0
1621,35756,0
1762,35776,0
1900,35781,0
2080,35735,0
2177,35758,0
2234,35754,0
2256,35746,0
2184,35761,0
2137,35788,0
2048,35787,0
2000,35774,0
1882,35754,0
1760,35788,0
1642,35780,0
1552,35782,0
1472,35769,0
1450,35771,0
1472,35799,0
1512,35799,0
1604,35772,0
1721,35771,0
1844,35780,0
1984,35780,0
2072,35777,0
2209,35798,0
2256,35804,0
2304,35758,0
2248,35788,0
2224,35780,0
2120,35783,0
2016,35794,0
1808,35802,0
1674,35788,0
1544,35787,0
1465,35785,0
1429,35786,0
1421,35787,0
1413,35807,0
1465,35820,0
1500,35805,0
1654,35784,0
1792,35788,0
2028,35790,0
2160,35797,0
2260,35786,0
2348,35795,0
2370,35782,0
2360,35807,0
2296,35821,0
2196,35775,0
2092,35783,0
1944,35802,0
1816,35791,0
1695,35799,0
1586,35823,0
1472,35817,0
1512,35782,0
1456,35790,0
1572,35800,0
1604,35791,0
1791,35790,0
1900,35817,0
2060,35811,0
2144,35772,0
2249,35788,0
2328,35782,0
2372,35788,0
2360,35795,0
2314,35803,0
2217,35794,0
2088,35775,0
1920,35778,0
1785,35775,0
1684,35764,0
1674,35788,0
1626,35785,0
1600,35763,0
1624,35767,0
1692,35776,0
1790,35734,0
1904,35757,0
2041,35740,0
2172,35737,0
2296,35747,0
2392,35772,0
2463,35748,0
2490,35705,0
2442,35717,0
2416,35714,0
2296,35702,0
2212,35714,0
2032,35716,0
1940,35713,0
1824,35680,0
1730,35681,0
1572,35679,0
1537,35669,0
1548,35672,0
1590,35689,0
1733,35673,0
1893,35629,0
1964,35642,0
2093,35637,0
2184,35636,0
2282,35632,0
2368,35643,0
2452,35639,0
2438,35610,0
2392,35618,0
2308,35581,0
2192,35583,0
2068,35587,0
1928,35600,0
1784,35611,0
1688,35589,0
1617,35549,0
1576,35562,0
1564,35550,0
1636,35548,0
1680,35560,0
1844,35558,0
1928,35544,0
2100,35532,0
2184,35526,0
2320,35519,0
2376,35513,0
2416,35533,0
2336,35532,0
2288,35521,0
2182,35501,0
2052,35499,0
1952,35492,0
1810,35488,0
1664,35511,0
1578,35504,0
1420,35488,0
1392,35473,0
1576,35430,0
1674,35476,0
1802,35464,0
1932,35453,0
2080,35459,0
2194,35448,0
2288,35450,0
2364,35442,0
2364,35451,0
2348,35470,0
2276,35466,0
2168,35422,0
2036,35444,0
1872,35445,0
1776,35435,0
1608,35457,0
1552,35471,0
1424,35458,0
1440,35428,0
1440,35436,0
1408,35426,0
1522,35431,0
1636,35451,0
1786,35457,0
1938,35419,0
2108,35417,0
2188,35423,0
2268,35427,0
2274,35428,0
2224,35459,0
2162,35452,0
2080,35423,0
2028,35460,0
1912,35458,0
1786,35442,0
1672,35427,0
1584,35438,0
1524,35454,0
1488,35415,0
1493,35428,0
1554,35428,0
1650,35431,0
1756,35435,0
1883,35476,0
2017,35463,0
2092,35419,0
2232,35445,0
2272,35437,0
2320,35432,0
2264,35451,0
2224,35476,0
2120,35447,0
2000,35433,0
1786,35440,0
1650,35455,0
1508,35445,0
1408,35469,0
1388,35474,0
1364,35450,0
1362,35466,0
1406,35454,0
1452,35451,0
1580,35450,0
1741,35480,0
1968,35460,0
2114,35474,0
2232,35469,0
2312,35471,0
2344,35464,0
2332,35464,0
2280,35459,0
2180,35463,0
2060,35495,0
1928,35484,0
1785,35460,0
1639,35469,0
1557,35475,0
1420,35473,0
1437,35486,0
1400,35508,0
1506,35501,0
1540,35463,0
1712,35488,0
1840,35479,0
1988,35485,0
2056,35489,0
2176,35500,0
2246,35521,0
2276,35472,0
2296,35493,0
2216,35488,0
2120,35489,0
1972,35504,0
1796,35522,0
1644,35519,0
1536,35476,0
1540,35497,0
1482,35521,0
1453,35510,0
1474,35514,0
1538,35491,0
1632,35506,0
1752,35508,0
1888,35508,0
2032,35504,0
2164,35529,0
2268,35530,0
2329,35507,0
2362,35517,0
2312,35513,0
2282,35518,0
2144,35530,0
2056,35545,0
1892,35542,0
1796,35512,0
1664,35537,0
1584,35530,0
1421,35520,0
1394,35543,0
1398,35568,0
1465,35555,0
1620,35521,0
1731,35544,0
1856,35533,0
1990,35542,0
2080,35536,0
2208,35576,0
2293,35568,0
2372,35549,0
2382,35563,0
2328,35539,0
2244,35563,0
2132,35550,0
2004,35574,0
1880,35534,0
1722,35539,0
1664,35551,0
1584,35547,0
1552,35569,0
1540,35579,0
1600,35553,0
1632,35556,0
1808,35560,0
1888,35558,0
2068,35568,0
2154,35586,0
2288,35584,0
2356,35555,0
2392,35563,0
2328,35566,0
2244,35559,0
2152,35560,0
2018,35589,0
1920,35594,0
1782,35545,0
1640,35571,0
1549,35566,0
1408,35563,0
1382,35569,0
1410,35595,0
1576,35578,0
1662,35565,0
1796,35550,0
1949,35560,0
2100,35569,0
2226,35571,0
2328,35568,0
2396,35568,0
2424,35577,0
2400,35589,0
2336,35574,0
2208,35566,0
2096,35566,0
1908,35568,0
1828,35573,0
1640,35597,0
1600,35590,0
1480,35555,0
1512,35573,0
1516,35561,0
1576,35566,0
1600,35559,0
1725,35588,0
1872,35581,0
2021,35542,0
2192,35565,0
2293,35553,0
2368,35549,0
2389,35556,0
2336,35593,0
2280,35579,0
2193,35546,0
2144,35562,0
2024,35544,0
1896,35563,0
1776,35566,0
1680,35571,0
1606,35558,0
1580,35563,0
1590,35553,0
1633,35586,0
1718,35583,0
1824,35558,0
1937,35554,0
2076,35551,0
2160,35554,0
2296,35555,0
2332,35565,0
2392,35582,0
2340,35541,0
2313,35553,0
2212,35548,0
2104,35534,0
1909,35562,0
1776,35576,0
1656,35568,0
1560,35533,0
1552,35546,0
1520,35548,0
1528,35543,0
1580,35559,0
1616,35567,0
1738,35552,0
1894,35542,0
2116,35559,0
2248,35545,0
2356,35523,0
2416,35557,0
2456,35554,0
2442,35532,0
2380,35558,0
2276,35567,0
2176,35557,0
2034,35542,0
1896,35541,0
1767,35555,0
1672,35531,0
1547,35544,0
1570,35567,0
1520,35563,0
1628,35547,0
1656,35533,0
1820,35545,0
1940,35536,0
2088,35534,0
2156,35568,0
2264,35575,0
2336,35531,0
2368,35538,0
2380,35549,0
2314,35550,0
2216,35545,0
2092,35575,0
1912,35571,0
1776,35546,0
1672,35539,0
1668,35546,0
1616,35545,0
1592,35554,0
1606,35572,0
1661,35549,0
1768,35561,0
1868,35581,0
2000,35582,0
2136,35539,0
2256,35563,0
2352,35552,0
2408,35551,0
2428,35569,0
2376,35594,0
2348,35583,0
2224,35538,0
2144,35562,0
1972,35552,0
1888,35563,0
1746,35587,0
1658,35589,0
1488,35570,0
1457,35554,0
1468,35569,0
1512,35569,0
1648,35570,0
1751,35594,0
1868,35597,0
1986,35593,0
2052,35575,0
2152,35585,0
2288,35618,0
2280,35544,0
2216,35586,0
2133,35581,0
2004,35605,0
1880,35597,0
1746,35610,0
1633,35600,0
1538,35569,0
1466,35587,0
1420,35587,0
1400,35592,0
1472,35622,0
1472,35615,0
1612,35579,0
1682,35596,0
1856,35599,0
1936,35595,0
2088,35593,0
2184,35623,0
2208,35619,0
2260,35593,0
2284,35613,0
2281,35605,0
2274,35616,0
2292,35613,0
2302,35643,0
2330,35636,0
2392,35597,0
2464,35612,0
2604,35606,0
2792,35619,0
3020,35618,0
3232,35623,0
3432,35612,0
3616,35634,0
3784,35598,0
3896,35618,0
3940,35631,0
3944,35655,0
3920,35648,0
3866,35607,0
3736,35635,0
3599,35628,0
3408,35630,0
3192,35646,0
3008,35666,0
2804,35664,0
2664,35621,0
2512,35641,0
2448,35642,0
2392,35638,0
2408,35672,0
2372,35667,0
2440,35616,0
2516,35647,0
2597,35636,0
2684,35648,0
2728,35670,0
2730,35679,0
2712,35664,0
2624,35646,0
2521,35649,0
2380,35652,0
2280,35654,0
2109,35642,0
1952,35665,0
1814,35667,0
1686,35652,0
1584,35651,0
1534,35650,0
1516,35678,0
1548,35689,0
1616,35638,0
1706,35659,0
1824,35654,0
1960,35655,0
2040,35666,0
2184,35691,0
2208,35681,0
2280,35659,0
2232,35665,0
2194,35662,0
2104,35657,0
1988,35680,0
1770,35694,0
1637,35688,0
1513,35668,0
1408,35681,0
1398,35671,0
1354,35671,0
1358,35702,0
1408,35701,0
1440,35653,0
1564,35673,0
1724,35676,0
1948,35681,0
2088,35685,0
2208,35666,0
2268,35689,0
2320,35690,0
2290,35708,0
2228,35686,0
2132,35698,0
2010,35689,0
1872,35691,0
1740,35718,0
1584,35724,0
1520,35687,0
1368,35695,0
1404,35702,0
1349,35696,0
1464,35703,0
1496,35719,0
1664,35727,0
1788,35695,0
1942,35713,0
1992,35699,0
2112,35707,0
2161,35707,0
2193,35727,0
2200,35724,0
2128,35690,0
2016,35712,0
1910,35708,0
1692,35719,0
1560,35730,0
1444,35736,0
1458,35708,0
1405,35733,0
1394,35718,0
1416,35720,0
1476,35743,0
1572,35716,0
1704,35721,0
1832,35738,0
1960,35746,0
2080,35742,0
2180,35711,0
2239,35720,0
2264,35725,0
2200,35727,0
2168,35757,0
2032,35751,0
1940,35735,0
1760,35727,0
1668,35724,0
1528,35732,0
1464,35735,0
1289,35751,0
1267,35753,0
1280,35709,0
1338,35736,0
1498,35727,0
1616,35735,0
1749,35728,0
1896,35758,0
1976,35767,0
2096,35721,0
2184,35732,0
2276,35754,0
2282,35715,0
2220,35738,0
2144,35742,0
2028,35727,0
1901,35773,0
1772,35721,0
1665,35745,0
1562,35750,0
1504,35741,0
1466,35760,0
1456,35773,0
1528,35766,0
1568,35731,0
1748,35750,0
1840,35742,0
2028,35751,0
2120,35756,0
2256,35781,0
2320,35782,0
2360,35733,0
2280,35751,0
2216,35750,0
2120,35746,0
2016,35758,0
1896,35789,0
1758,35780,0
1624,35744,0
1514,35753,0
1376,35751,0
1349,35749,0
1376,35765,0
1540,35764,0
1648,35776,0
1768,35757,0
1904,35773,0
2082,35739,0
2208,35751,0
2316,35767,0
2392,35785,0
2420,35786,0
2396,35754,0
2340,35769,0
2228,35761,0
2121,35767,0
1952,35755,0
1872,35786,0
1701,35799,0
1664,35769,0
1540,35760,0
1552,35756,0
1560,35748,0
1636,35763,0
1636,35783,0
1768,35782,0
1904,35747,0
2060,35750,0
2216,35750,0
2316,35758,0
2368,35764,0
2394,35774,0
2344,35775,0
2290,35737,0
2208,35744,0
2160,35773,0
2038,35765,0
1920,35755,0
1804,35744,0
1716,35759,0
1652,35711,0
1628,35720,0
1648,35729,0
1688,35729,0
1776,35719,0
1904,35739,0
2023,35740,0
2172,35702,0
2264,35704,0
2400,35697,0
2444,35688,0
2504,35704,0
2460,35712,0
2428,35689,0
2344,35654,0
2212,35665,0
2028,35670,0
1894,35661,0
1764,35679,0
1660,35676,0
1634,35627,0
1588,35645,0
1592,35627,0
1636,35612,0
1656,35632,0
1784,35639,0
1916,35623,0
2040,35620,0
2272,35598,0
2360,35609,0
2440,35583,0
2472,35578,0
2452,35566,0
2384,35565,0
2284,35587,0
2170,35575,0
2036,35539,0
1890,35543,0
1758,35532,0
1664,35535,0
1528,35539,0
1556,35545,0
1510,35538,0
1605,35497,0
1632,35504,0
1812,35492,0
1932,35496,0
2080,35509,0
2146,35517,0
2240,35458,0
2314,35467,0
2290,35466,0
2364,35455,0
2291,35456,0
2188,35475,0
2056,35480,0
1864,35423,0
1744,35448,0
1634,35389,0
1564,35437,0
1552,35436,0
1581,35429,0
1640,35424,0
1728,35409,0
1856,35424,0
1996,35436,0
2144,35429,0
2266,35388,0
2360,35401,0
2430,35401,0
2468,35391,0
2432,35421,0
2408,35426,0
2280,35409,0
2209,35383,0
2044,35389,0
1952,35382,0
1832,35390,0
1660,35407,0
1581,35399,0
1562,35379,0
1556,35379,0
1610,35379,0
1752,35375,0
1860,35384,0
1982,35400,0
2121,35396,0
2192,35370,0
2306,35374,0
2392,35371,0
2480,35389,0
2466,35378,0
2424,35376,0
2338,35394,0
2220,35381,0
2104,35365,0
1969,35368,0
1856,35366,0
1756,35392,0
1682,35395,0
1632,35382,0
1635,35385,0
1688,35380,0
1728,35371,0
1896,35374,0
1984,35403,0
2176,35401,0
2248,35360,0
2400,35376,0
2456,35380,0
2496,35373,0
2440,35400,0
2388,35409,0
2282,35409,0
2176,35372,0
2088,35386,0
1946,35392,0
1844,35403,0
1712,35393,0
1601,35418,0
1564,35417,0
1586,35382,0
1752,35398,0
1844,35415,0
1964,35408,0
2104,35417,0
2256,35406,0
2380,35398,0
2464,35410,0
2533,35423,0
2552,35434,0
2532,35430,0
2464,35407,0
2356,35405,0
2240,35408,0
2064,35415,0
1954,35449,0
1778,35434,0
1728,35403,0
1560,35422,0
1608,35417,0
1593,35414,0
1653,35442,0
1658,35451,0
1768,35429,0
1906,35417,0
2056,35429,0
2212,35429,0
2317,35428,0
2377,35452,0
2396,35461,0
2345,35405,0
2288,35437,0
2202,35433,0
2148,35435,0
2025,35441,0
1908,35436,0
1796,35459,0
1704,35443,0
1624,35427,0
1590,35441,0
1605,35445,0
1650,35441,0
1720,35470,0
1826,35473,0
1955,35428,0
2092,35446,0
2184,35446,0
2312,35442,0
2344,35453,0
2400,35472,0
2368,35478,0
2336,35444,0
2234,35468,0
2124,35456,0
1932,35459,0
1801,35477,0
1691,35487,0
1588,35472,0
1580,35468,0
1549,35472,0
1548,35473,0
1621,35483,0
1648,35492,0
1768,35478,0
1936,35467,0
2160,35486,0
2320,35474,0
2424,35482,0
2504,35513,0
2540,35464,0
2520,35477,0
2468,35491,0
2360,35484,0
2244,35487,0
2104,35515,0
1954,35514,0
1832,35496,0
1722,35490,0
1592,35483,0
1492,35480,0
1532,35490,0
1620,35520,0
1637,35514,0
1808,35504,0
1904,35488,0
2040,35497,0
2112,35490,0
2204,35491,0
2272,35524,0
2296,35513,0
2326,35471,0
2241,35490,0
2136,35487,0
2025,35494,0
1824,35494,0
1696,35507,0
1568,35482,0
1580,35496,0
1532,35476,0
1506,35491,0
1528,35479,0
1584,35498,0
1684,35496,0
1808,35462,0
1936,35471,0
2080,35473,0
2192,35462,0
2282,35492,0
2343,35483,0
2368,35454,0
2304,35471,0
2264,35463,0
2128,35463,0
2040,35494,0
1856,35493,0
1764,35455,0
1632,35466,0
1546,35463,0
1376,35458,0
1357,35466,0
1376,35480,0
1429,35462,0
1585,35456,0
1705,35449,0
1832,35450,0
1978,35444,0
2064,35470,0
2192,35469,0
2288,35431,0
2368,35442,0
2372,35440,0
2308,35456,0
2224,35457,0
2116,35462,0
1982,35414,0
1856,35439,0
1736,35433,0
1636,35433,0
1557,35454,0
1517,35461,0
1508,35441,0
1594,35431,0
1621,35437,0
1790,35432,0
1890,35427,0
2068,35447,0
2156,35448,0
2308,35411,0
2352,35435,0
2408,35423,0
2336,35414,0
2272,35440,0
2177,35455,0
2048,35424,0
1954,35414,0
1810,35421,0
1675,35419,0
1562,35415,0
1426,35443,0
1392,35434,0
1412,35403,0
1572,35425,0
1672,35395,0
1788,35435,0
1936,35412,0
2088,35455,0
2088,35407,0
2308,35428,0
2372,35416,0
2404,35409,0
2384,35417,0
2328,35434,0
2219,35439,0
2104,35398,0
1929,35409,0
1840,35406,0
1664,35416,0
1624,35441,0
1509,35444,0
1520,35400,0
1520,35408,0
1584,35412,0
1600,35407,0
1714,35418,0
1859,35443,0
2006,35442,0
2168,35402,0
2272,35415,0
2332,35422,0
2342,35421,0
2304,35443,0
2246,35439,0
2168,35427,0
2116,35431,0
2000,35446,0
1876,35426,0
1758,35442,0
1672,35451,0
1608,35406,0
1578,35429,0
1578,35431,0
1640,35426,0
1722,35441,0
1832,35451,0
1973,35431,0
2106,35433,0
2184,35435,0
2328,35424,0
2360,35431,0
2416,35460,0
2368,35460,0
2340,35425,0
2240,35434,0
2116,35434,0
1908,35431,0
1752,35447,0
1620,35463,0
1494,35459,0
1462,35426,0
1405,35444,0
1391,35445,0
1408,35438,0
1432,35465,0
1547,35466,0
1928,35453,0
2064,35468,0
2172,35449,0
2258,35453,0
2296,35486,0
2288,35462,0
2216,35449,0
2120,35451,0
1980,35476,0
1840,35476,0
1676,35429,0
1516,35452,0
1432,35452,0
1296,35455,0
1344,35477,0
1352,35478,0
1512,35475,0
1636,35446,0
1900,35463,0
2136,35450,0
2368,35464,0
2652,35490,0
2918,35492,0
3180,35447,0
3408,35464,0
3576,35460,0
3728,35465,0
3812,35481,0
3864,35503,0
3888,35463,0
3856,35465,0
3826,35468,0
3780,35453,0
3728,35486,0
3680,35463,0
3652,35484,0
3640,35494,0
3624,35466,0
3652,35471,0
3664,35478,0
3696,35476,0
3724,35496,0
3720,35505,0
3713,35484,0
3664,35466,0
3572,35485,0
3488,35482,0
3312,35486,0
3148,35509,0
2956,35503,0
2784,35463,0
2584,35486,0
2436,35485,0
2240,35486,0
2130,35512,0
2064,35514,0
2040,35492,0
2098,35491,0
2122,35489,0
2168,35492,0
2242,35498,0
2280,35519,0
2320,35513,0
2364,35484,0
2420,35484,0
2372,35519,0
2312,35497,0
2210,35515,0
2072,35498,0
1948,35513,0
1810,35481,0
1680,35502,0
1592,35507,0
1516,35503,0
1492,35516,0
1477,35532,0
1537,35515,0
1568,35495,0
1757,35496,0
1836,35498,0
2026,35509,0
2096,35537,0
2232,35531,0
2304,35490,0
2328,35514,0
2260,35511,0
2200,35507,0
2104,35534,0
1978,35537,0
1880,35502,0
1753,35523,0
1604,35519,0
1509,35510,0
1378,35521,0
1354,35547,0
1388,35546,0
1556,35519,0
1653,35506,0
1788,35528,0
1940,35518,0
2082,35514,0
2234,35530,0
2336,35532,0
2412,35529,0
2448,35552,0
2436,35552,0
2368,35541,0
2260,35522,0
2138,35537,0
1960,35527,0
1861,35526,0
1688,35554,0
1612,35547,0
1488,35511,0
1504,35534,0
1496,35539,0
1552,35535,0
1552,35551,0
1674,35569,0
1810,35546,0
1976,35531,0
2128,35545,0
2240,35548,0
2308,35540,0
2328,35577,0
2276,35568,0
2233,35528,0
2136,35550,0
2100,35526,0
1980,35554,0
1864,35551,0
1754,35575,0
1664,35567,0
1600,35568,0
1578,35581,0
1588,35543,0
1644,35562,0
1740,35552,0
1852,35553,0
1964,35573,0
2120,35588,0
2216,35557,0
2356,35568,0
2416,35558,0
2450,35558,0
2400,35571,0
2368,35589,0
2256,35592,0
2132,35548,0
1924,35564,0
1778,35563,0
1638,35575,0
1521,35602,0
1504,35593,0
1457,35570,0
1454,35572,0
1489,35574,0
1525,35569,0
1648,35574,0
1804,35597,0
2033,35578,0
2156,35581,0
2280,35602,0
2340,35589,0
2370,35567,0
2352,35557,0
2288,35588,0
2192,35573,0
2060,35573,0
1932,35597,0
1776,35603,0
1631,35588,0
1544,35575,0
1397,35590,0
1424,35571,0
1364,35584,0
1484,35613,0
1512,35601,0
1684,35565,0
1824,35570,0
1978,35587,0
2036,35582,0
2156,35588,0
2232,35607,0
2276,35598,0
2292,35575,0
2217,35583,0
2112,35585,0
1992,35588,0
1796,35599,0
1656,35602,0
1549,35585,0
1560,35584,0
1476,35586,0
1476,35596,0
1492,35598,0
1554,35601,0
1658,35568,0
1776,35590,0
1922,35583,0
2056,35586,0
2184,35601,0
2432,35613,0
2337,35606,0
2384,35579,0
2320,35597,0
2290,35583,0
2160,35578,0
2080,35607,0
1896,35610,0
1804,35583,0
1658,35578,0
1584,35574,0
1416,35583,0
1384,35597,0
1388,35607,0
1452,35578,0
1616,35575,0
1724,35586,0
1862,35570,0
2004,35570,0
2090,35595,0
2224,35597,0
2314,35552,0
2412,35572,0
2396,35581,0
2356,35566,0
2268,35569,0
2168,35544,0
2038,35543,0
1910,35574,0
1788,35565,0
1684,35513,0
1624,35531,0
1593,35525,0
1576,35519,0
1642,35542,0
1682,35536,0
1852,35531,0
1960,35495,0
2144,35505,0
2216,35490,0
2352,35477,0
2420,35513,0
2464,35492,0
2388,35464,0
2338,35470,0
2232,35460,0
2113,35453,0
2016,35460,0
1878,35470,0
1736,35461,0
1624,35417,0
1482,35420,0
1452,35419,0
1632,35249,0
1722,35405,0
1853,35392,0
1985,35397,0
2124,35394,0
2248,35380,0
2346,35401,0
2420,35397,0
2440,35348,0
2420,35349,0
2368,35351,0
2258,35349,0
2136,35360,0
1954,35356,0
1864,35343,0
1688,35314,0
1640,35329,0
1505,35320,0
1524,35308,0
1512,35317,0
1488,35328,0
1576,35295,0
1705,35294,0
1841,35286,0
1984,35274,0
2156,35290,0
2258,35304,0
2312,35287,0
2340,35258,0
2284,35265,0
2216,35259,0
2136,35259,0
2072,35223,0
2060,35262,0
1826,35241,0
1708,35263,0
1612,35221,0
1546,35249,0
1496,35262,0
1512,35269,0
1562,35225,0
1656,35238,0
1774,35222,0
1892,35228,0
2052,35237,0
2136,35261,0
2276,35249,0
2320,35206,0
2376,35231,0
2340,35227,0
2288,35219,0
2196,35233,0
2080,35253,0
1856,35239,0
1716,35212,0
1605,35225,0
1490,35216,0
1472,35223,0
1432,35249,0
1433,35250,0
1476,35212,0
1516,35221,0
1644,35216,0
1808,35220,0
2038,35223,0
2184,35227,0
2300,35234,0
2348,35233,0
2396,35194,0
2386,35215,0
2328,35230,0
2228,35223,0
2100,35225,0
1960,35252,0
1822,35251,0
1672,35246,0
1600,35219,0
1458,35231,0
1480,35223,0
1440,35234,0
1552,35262,0
1584,35252,0
1748,35226,0
1876,35240,0
2036,35225,0
2112,35235,0
2224,35244,0
2304,35275,0
2320,35263,0
2344,35234,0
2296,35245,0
2184,35243,0
2036,35237,0
1864,35263,0
1736,35274,0
1624,35260,0
1616,35240,0
1564,35257,0
1540,35265,0
1568,35254,0
1626,35257,0
1724,35275,0
1856,35277,0
1989,35247,0
2136,35257,0
2256,35251,0
2368,35261,0
2429,35281,0
2450,35285,0
2400,35234,0
2376,35266,0
2250,35259,0
2162,35266,0
1994,35270,0
1904,35287,0
1760,35277,0
1684,35236,0
1520,35269,0
1490,35272,0
1508,35262,0
1557,35285,0
1712,35301,0
1813,35274,0
1948,35266,0
2088,35268,0
2176,35263,0
2282,35267,0
2380,35298,0
2472,35288,0
2468,35297,0
2420,35274,0
2332,35276,0
2224,35287,0
2082,35290,0
1960,35279,0
1840,35281,0
1740,35286,0
1656,35289,0
1620,35318,0
1604,35304,0
1670,35270,0
1704,35298,0
1866,35294,0
1946,35292,0
2144,35315,0
2224,35323,0
2368,35312,0
2440,35295,0
2468,35299,0
2394,35300,0
2330,35302,0
2240,35321,0
2097,35331,0
2004,35304,0
1868,35312,0
1728,35310,0
1609,35309,0
1488,35326,0
1460,35341,0
1472,35342,0
1644,35371,0
2052,35364,0
1916,35359,0
1812,35395,0
1640,35388,0
1537,35373,0
1456,35371,0
1410,35375,0
1420,35364,0
1480,35376,0
1570,35398,0
1682,35395,0
1844,35364,0
1986,35374,0
2120,35378,0
2236,35371,0
2304,35409,0
2349,35396,0
2332,35355,0
2272,35378,0
2164,35377,0
2057,35373,0
1910,35395,0
1778,35409,0
1643,35377,0
1544,35388,0
1528,35376,0
1488,35372,0
1478,35380,0
1536,35399,0
1570,35402,0
1704,35372,0
1874,35365,0
2104,35372,0
2264,35372,0
2388,35372,0
2488,35372,0
2536,35372,0
2544,35362,0
2484,35384,0
2412,35384,0
2316,35384,0
2194,35384,0
2066,35384,0
1936,35384,0
1858,35371,0
1744,35376,0
1760,35376,0
1730,35376,0
1840,35376,0
1888,35376,0
2052,35376,0
2184,35376,0
2352,35377,0
2420,35377,0
2536,35377,0
2624,35377,0
2656,35377,0
2656,35377,0
2593,35377,0
2477,35377,0
2341,35377,0
2160,35377,0
2020,35377,0
1896,35377,0
1868,35358,0
1802,35362,0
1754,35381,0
1740,35398,0
1802,35355,0
1888,35361,0
1980,35369,0
2124,35367,0
2256,35376,0
2376,35399,0
2480,35392,0
2522,35362,0
2556,35376,0
2512,35375,0
2480,35370,0
2352,35398,0
2260,35395,0
2088,35351,0
2002,35369,0
1860,35372,0
1770,35366,0
1600,35388,0
1562,35405,0
1568,35372,0
1632,35376,0
1749,35381,0
1889,35379,0
2512,35429,0
2508,35383,0
2460,35392,0
2372,35389,0
2256,35412,0
2144,35373,0
2002,35400,0
1884,35392,0
1786,35387,0
1716,35397,0
1674,35417,0
1671,35398,0
1744,35392,0
1776,35402,0
1944,35394,0
2045,35395,0
2228,35431,0
2304,35423,0
2396,35404,0
2476,35408,0
2508,35409,0
2490,35404,0
2424,35424,0
2332,35437,0
2192,35438,0
2074,35399,0
1936,35419,0
1764,35423,0
1664,35414,0
1496,35448,0
1457,35455,0
1462,35404,0
1632,35429,0
1708,35432,0
1828,35458,0
1973,35412,0
2120,35443,0
2264,35423,0
2368,35428,0
2430,35437,0
2464,35444,0
2432,35462,0
2352,35437,0
2214,35430,0
2112,35443,0
1880,35447,0
1776,35437,0
1610,35461,0
1554,35469,0
1458,35437,0
1528,35442,0
1594,35448,0
1752,35445,0
1864,35482,0
2112,35469,0
2410,35442,0
2716,35456,0
3036,35458,0
3316,35464,0
3580,35479,0
3793,35495,0
3960,35496,0
3976,35440,0
3976,35468,0
3956,35472,0
3936,35484,0
3920,35472,0
3856,35475,0
3762,35481,0
3680,35479,0
3604,35476,0
3530,35487,0
3496,35495,0
3488,35505,0
3476,35504,0
3526,35485,0
3540,35493,0
3568,35487,0
3583,35497,0
3592,35532,0
3568,35531,0
3472,35491,0
3364,35500,0
3220,35508,0
3040,35501,0
2808,35521,0
2618,35530,0
2417,35516,0
2252,35512,0
2132,35517,0
2021,35516,0
1949,35517,0
1912,35540,0
1880,35541,0
1946,35509,0
2006,35535,0
2172,35525,0
2245,35532,0
2300,35538,0
2346,35546,0
2338,35528,0
2304,35553,0
2220,35528,0
2100,35537,0
1964,35546,0
1824,35543,0
1668,35558,0
1529,35568,0
1432,35544,0
1280,35549,0
1316,35554,0
1273,35537,0
1372,35547,0
1404,35584,0
1592,35570,0
1716,35547,0
1884,35557,0
1928,35555,0
2049,35560,0
2120,35584,0
2156,35575,0
2156,35541,0
2082,35554,0
1977,35561,0
1817,35557,0
1608,35578,0
1456,35586,0
1324,35543,0
1316,35572,0
1248,35554,0
1218,35591,0
1232,35576,0
1290,35577,0
1404,35595,0
1532,35587,0
1680,35560,0
1840,35569,0
1982,35575,0
2100,35565,0
2171,35573,0
2224,35597,0
2172,35595,0
2148,35566,0
2008,35571,0
1912,35568,0
1704,35577,0
1620,35602,0
1476,35586,0
1376,35560,0
1180,35574,0
1139,35579,0
1168,35577,0
1217,35596,0
1384,35606,0
1493,35574,0
1632,35578,0
1773,35579,0
1872,35572,0
1986,35581,0
2085,35601,0
2184,35587,0
2200,35585,0
2132,35582,0
2042,35578,0
1908,35582,0
1768,35573,0
1616,35574,0
1466,35604,0
1368,35592,0
1285,35572,0
1234,35574,0
1223,35583,0
1302,35572,0
1338,35579,0
1534,35603,0
1636,35590,0
1820,35559,0
1928,35578,0
2068,35575,0
2132,35571,0
2096,35580,0
2088,35600,0
2034,35596,0
1898,35574,0
1760,35579,0
1652,35575,0
1476,35577,0
1324,35610,0
1207,35601,0
1056,35555,0
1018,35582,0
1042,35576,0
1236,35590,0
1360,35583,0
1497,35575,0
1676,35585,0
1840,35561,0
1992,35587,0
2112,35572,0
2196,35568,0
2241,35604,0
2228,35607,0
2174,35558,0
2064,35581,0
1936,35578,0
1750,35585,0
1662,35582,0
1464,35613,0
1416,35604,0
1280,35574,0
1302,35589,0
1312,35587,0
1408,35593,0
1410,35603,0
1546,35615,0
1721,35571,0
1888,35589,0
2096,35595,0
2209,35590,0
2302,35616,0
2337,35615,0
2280,35601,0
2244,35590,0
2148,35590,0
2104,35593,0
1982,35606,0
1840,35598,0
1728,35614,0
1624,35604,0
1572,35615,0
1534,35588,0
1555,35605,0
1596,35591,0
1728,35603,0
1834,35611,0
1995,35631,0
2148,35621,0
2258,35593,0
2400,35602,0
2448,35599,0
2512,35602,0
2464,35636,0
2432,35628,0
2328,35605,0
2216,35605,0
1992,35603,0
1858,35607,0
1746,35605,0
1616,35624,0
1592,35626,0
1565,35591,0
1570,35602,0
1633,35605,0
1670,35602,0
1857,35607,0
2004,35617,0
2248,35608,0
2400,35599,0
2540,35593,0
2664,35568,0
2716,35590,0
2712,35608,0
2680,35591,0
2588,35555,0
2476,35573,0
2356,35567,0
2224,35552,0
2088,35579,0
2002,35583,0
1888,35536,0
1912,35534,0
1852,35539,0
1945,35533,0
1980,35541,0
2130,35543,0
2260,35532,0
2396,35521,0
2468,35513,0
2560,35517,0
2626,35504,0
2642,35528,0
2640,35509,0
2574,35474,0
2442,35483,0
2305,35486,0
2104,35476,0
1960,35497,0
1800,35300,0
1721,35465,0
1686,35451,0
1677,35459,0
1728,35461,0
1834,35440,0
1920,35438,0
2064,35434,0
2192,35457,0
2303,35439,0
2402,35395,0
2452,35410,0
2468,35398,0
2408,35393,0
2356,35399,0
2208,35409,0
2104,35383,0
1900,35365,0
1804,35364,0
1656,35363,0
1464,35367,0
1389,35382,0
1344,35375,0
1348,35338,0
1402,35336,0
1548,35331,0
1673,35330,0
1794,35342,0
1944,35344,0
2016,35295,0
2144,35322,0
2186,35324,0
2272,35300,0
2249,35317,0
2180,35303,0
2068,35307,0
1918,35306,0
1776,35292,0
1616,35303,0
1480,35323,0
1352,35296,0
1268,35282,0
1228,35272,0
1221,35264,0
1292,35270,0
1332,35296,0
1512,35284,0
1620,35251,0
1830,35265,0
1920,35261,0
2081,35262,0
2160,35286,0
2224,35284,0
2154,35238,0
2089,35257,0
1992,35243,0
1874,35242,0
1754,35248,0
1633,35268,0
1490,35248,0
1364,35239,0
1234,35239,0
1200,35226,0
1238,35228,0
1428,35223,0
1521,35264,0
1661,35222,0
1830,35230,0
1988,35232,0
2144,35230,0
2260,35221,0
2376,35226,0
2400,35251,0
2388,35243,0
2356,35210,0
2240,35219,0
2144,35215,0
1976,35220,0
1892,35246,0
1722,35236,0
1704,35205,0
1586,35214,0
1624,35217,0
1628,35216,0
1705,35216,0
1732,35243,0
1860,35232,0
2029,35210,0
2200,35220,0
2368,35203,0
2480,35204,0
2548,35243,0
2600,35234,0
2552,35195,0
2497,35212,0
2432,35206,0
2372,35230,0
2262,35220,0
2136,35226,0
2028,35189,0
1910,35219,0
1864,35214,0
1810,35216,0
1832,35212,0
1860,35235,0
1948,35232,0
2045,35215,0
2164,35221,0
2288,35221,0
2368,35223,0
2488,35230,0
2514,35251,0
2552,35238,0
2496,35210,0
2444,35224,0
2328,35217,0
2188,35225,0
1994,35256,0
1820,35255,0
1681,35211,0
1547,35231,0
1522,35230,0
1464,35238,0
1450,35256,0
1477,35262,0
1508,35228,0
1618,35247,0
1772,35254,0
2006,35259,0
2140,35242,0
2256,35255,0
2324,35250,0
2368,35257,0
2354,35250,0
2288,35255,0
2186,35260,0
2056,35294,0
1904,35285,0
1768,35253,0
1625,35271,0
1532,35277,0
1392,35271,0
1410,35285,0
1360,35301,0
1480,35296,0
1520,35262,0
1696,35288,0
1840,35289,0
1996,35279,0
2080,35307,0
2184,35314,0
2276,35304,0
2320,35296,0
2324,35294,0
2264,35297,0
2148,35298,0
2005,35325,0
1800,35318,0
1645,35289,0
1528,35303,0
1504,35302,0
1434,35286,0
1409,35314,0
1436,35314,0
1500,35328,0
1614,35339,0
1748,35336,0
1913,35300,0
2072,35320,0
2224,35316,0
2344,35315,0
2434,35333,0
2480,35348,0
2448,35333,0
2420,35314,0
2300,35320,0
2196,35319,0
2016,35325,0
1918,35350,0
1776,35336,0
1680,35313,0
1512,35319,0
1480,35310,0
1480,35317,0
1560,35317,0
1704,35345,0
1828,35333,0
1970,35306,0
2124,35322,0
2225,35314,0
2354,35316,0
2456,35341,0
2546,35324,0
2548,35296,0
2500,35320,0
2420,35313,0
2304,35292,0
2164,35296,0
2024,35293,0
1888,35301,0
1780,35316,0
1704,35325,0
1653,35307,0
1633,35298,0
1712,35294,0
1736,35292,0
1904,35298,0
2000,35318,0
2184,35313,0
2276,35276,0
2392,35290,0
2440,35289,0
2456,35286,0
2372,35307,0
2288,35310,0
2152,35271,0
1992,35283,0
1856,35276,0
1674,35275,0
1501,35280,0
1362,35303,0
1202,35292,0
1152,35264,0
1164,35278,0
1333,35296,0
1436,35253,0
1568,35280,0
1741,35279,0
1888,35270,0
2046,35271,0
2160,35269,0
2236,35263,0
2274,35269,0
2256,35295,0
2184,35282,0
2075,35249,0
1936,35267,0
1738,35258,0
1620,35253,0
1448,35289,0
1384,35282,0
1240,35244,0
1278,35256,0
1281,35256,0
1360,35248,0
1372,35273,0
1524,35284,0
1701,35271,0
1864,35248,0
2058,35269,0
2170,35251,0
2244,35265,0
2282,35281,0
2216,35266,0
2152,35252,0
2048,35255,0
1984,35259,0
1848,35263,0
1696,35258,0
1580,35287,0
1472,35278,0
1393,35241,0
1360,35259,0
1372,35265,0
1436,35256,0
1552,35281,0
1668,35287,0
1817,35274,0
2020,35266,0
2112,35261,0
2284,35264,0
2340,35274,0
2416,35290,0
2394,35262,0
2368,35252,0
2272,35253,0
2160,35268,0
1956,35276,0
1815,35291,0
1690,35296,0
1591,35258,0
1569,35260,0
1538,35278,0
1552,35279,0
1600,35291,0
1664,35303,0
1805,35267,0
2216,35319,0
2380,35288,0
2504,35274,0
2580,35280,0
2620,35273,0
2608,35277,0
2536,35278,0
2430,35270,0
2292,35270,0
2138,35298,0
1980,35303,0
1807,35288,0
1712,35280,0
1564,35289,0
1572,35289,0
1496,35301,0
1600,35311,0
1620,35313,0
1778,35267,0
1912,35302,0
1984,35291,0
2112,35289,0
2220,35312,0
2280,35321,0
2298,35292,0
2292,35293,0
2212,35292,0
2064,35296,0
1916,35303,0
1684,35328,0
1522,35331,0
1371,35287,0
1352,35319,0
1278,35304,0
1240,35318,0
1261,35289,0
1332,35316,0
1446,35337,0
1588,35296,0
1844,35305,0
1944,35309,0
2096,35322,0
2216,35333,0
2299,35339,0
2316,35336,0
2260,35311,0
2196,35320,0
2036,35323,0
1936,35333,0
1731,35343,0
1656,35354,0
1526,35309,0
1488,35324,0
1362,35326,0
1400,35340,0
1515,35354,0
1676,35363,0
1932,35334,0
2181,35333,0
2468,35336,0
2762,35348,0
3028,35355,0
3300,35373,0
3530,35362,0
3680,35369,0
3772,35360,0
3784,35364,0
3732,35366,0
3616,35342,0
3488,35380,0
3296,35376,0
3124,35343,0
2944,35366,0
2800,35369,0
2688,35369,0
2612,35386,0
2608,35388,0
2648,35370,0
2704,35366,0
2788,35380,0
2928,35378,0
3020,35389,0
3136,35408,0
3208,35387,0
3236,35386,0
3216,35378,0
3152,35385,0
3044,35390,0
2933,35413,0
2768,35398,0
2601,35382,0
2440,35399,0
2296,35389,0
2144,35393,0
2064,35410,0
2036,35422,0
2116,35400,0
2164,35371,0
2233,35382,0
2336,35409,0
2444,35404,0
2536,35421,0
2600,35388,0
2650,35406,0
2648,35398,0
2620,35411,0
2524,35424,0
2381,35438,0
2256,35406,0
2064,35407,0
1960,35411,0
1768,35423,0
1704,35425,0
1568,35427,0
1570,35427,0
1574,35407,0
1636,35421,0
1618,35409,0
1746,35412,0
1898,35449,0
2037,35440,0
2224,35401,0
2314,35416,0
2376,35415,0
2386,35413,0
2336,35434,0
2272,35446,0
2156,35425,0
2096,35419,0
1960,35442,0
1816,35426,0
1684,35428,0
1584,35451,0
1516,35422,0
1460,35437,0
1470,35440,0
1535,35429,0
1612,35446,0
1732,35453,0
1860,35423,0
2008,35437,0
2090,35436,0
2236,35426,0
2260,35458,0
2312,35452,0
2240,35418,0
2192,35447,0
2047,35440,0
1916,35445,0
1664,35452,0
1480,35468,0
1331,35458,0
1189,35437,0
1156,35453,0
1099,35443,0
1096,35449,0
1144,35479,0
1168,35465,0
1312,35444,0
1476,35455,0
1722,35448,0
1881,35476,0
1984,35476,0
2080,35495,0
2112,35466,0
2096,35448,0
2016,35467,0
1908,35474,0
1762,35471,0
1600,35472,0
1424,35498,0
1254,35491,0
1154,35480,0
979,35486,0
1008,35485,0
960,35489,0
1084,35509,0
1113,35505,0
1314,35474,0
1460,35483,0
1636,35486,0
1704,35480,0
1836,35505,0
1922,35512,0
1969,35494,0
2008,35493,0
1942,35491,0
1834,35491,0
1674,35495,0
1476,35517,0
1336,35518,0
1202,35485,0
1232,35470,0
1162,35519,0
1152,35493,0
1195,35510,0
1277,35512,0
1396,35495,0
1562,35510,0
1720,35504,0
1918,35509,0
2029,35532,0
2200,35528,0
2312,35496,0
2360,35502,0
2344,35498,0
2292,35514,0
2196,35528,0
2088,35539,0
1956,35489,0
1824,35507,0
1704,35492,0
1608,35512,0
1450,35536,0
1437,35530,0
1458,35494,0
1525,35522,0
1704,35501,0
1825,35514,0
1968,35529,0
2137,35530,0
2256,35484,0
2378,35506,0
2480,35507,0
2584,35512,0
2588,35522,0
2536,35498,0
2448,35531,0
2332,35512,0
2186,35507,0
2072,35502,0
1944,35524,0
1850,35544,0
1784,35521,0
1760,35508,0
1767,35509,0
1844,35503,0
1908,35515,0
2068,35535,0
2196,35535,0
2400,35502,0
2512,35510,0
2680,35510,0
2776,35512,0
2840,35530,0
2836,35525,0
2786,35501,0
2712,35501,0
2610,35497,0
2516,35499,0
2396,35504,0
2280,35520,0
2196,35519,0
2100,35489,0
2100,35490,0
2256,35366,0
2380,35497,0
2520,35504,0
2676,35470,0
2840,35506,0
2988,35478,0
3104,35489,0
3202,35496,0
3236,35467,0
3236,35466,0
3184,35455,0
3092,35459,0
2976,35452,0
2824,35476,0
2696,35470,0
2556,35431,0
2456,35436,0
2344,35438,0
2332,35421,0
2324,35436,0
2320,35439,0
2400,35414,0
2506,35402,0
2644,35399,0
2776,35394,0
2912,35396,0
2997,35408,0
3056,35400,0
3058,35358,0
3028,35370,0
2944,35363,0
2832,35360,0
2746,35366,0
2588,35346,0
2456,35349,0
2316,35352,0
2188,35354,0
2104,35324,0
2046,35330,0
2032,35337,0
2073,35322,0
2144,35287,0
2248,35296,0
2353,35289,0
2362,35281,0
2592,35302,0
2712,35301,0
2752,35243,0
2796,35269,0
2752,35246,0
2704,35236,0
2584,35268,0
2460,35264,0
2260,35222,0
2112,35233,0
1953,35223,0
1826,35207,0
1776,35212,0
1719,35221,0
1697,35203,0
1736,35195,0
1760,35197,0
1872,35180,0
2000,35175,0
2200,35173,0
2336,35196,0
2432,35182,0
2504,35172,0
2520,35162,0
2484,35157,0
2424,35149,0
2320,35160,0
2180,35172,0
2021,35148,0
1872,35133,0
1723,35140,0
1616,35141,0
1472,35137,0
1484,35150,0
1432,35137,0
1540,35119,0
1568,35120,0
1740,35123,0
1872,35128,0
2032,35145,0
2088,35135,0
2208,35104,0
2284,35125,0
2328,35105,0
2328,35107,0
2256,35129,0
2144,35133,0
2016,35104,0
1817,35103,0
1684,35111,0
1552,35104,0
1560,35119,0
1497,35105,0
1468,35118,0
1496,35107,0
1572,35129,0
1676,35114,0
1812,35125,0
1982,35142,0
2140,35111,0
2290,35119,0
2400,35114,0
2480,35119,0
2520,35133,0
2480,35145,0
2418,35126,0
2312,35119,0
2218,35121,0
2034,35120,0
1936,35130,0
1784,35158,0
1688,35149,0
1524,35126,0
1494,35129,0
1516,35123,0
1568,35130,0
1720,35159,0
1848,35160,0
1989,35127,0
2152,35136,0
2252,35142,0
2376,35141,0
2472,35142,0
2576,35155,0
2559,35120,0
2512,35179,0
2580,35148,0
2292,35147,0
2168,35149,0
2036,35143,0
1896,35182,0
1794,35174,0
1730,35153,0
1684,35168,0
1690,35150,0
1764,35161,0
1808,35168,0
1978,35186,0
2080,35187,0
2266,35163,0
2364,35160,0
2484,35158,0
2540,35169,0
2576,35193,0
2490,35184,0
2406,35168,0
2285,35172,0
2114,35179,0
2006,35175,0
1835,35182,0
1665,35208,0
1549,35197,0
1376,35161,0
1332,35180,0
1346,35176,0
1508,35180,0
1608,35182,0
1736,35190,0
1888,35203,0
2040,35185,0
2196,35180,0
2306,35182,0
2388,35195,0
2420,35202,0
2418,35208,0
2352,35188,0
2253,35197,0
2132,35195,0
1940,35205,0
1850,35223,0
1680,35219,0
1616,35188,0
1490,35194,0
1509,35185,0
1496,35195,0
1584,35222,0
1592,35223,0
1720,35183,0
1880,35207,0
2054,35197,0
2220,35197,0
2346,35212,0
2416,35238,0
2456,35232,0
2400,35205,0
2332,35206,0
2240,35216,0
2176,35217,0
2058,35232,0
1912,35229,0
1800,35244,0
1684,35225,0
1630,35222,0
1580,35218,0
1602,35228,0
1652,35236,0
1753,35241,0
1876,35244,0
2012,35219,0
2172,35226,0
2272,35233,0
2410,35227,0
2464,35256,0
2512,35259,0
2468,35241,0
2436,35225,0
2328,35227,0
2220,35229,0
1994,35229,0
1844,35259,0
1722,35253,0
1613,35224,0
1584,35235,0
1544,35234,0
1544,35236,0
1614,35266,0
1656,35262,0
1792,35221,0
1954,35242,0
2194,35255,0
2338,35256,0
2464,35241,0
2552,35244,0
2592,35253,0
2580,35264,0
2504,35220,0
2416,35240,0
2280,35241,0
2140,35237,0
1985,35255,0
1829,35260,0
1744,35232,0
1617,35236,0
1638,35232,0
1596,35244,0
1692,35247,0
1748,35267,0
1900,35261,0
2032,35226,0
2168,35238,0
2252,35246,0
2368,35235,0
2432,35257,0
2458,35266,0
2464,35235,0
2392,35240,0
2280,35234,0
2132,35239,0
1936,35254,0
1809,35263,0
1666,35234,0
1658,35241,0
1594,35213,0
1572,35245,0
1584,35250,0
1656,35235,0
1748,35240,0
1880,35255,0
2005,35261,0
2156,35240,0
2288,35239,0
2385,35232,0
2461,35232,0
2490,35237,0
2448,35266,0
2416,35258,0
2280,35229,0
2192,35252,0
2012,35236,0
1920,35231,0
1784,35267,0
1696,35265,0
1536,35214,0
1512,35237,0
1512,35238,0
1576,35232,0
1724,35256,0
1848,35263,0
1980,35234,0
2114,35242,0
2220,35247,0
2330,35238,0
2496,35242,0
2484,35237,0
2428,35218,0
2344,35249,0
2208,35228,0
2064,35242,0
1924,35255,0
1790,35263,0
1672,35223,0
1602,35243,0
1572,35235,0
1560,35239,0
1612,35270,0
1658,35276,0
1828,35226,0
1920,35249,0
2106,35243,0
2304,35237,0
2336,35261,0
2408,35271,0
2400,35254,0
2388,35242,0
2323,35254,0
2212,35241,0
2066,35258,0
1960,35280,0
1810,35258,0
1664,35244,0
1554,35255,0
1412,35240,0
1379,35260,0
1390,35280,0
1560,35242,0
1672,35245,0
1796,35268,0
1938,35262,0
2096,35267,0
2236,35261,0
2344,35260,0
2416,35275,0
2441,35282,0
2424,35271,0
2338,35260,0
2227,35262,0
2096,35264,0
1900,35265,0
1801,35293,0
1612,35277,0
1552,35272,0
1428,35273,0
1432,35271,0
1440,35268,0
1496,35301,0
1488,35277,0
1616,35245,0
1756,35279,0
1904,35269,0
2072,35273,0
2170,35302,0
2141,35301,0
2240,35261,0
2160,35278,0
2067,35280,0
1954,35276,0
1892,35289,0
1738,35301,0
1584,35315,0
1456,35274,0
1346,35307,0
1284,35289,0
1236,35287,0
1256,35285,0
1306,35281,0
1396,35300,0
1521,35324,0
1638,35314,0
1776,35291,0
1846,35291,0
1996,35299,0
2008,35293,0
2080,35329,0
2028,35322,0
2024,35285,0
1940,35299,0
1890,35297,0
1748,35306,0
1696,35308,0
1689,35330,0
1714,35317,0
1844,35303,0
1956,35308,0
2145,35304,0
2378,35312,0
2644,35334,0
2962,35325,0
3308,35301,0
3632,35301,0
3888,35336,0
3964,35325,0
3964,35303,0
3964,35309,0
3964,35336,0
3956,35290,0
3936,35325,0
4068,35313,0
3724,35314,0
3568,35330,0
3383,35343,0
3204,35332,0
3028,35318,0
2896,35326,0
2794,35330,0
2752,35339,0
2688,35357,0
2728,35349,0
2760,35309,0
2815,35334,0
2842,35328,0
2860,35333,0
2881,35342,0
2837,35352,0
2768,35341,0
2641,35320,0
2482,35324,0
2296,35334,0
2064,35328,0
1872,35353,0
1700,35362,0
1648,35340,0
1534,35338,0
1466,35356,0
1458,35302,0
1482,35363,0
1545,35343,0
1642,35336,0
1756,35334,0
1872,35330,0
2000,35341,0
2089,35370,0
2144,35358,0
2173,35331,0
2112,35341,0
2084,35339,0
1938,35355,0
1856,35371,0
1649,35351,0
1560,35345,0
1416,35354,0
1320,35354,0
1144,35367,0
1100,35361,0
1104,35356,0
1168,35348,0
1338,35353,0
1444,35353,0
1578,35357,0
1724,35377,0
1808,35378,0
1940,35337,0
2021,35355,0
2136,35357,0
2132,35357,0
2072,35355,0
1972,35378,0
1858,35336,0
1716,35367,0
1568,35387,0
1444,35383,0
1344,35344,0
1265,35357,0
1228,35362,0
1229,35371,0
1292,35393,0
1328,35387,0
1517,35337,0
1620,35373,0
1824,35368,0
1916,35364,0
2068,35385,0
2136,35395,0
2176,35365,0
2088,35358,0
2040,35368,0
1936,35369,0
1800,35376,0
1692,35389,0
1546,35385,0
1396,35364,0
1290,35370,0
1152,35374,0
1122,35373,0
1144,35400,0
1332,35375,0
1440,35371,0
1580,35391,0
1746,35388,0
1908,35380,0
2047,35398,0
2156,35401,0
2240,35351,0
2272,35386,0
2236,35367,0
2164,35379,0
2043,35405,0
1920,35398,0
1716,35357,0
1624,35390,0
1432,35376,0
1372,35379,0
1236,35405,0
1256,35406,0
1224,35370,0
1338,35384,0
1333,35380,0
1466,35379,0
1632,35396,0
1785,35403,0
1981,35404,0
2076,35390,0
2161,35390,0
2184,35398,0
2114,35399,0
2060,35418,0
1962,35415,0
1900,35403,0
1770,35413,0
1642,35390,0
1512,35424,0
1416,35396,0
1345,35411,0
1304,35417,0
1326,35373,0
1373,35398,0
1469,35393,0
1576,35404,0
1716,35419,0
1872,35416,0
1980,35379,0
2114,35395,0
2164,35396,0
2252,35401,0
2176,35416,0
2152,35415,0
2052,35404,0
1916,35393,0
1696,35395,0
1548,35397,0
1419,35397,0
1321,35422,0
1308,35422,0
1267,35391,0
1258,35391,0
1308,35379,0
1356,35397,0
1480,35432,0
1666,35419,0
1906,35398,0
2068,35415,0
2192,35400,0
2276,35398,0
2320,35418,0
2312,35403,0
2244,35396,0
2148,35410,0
2012,35403,0
1864,35427,0
1714,35426,0
1558,35388,0
1464,35396,0
1320,35410,0
1356,35392,0
1296,35412,0
1412,35418,0
1456,35408,0
1628,35395,0
1769,35392,0
1928,35400,0
2000,35394,0
2112,35421,0
2204,35410,0
2234,35377,0
2248,35386,0
2196,35383,0
2084,35387,0
1948,35405,0
1752,35414,0
1633,35357,0
1528,35242,0
1464,35381,0
1444,35355,0
1476,35370,0
1552,35373,0
1656,35378,0
1788,35347,0
1942,35350,0
2104,35347,0
2236,35342,0
2344,35357,0
2418,35355,0
2448,35323,0
2400,35319,0
2372,35330,0
2240,35326,0
2133,35315,0
1960,35339,0
1866,35320,0
1728,35295,0
1548,35291,0
1474,35284,0
1434,35290,0
1442,35305,0
1488,35294,0
1642,35246,0
1749,35267,0
1862,35255,0
1993,35242,0
2080,35263,0
2186,35261,0
2268,35211,0
2346,35242,0
2333,35217,0
2280,35239,0
2166,35186,0
2034,35222,0
1890,35169,0
1752,35193,0
1608,35175,0
1506,35167,0
1438,35197,0
1356,35192,0
1370,35139,0
1422,35147,0
1456,35139,0
1620,35132,0
1720,35149,0
1913,35146,0
2000,35121,0
2144,35115,0
2208,35112,0
2244,35110,0
2164,35114,0
2096,35125,0
1984,35090,0
1860,35089,0
1744,35083,0
1602,35074,0
1465,35084,0
1344,35091,0
1200,35081,0
1169,35059,0
1200,35056,0
1366,35049,0
1467,35065,0
1596,35051,0
1748,35058,0
1912,35047,0
2054,35034,0
2160,35036,0
2232,35049,0
2266,35050,0
2244,35025,0
2180,35024,0
2065,35024,0
1940,35023,0
1752,35045,0
1668,35042,0
1508,35008,0
1448,35020,0
1348,35014,0
1368,35011,0
1376,35035,0
1448,35037,0
1461,34997,0
1605,35008,0
1752,35009,0
1924,35010,0
2100,35042,0
2212,35038,0
2276,34998,0
2300,35011,0
2256,35015,0
2186,35006,0
2080,35028,0
2038,35030,0
1912,35029,0
1790,35008,0
1672,35014,0
1572,35025,0
1504,35017,0
1476,35035,0
1456,35036,0
1533,35003,0
1620,35020,0
1732,35020,0
1872,35012,0
2004,35038,0
2088,35050,0
2232,34999,0
2276,35034,0
2324,35031,0
2272,35021,0
2244,35039,0
2128,35044,0
2012,35027,0
1800,35029,0
1648,35032,0
1512,35035,0
1398,35041,0
1388,35060,0
1355,35056,0
1344,35016,0
1394,35041,0
1416,35043,0
1557,35041,0
1740,35073,0
1972,35034,0
2120,35046,0
2242,35056,0
2336,35025,0
2360,35072,0
2360,35070,0
2300,35027,0
2200,35054,0
2080,35051,0
1928,35045,0
1800,35065,0
1642,35069,0
1572,35039,0
1432,35049,0
1458,35060,0
1408,35046,0
1520,35071,0
1560,35076,0
1728,35058,0
1872,35055,0
2024,35060,0
2098,35045,0
2224,35064,0
2290,35078,0
2328,35070,0
2356,35052,0
2286,35058,0
2184,35048,0
2058,35064,0
1864,35086,0
1729,35077,0
1618,35065,0
1610,35052,0
1565,35065,0
1552,35060,0
1562,35057,0
1620,35068,0
1724,35061,0
1844,35064,0
1970,35066,0
2120,35094,0
2240,35078,0
2340,35065,0
2400,35070,0
2440,35062,0
2392,35078,0
2356,35098,0
2224,35091,0
2136,35066,0
1968,35071,0
1866,35067,0
1736,35078,0
1652,35096,0
1492,35093,0
1452,35066,0
1466,35072,0
1525,35070,0
1674,35068,0
1800,35113,0
1928,35101,0
2064,35067,0
2152,35087,0
2276,35083,0
2392,35084,0
2464,35093,0
2476,35109,0
2434,35100,0
2338,35103,0
2218,35116,0
2092,35095,0
1956,35094,0
1844,35100,0
1736,35122,0
1668,35091,0
1620,35093,0
1631,35091,0
1685,35102,0
1736,35119,0
1884,35124,0
1984,35105,0
2176,35094,0
2256,35107,0
2400,35096,0
2468,35120,0
2508,35138,0
2450,35083,0
2388,35100,0
2296,35105,0
2176,35102,0
2080,35135,0
1940,35133,0
1812,35085,0
1712,35110,0
1472,35101,0
1545,35104,0
1565,35140,0
1722,35106,0
1818,35130,0
1940,35101,0
2096,35120,0
2240,35116,0
2376,35128,0
2476,35118,0
2546,35105,0
2580,35107,0
2572,35095,0
2512,35118,0
2408,35134,0
2300,35127,0
2125,35090,0
2032,35108,0
1880,35105,0
1816,35099,0
1700,35125,0
1720,35126,0
1704,35091,0
1777,35106,0
1772,35102,0
1884,35107,0
2026,35127,0
2176,35128,0
2332,35084,0
2424,35104,0
2480,35098,0
2512,35107,0
2464,35128,0
2412,35116,0
2272,35094,0
2150,35100,0
2028,35091,0
1916,35099,0
1832,35124,0
1768,35102,0
1720,35097,0
1732,35109,0
1776,35115,0
1852,35076,0
1960,35091,0
2080,35086,0
2213,35093,0
2316,35112,0
2440,35110,0
2492,35068,0
2528,35091,0
2488,35094,0
2450,35090,0
2344,35114,0
2168,35119,0
2034,35065,0
1892,35089,0
1760,35095,0
1668,35094,0
1636,35120,0
1602,35102,0
1590,35077,0
1652,35090,0
1668,35087,0
1801,35084,0
1954,35120,0
2184,35115,0
2344,35111,0
2456,35079,0
2532,35088,0
2580,35104,0
2562,35115,0
2512,35082,0
2412,35095,0
2274,35087,0
2144,35087,0
2004,35099,0
1879,35117,0
1764,35086,0
1626,35090,0
1642,35095,0
1600,35092,0
1680,35102,0
1712,35115,0
1856,35106,0
1986,35092,0
2156,35091,0
2210,35091,0
2328,35092,0
2394,35120,0
2440,35122,0
2436,35084,0
2368,35095,0
2260,35099,0
2122,35096,0
1936,35119,0
1808,35116,0
1689,35078,0
1692,35115,0
1636,35099,0
1602,35099,0
1628,35107,0
1686,35114,0
1790,35102,0
1900,35100,0
2032,35136,0
2168,35121,0
2296,35096,0
2388,35109,0
2440,35096,0
2484,35107,0
2432,35129,0
2388,35128,0
2258,35083,0
2164,35117,0
1978,35114,0
1892,35123,0
1760,35138,0
1664,35144,0
1512,35115,0
1466,35117,0
1480,35124,0
1536,35119,0
1676,35139,0
1762,35157,0
1936,35139,0
2068,35125,0
2160,35129,0
2272,35131,0
2357,35124,0
2456,35138,0
2456,35131,0
2404,35143,0
2305,35126,0
2188,35116,0
2058,35136,0
1916,35165,0
1776,35164,0
1668,35133,0
1578,35144,0
1548,35148,0
1514,35148,0
1592,35184,0
1604,35173,0
1765,35138,0
1842,35160,0
2012,35155,0
2108,35151,0
2248,35193,0
2306,35181,0
2344,35148,0
2258,35165,0
2188,35174,0
2064,35166,0
1913,35184,0
1797,35202,0
1638,35148,0
1487,35174,0
1382,35180,0
1260,35176,0
1261,35211,0
1350,35199,0
1580,35171,0
1772,35186,0
2010,35197,0
2265,35201,0
2559,35204,0
2857,35200,0
3124,35189,0
3394,35193,0
3608,35187,0
3784,35204,0
3912,35225,0
3951,35223,0
3952,35186,0
3944,35208,0
3896,35211,0
3864,35208,0
3776,35235,0
3704,35238,0
3612,35187,0
3536,35217,0
3512,35208,0
3492,35220,0
3504,35234,0
3522,35239,0
3552,35211,0
3572,35221,0
3592,35228,0
3568,35219,0
3558,35233,0
3440,35252,0
3320,35214,0
3178,35235,0
3044,35244,0
2872,35255,0
2700,35231,0
2530,35229,0
2360,35227,0
2248,35223,0
2152,35232,0
2082,35233,0
2064,35244,0
2068,35268,0
2112,35259,0
2164,35224,0
2244,35245,0
2276,35245,0
2352,35246,0
2362,35266,0
2380,35275,0
2304,35225,0
2264,35240,0
2146,35248,0
2032,35252,0
1808,35276,0
1674,35264,0
1558,35227,0
1460,35257,0
1453,35256,0
1416,35252,0
1421,35265,0
1474,35291,0
1504,35256,0
1637,35256,0
1808,35255,0
2020,35259,0
2166,35276,0
2288,35239,0
2364,35246,0
2392,35236,0
2372,35255,0
2312,35265,0
2210,35288,0
2080,35277,0
1953,35255,0
1791,35266,0
1652,35260,0
1572,35272,0
1448,35295,0
1460,35292,0
1424,35274,0
1536,35264,0
1576,35267,0
1748,35274,0
1884,35307,0
2032,35295,0
2105,35263,0
2224,35284,0
2315,35273,0
2336,35283,0
2356,35309,0
2285,35302,0
2180,35252,0
2042,35276,0
1856,35286,0
1712,35284,0
1608,35301,0
1592,35288,0
1538,35292,0
1513,35288,0
1526,35294,0
1604,35292,0
1700,35298,0
1808,35320,0
1952,35295,0
2088,35288,0
2224,35295,0
2324,35293,0
2395,35310,0
2424,35311,0
2376,35317,0
2346,35303,0
2208,35295,0
2124,35294,0
1944,35306,0
1864,35326,0
1724,35317,0
1642,35289,0
1474,35310,0
1443,35300,0
1450,35316,0
1513,35344,0
1652,35330,0
1772,35296,0
1898,35319,0
2037,35309,0
2120,35319,0
2248,35338,0
2328,35342,0
2298,35342,0
2418,35333,0
2360,35326,0
2277,35321,0
2168,35321,0
2032,35350,0
1904,35344,0
1776,35317,0
1684,35332,0
1618,35328,0
1594,35335,0
1570,35359,0
1646,35342,0
1688,35324,0
1842,35337,0
1940,35333,0
2120,35333,0
2212,35367,0
2340,35351,0
2416,35317,0
2456,35333,0
2384,35343,0
2314,35343,0
2210,35361,0
2088,35361,0
1986,35323,0
1853,35343,0
1718,35339,0
1612,35348,0
1484,35370,0
1472,35365,0
1648,35358,0
1758,35345,0
1884,35352,0
2028,35370,0
2184,35354,0
2308,35353,0
2416,35348,0
2484,35351,0
2506,35374,0
2492,35379,0
2418,35341,0
2311,35353,0
2188,35356,0
2012,35364,0
1908,35378,0
1746,35389,0
1692,35345,0
1572,35361,0
1588,35362,0
1592,35362,0
1560,35380,0
1650,35382,0
1778,35357,0
1926,35357,0
2081,35364,0
2248,35351,0
2354,35376,0
2428,35388,0
2456,35355,0
2400,35366,0
2357,35360,0
2276,35358,0
2233,35358,0
2116,35360,0
2000,35361,0
1894,35365,0
1824,35386,0
1760,35368,0
1729,35384,0
1756,35355,0
1808,35346,0
1916,35343,0
2028,35349,0
2162,35366,0
2308,35365,0
2418,35349,0
2556,35332,0
2608,35337,0
2668,35328,0
2632,35341,0
2608,35361,0
2504,35338,0
2400,35320,0
2208,35322,0
2074,35315,0
1952,35317,0
1856,35329,0
1812,35322,0
1795,35278,0
1786,35288,0
1829,35284,0
1856,35282,0
1992,35313,0
2129,35283,0
2352,35292,0
2473,35273,0
2592,35259,0
2664,35244,0
2724,35272,0
2692,35239,0
2632,35242,0
2528,35255,0
2400,35248,0
2258,35203,0
2124,35215,0
2001,35211,0
1892,35198,0
1764,35223,0
1776,35208,0
1736,35175,0
1824,35180,0
1840,35167,0
1996,35170,0
2128,35188,0
2264,35188,0
2338,35142,0
2434,35159,0
2486,35140,0
2529,35132,0
2536,35158,0
2466,35147,0
2362,35114,0
2218,35118,0
2040,35117,0
1904,35103,0
1792,35128,0
1776,35089,0
1712,35105,0
1680,35103,0
1696,35104,0
1760,35109,0
1834,35077,0
1953,35084,0
2080,35101,0
2212,35087,0
2336,35045,0
2412,35067,0
2464,35059,0
2508,35058,0
2448,35085,0
2408,35077,0
2264,35034,0
2178,35046,0
1992,35044,0
1890,35055,0
1760,35075,0
1664,35054,0
1496,35033,0
1450,35036,0
1473,35038,0
1524,35040,0
1668,35061,0
1764,35037,0
1898,35033,0
2020,35023,0
2104,35028,0
2228,35037,0
2320,35050,0
2408,35062,0
1424,35083,0
1522,35085,0
1668,35059,0
1814,35062,0
1970,35076,0
2102,35068,0
2224,35106,0
2304,35094,0
2339,35075,0
2326,35073,0
