ECG,IR,PCG
2116,38355,0
2152,38375,0
2176,38358,0
2208,38361,0
2224,38375,0
2224,38359,0
2232,38374,0
2242,38354,0
2204,38352,0
2170,38357,0
2136,38365,0
2104,38352,0
2066,38341,0
2034,38376,0
2006,38344,0
2001,38334,0
1991,38361,0
1996,38342,0
2008,38338,0
2034,38358,0
2064,38348,0
2080,38345,0
2128,38355,0
2148,38331,0
2168,38331,0
2176,38361,0
2180,38339,0
2176,38334,0
2154,38352,0
2128,38323,0
2088,38332,0
2062,38348,0
2032,38329,0
2004,38323,0
1968,38341,0
1952,38340,0
1954,38315,0
1964,38325,0
1976,38318,0
2004,38310,0
2036,38320,0
2060,38323,0
2084,38314,0
2120,38296,0
2140,38337,0
2152,38303,0
2160,38303,0
2144,38327,0
2152,38305,0
2108,38315,0
2080,38324,0
2032,38307,0
2000,38311,0
1982,38333,0
1948,38313,0
1938,38310,0
1944,38301,0
1944,38329,0
1974,38316,0
2000,38286,0
2035,38329,0
2073,38302,0
2098,38291,0
2150,38341,0
2160,38304,0
2168,38307,0
2176,38326,0
2166,38313,0
2146,38298,0
2122,38315,0
2108,38320,0
2056,38303,0
2028,38323,0
2000,38328,0
1976,38329,0
1964,38337,0
1952,38317,0
1976,38300,0
1982,38348,0
2012,38315,0
2044,38293,0
2068,38342,0
2124,38316,0
2128,38305,0
2160,38340,0
2156,38311,0
2160,38308,0
2154,38329,0
2136,38316,0
2112,38309,0
2098,38331,0
2058,38318,0
2020,38322,0
2004,38340,0
1976,38320,0
1964,38316,0
1961,38342,0
1972,38334,0
1988,38315,0
2016,38330,0
2048,38332,0
2088,38329,0
2114,38331,0
2136,38322,0
2152,38332,0
2180,38340,0
2174,38351,0
2168,38326,0
2136,38316,0
2110,38340,0
2092,38319,0
2044,38331,0
2017,38350,0
1984,38322,0
1964,38335,0
1964,38356,0
1964,38334,0
1976,38343,0
2004,38346,0
2032,38355,0
2064,38334,0
2104,38331,0
2140,38363,0
2157,38332,0
2198,38312,0
2198,38358,0
2210,38334,0
2212,38327,0
2176,38354,0
2149,38335,0
2112,38336,0
2088,38373,0
2052,38337,0
2012,38355,0
1994,38341,0
1984,38319,0
1980,38336,0
1988,38319,0
2021,38361,0
2047,38334,0
2082,38319,0
2112,38353,0
2152,38324,0
2180,38309,0
2227,38358,0
2212,38328,0
2216,38323,0
2202,38350,0
2188,38322,0
2164,38313,0
2152,38359,0
2076,38329,0
2044,38328,0
2002,38353,0
1979,38320,0
1990,38330,0
1968,38340,0
1984,38319,0
2004,38320,0
2046,38346,0
2066,38323,0
2104,38316,0
2144,38339,0
2170,38327,0
2197,38324,0
2200,38325,0
2204,38321,0
2200,38340,0
2184,38342,0
2168,38318,0
2134,38319,0
2092,38327,0
2060,38334,0
2028,38320,0
2002,38318,0
1996,38347,0
2004,38319,0
1996,38320,0
2020,38348,0
2044,38330,0
2076,38310,0
2106,38341,0
2138,38322,0
2164,38314,0
2184,38348,0
2204,38322,0
2212,38320,0
2204,38356,0
2176,38326,0
2152,38332,0
2128,38340,0
2096,38327,0
2066,38332,0
2040,38360,0
2024,38336,0
2010,38328,0
2012,38351,0
2021,38326,0
2038,38329,0
2064,38349,0
2096,38321,0
2112,38334,0
2148,38365,0
2168,38334,0
2184,38349,0
2192,38359,0
2197,38365,0
2188,38338,0
2170,38324,0
2132,38368,0
2113,38340,0
2076,38324,0
2040,38373,0
2024,38357,0
2004,38329,0
1996,38373,0
2000,38352,0
2020,38341,0
2048,38373,0
2070,38351,0
2104,38354,0
2136,38376,0
2178,38354,0
2216,38345,0
2208,38377,0
2212,38351,0
2212,38349,0
2192,38368,0
2169,38343,0
2138,38357,0
2100,38360,0
2056,38338,0
2028,38353,0
2004,38377,0
1980,38349,0
1980,38348,0
1994,38375,0
2020,38365,0
2032,38348,0
2056,38350,0
2086,38369,0
2120,38347,0
2164,38328,0
2174,38379,0
2192,38351,0
2200,38322,0
2200,38376,0
2184,38340,0
2168,38327,0
2140,38371,0
2112,38348,0
2075,38332,0
2060,38371,0
2025,38345,0
2012,38330,0
2006,38366,0
2006,38337,0
2030,38353,0
2056,38364,0
2074,38333,0
2132,38336,0
2164,38340,0
2178,38345,0
2194,38330,0
2208,38356,0
2202,38362,0
2188,38343,0
2162,38341,0
2128,38361,0
2092,38338,0
2069,38340,0
2044,38371,0
2009,38338,0
2016,38353,0
2000,38361,0
2020,38344,0
2021,38340,0
2046,38355,0
2072,38357,0
2106,38338,0
2138,38324,0
2168,38365,0
2192,38341,0
2212,38317,0
2220,38360,0
2210,38333,0
2220,38320,0
2172,38351,0
2146,38324,0
2112,38332,0
2080,38351,0
2056,38326,0
2020,38336,0
2008,38332,0
2004,38333,0
2004,38325,0
2024,38353,0
2047,38327,0
2068,38327,0
2100,38341,0
2138,38346,0
2168,38322,0
2186,38330,0
2206,38349,0
2204,38329,0
2217,38319,0
2194,38359,0
2160,38319,0
2144,38312,0
2104,38353,0
2080,38327,0
2040,38311,0
2024,38345,0
2008,38323,0
2000,38319,0
2012,38359,0
2048,38328,0
2056,38324,0
2112,38361,0
2120,38332,0
2148,38312,0
2176,38353,0
2196,38334,0
2208,38328,0
2204,38336,0
2200,38354,0
2192,38348,0
2164,38329,0
2132,38328,0
2104,38317,0
2056,38351,0
2042,38337,0
2024,38343,0
2008,38347,0
2002,38337,0
2045,38338,0
2032,38362,0
2048,38343,0
2080,38339,0
2112,38359,0
2136,38334,0
2168,38343,0
2184,38362,0
2200,38336,0
2208,38349,0
2212,38365,0
2188,38360,0
2160,38341,0
2138,38360,0
2096,38369,0
2081,38345,0
2034,38334,0
2014,38370,0
2012,38350,0
2001,38333,0
1990,38369,0
2032,38350,0
2040,38351,0
2072,38350,0
2101,38354,0
2144,38359,0
2160,38370,0
2184,38352,0
2210,38331,0
2208,38370,0
2197,38350,0
2184,38337,0
2168,38369,0
2136,38348,0
2104,38343,0
2076,38372,0
2056,38349,0
2018,38341,0
2012,38369,0
2008,38335,0
2012,38350,0
2036,38372,0
2058,38348,0
2093,38345,0
2132,38360,0
2160,38370,0
2177,38350,0
2212,38351,0
2238,38375,0
2236,38340,0
2232,38345,0
2212,38377,0
2192,38351,0
2152,38343,0
2112,38359,0
2092,38358,0
2056,38344,0
2046,38337,0
2044,38349,0
2044,38370,0
2064,38348,0
2100,38345,0
2132,38369,0
2180,38354,0
2216,38329,0
2260,38341,0
2304,38360,0
2324,38337,0
2344,38324,0
2344,38366,0
2360,38340,0
2324,38323,0
2312,38363,0
2266,38349,0
2240,38339,0
2208,38360,0
2169,38340,0
2140,38340,0
2121,38363,0
2114,38342,0
2124,38343,0
2124,38357,0
2144,38341,0
2164,38346,0
2194,38368,0
2216,38339,0
2226,38346,0
2248,38350,0
2249,38340,0
2248,38347,0
2244,38360,0
2228,38337,0
2192,38340,0
2160,38357,0
2122,38342,0
2096,38346,0
2075,38361,0
2040,38345,0
2040,38348,0
2024,38361,0
2032,38343,0
2044,38348,0
2068,38365,0
2088,38342,0
2122,38344,0
2140,38366,0
2176,38345,0
2194,38343,0
2202,38350,0
2192,38364,0
2185,38339,0
2168,38331,0
2149,38368,0
2116,38342,0
2088,38323,0
2048,38364,0
2052,38334,0
2008,38343,0
2000,38353,0
2004,38360,0
2016,38332,0
2036,38346,0
2047,38352,0
2088,38335,0
2138,38366,0
2132,38341,0
2156,38341,0
2176,38364,0
2187,38336,0
2180,38346,0
2180,38371,0
2164,38341,0
2144,38356,0
2104,38372,0
2080,38360,0
2040,38361,0
2020,38375,0
2000,38369,0
1994,38356,0
2005,38355,0
2013,38391,0
2036,38357,0
2066,38343,0
2114,38376,0
2130,38361,0
2156,38358,0
2192,38382,0
2214,38360,0
2216,38348,0
2212,38368,0
2200,38358,0
2184,38379,0
2152,38359,0
2120,38366,0
2086,38372,0
2036,38362,0
2008,38398,0
1972,38370,0
1970,38354,0
1956,38399,0
1961,38369,0
1976,38361,0
2008,38403,0
2040,38364,0
2068,38366,0
2106,38394,0
2144,38382,0
2180,38374,0
2180,38397,0
2188,38372,0
2194,38379,0
2176,38393,0
2161,38376,0
2152,38373,0
2144,38390,0
2184,38396,0
2184,38380,0
2216,38359,0
2276,38396,0
2354,38376,0
2432,38349,0
2512,38358,0
2604,38383,0
2688,38367,0
2760,38393,0
2824,38380,0
2852,38383,0
2872,38403,0
2874,38374,0
2840,38371,0
2770,38410,0
2682,38380,0
2596,38361,0
2480,38393,0
2384,38360,0
2300,38360,0
2228,38391,0
2196,38372,0
2181,38362,0
2196,38403,0
2216,38367,0
2256,38357,0
2330,38396,0
2394,38377,0
2452,38359,0
2520,38393,0
2554,38373,0
2592,38361,0
2616,38394,0
2612,38371,0
2608,38371,0
2566,38388,0
2448,38410,0
2388,38374,0
2316,38356,0
2252,38386,0
2208,38361,0
2168,38355,0
2136,38389,0
2124,38371,0
2122,38348,0
2132,38389,0
2144,38361,0
2152,38347,0
2164,38387,0
2192,38370,0
2176,38365,0
2160,38390,0
2148,38363,0
2124,38373,0
2092,38391,0
2047,38376,0
2008,38379,0
1968,38404,0
1926,38378,0
1897,38380,0
1877,38400,0
1870,38374,0
1858,38377,0
1892,38402,0
1914,38396,0
1938,38374,0
1974,38374,0
1996,38401,0
2032,38410,0
2064,38403,0
2080,38371,0
2088,38398,0
2092,38387,0
2076,38413,0
2060,38391,0
2028,38387,0
2000,38379,0
1960,38421,0
1932,38394,0
1904,38374,0
1896,38411,0
1888,38381,0
1896,38374,0
1916,38408,0
1944,38384,0
1964,38377,0
2008,38414,0
2044,38397,0
2080,38382,0
2106,38416,0
2116,38399,0
2130,38382,0
2132,38420,0
2120,38395,0
2102,38398,0
2074,38419,0
2048,38390,0
2000,38391,0
1971,38406,0
1945,38397,0
1930,38401,0
1928,38404,0
1936,38394,0
1952,38407,0
1984,38423,0
2008,38398,0
2047,38389,0
2096,38415,0
2108,38396,0
2128,38396,0
2152,38421,0
2162,38393,0
2152,38392,0
2144,38415,0
2116,38389,0
2085,38393,0
2047,38405,0
2016,38403,0
1992,38388,0
1968,38421,0
1940,38387,0
1948,38400,0
1966,38421,0
1974,38388,0
2010,38391,0
2034,38414,0
2086,38397,0
2109,38396,0
2141,38418,0
2160,38402,0
2186,38395,0
2197,38408,0
2186,38404,0
2172,38388,0
2138,38391,0
2108,38414,0
2084,38421,0
2042,38411,0
2016,38411,0
1990,38397,0
1988,38386,0
1976,38426,0
1998,38397,0
2004,38377,0
2029,38413,0
2068,38393,0
2104,38391,0
2136,38422,0
2175,38397,0
2200,38394,0
2210,38419,0
2224,38399,0
2212,38399,0
2209,38421,0
2184,38403,0
2156,38409,0
2120,38438,0
2088,38389,0
2080,38412,0
2042,38415,0
2036,38400,0
2028,38415,0
2040,38422,0
2054,38410,0
2080,38420,0
2106,38420,0
2144,38412,0
2176,38426,0
2210,38406,0
2216,38444,0
2240,38413,0
2252,38398,0
2248,38427,0
2229,38398,0
2204,38395,0
2180,38425,0
2144,38411,0
2112,38399,0
2088,38439,0
2064,38402,0
2044,38401,0
2044,38429,0
2056,38415,0
2074,38410,0
2092,38427,0
2128,38432,0
2164,38409,0
2192,38385,0
2225,38432,0
2248,38400,0
2265,38410,0
2272,38424,0
2272,38404,0
2272,38405,0
2234,38432,0
2200,38405,0
2168,38416,0
2136,38410,0
2116,38425,0
2080,38432,0
2068,38408,0
2068,38424,0
2074,38404,0
2096,38407,0
2114,38426,0
2154,38405,0
2184,38409,0
2223,38429,0
2244,38424,0
2276,38415,0
2284,38404,0
2296,38436,0
2284,38410,0
2288,38393,0
2248,38439,0
2220,38404,0
2192,38385,0
2162,38440,0
2138,38414,0
2112,38414,0
2096,38431,0
2089,38404,0
2026,38412,0
2112,38432,0
2140,38402,0
2160,38408,0
2192,38423,0
2218,38419,0
2236,38419,0
2264,38439,0
2268,38407,0
2276,38420,0
2272,38407,0
2238,38404,0
2216,38430,0
2180,38414,0
2156,38398,0
2108,38411,0
2080,38423,0
2060,38405,0
2044,38402,0
2040,38425,0
2042,38397,0
2064,38376,0
2081,38417,0
2114,38400,0
2144,38385,0
2168,38416,0
2192,38393,0
2216,38383,0
2240,38425,0
2234,38382,0
2224,38393,0
2192,38421,0
2182,38378,0
2133,38385,0
2100,38401,0
2072,38386,0
2027,38382,0
2016,38396,0
2004,38375,0
2000,38373,0
2020,38390,0
2020,38384,0
2056,38365,0
2080,38353,0
2112,38392,0
2146,38368,0
2176,38364,0
2184,38384,0
2210,38354,0
2208,38359,0
2200,38378,0
2192,38353,0
2168,38365,0
2124,38376,0
2096,38351,0
2052,38357,0
2032,38368,0
2004,38362,0
2004,38352,0
2008,38359,0
2012,38372,0
2037,38349,0
2064,38331,0
2100,38374,0
2160,38349,0
2173,38334,0
2192,38364,0
2224,38341,0
2240,38342,0
2232,38363,0
2208,38375,0
2180,38361,0
2154,38341,0
2120,38351,0
2074,38339,0
2044,38335,0
2016,38362,0
1996,38338,0
1980,38333,0
1992,38370,0
1992,38339,0
2019,38331,0
2046,38363,0
2096,38341,0
2120,38331,0
2156,38349,0
2180,38327,0
2200,38340,0
2220,38360,0
2216,38332,0
2200,38337,0
2192,38348,0
2160,38350,0
2116,38330,0
2085,38313,0
2046,38363,0
2058,38336,0
2008,38318,0
1996,38360,0
2000,38337,0
2024,38312,0
2066,38362,0
2096,38342,0
2132,38326,0
2160,38346,0
2186,38356,0
2204,38327,0
2216,38332,0
2212,38356,0
2196,38339,0
2184,38343,0
2152,38359,0
2120,38342,0
2092,38344,0
2064,38350,0
2026,38352,0
2020,38336,0
2000,38340,0
2016,38368,0
2020,38352,0
2046,38325,0
2074,38367,0
2112,38345,0
2138,38322,0
2154,38372,0
2185,38344,0
2202,38333,0
2161,38370,0
2212,38335,0
2196,38340,0
2186,38367,0
2150,38350,0
2120,38338,0
2084,38362,0
2044,38354,0
2012,38357,0
2000,38361,0
2000,38357,0
1994,38355,0
2024,38384,0
2036,38355,0
2072,38357,0
2100,38379,0
2136,38340,0
2174,38362,0
2196,38388,0
2216,38355,0
2228,38361,0
2224,38389,0
2200,38368,0
2184,38364,0
2152,38377,0
2124,38387,0
2088,38355,0
2052,38361,0
2024,38393,0
2016,38365,0
2013,38335,0
2012,38386,0
2044,38347,0
2057,38340,0
2082,38383,0
2112,38363,0
2146,38347,0
2182,38377,0
2208,38356,0
2228,38364,0
2244,38361,0
2228,38365,0
2218,38339,0
2188,38363,0
2164,38357,0
2138,38377,0
2100,38353,0
2073,38357,0
2058,38378,0
2035,38361,0
2024,38361,0
2032,38356,0
2056,38382,0
2080,38357,0
2104,38338,0
2154,38376,0
2164,38353,0
2208,38340,0
2228,38372,0
2248,38352,0
2268,38349,0
2248,38370,0
2236,38342,0
2210,38341,0
2208,38373,0
2148,38351,0
2118,38351,0
2080,38374,0
2052,38343,0
2040,38348,0
1992,38358,0
2042,38350,0
2047,38371,0
2072,38356,0
2104,38368,0
2134,38344,0
2164,38371,0
2202,38343,0
2224,38346,0
2238,38375,0
2252,38356,0
2260,38353,0
2240,38363,0
2224,38369,0
2196,38364,0
2160,38355,0
2132,38378,0
2096,38353,0
2072,38343,0
2056,38375,0
2044,38352,0
2057,38341,0
2072,38380,0
2088,38363,0
2116,38330,0
2156,38374,0
2210,38361,0
2206,38341,0
2232,38376,0
2252,38356,0
2260,38342,0
2248,38383,0
2220,38380,0
2208,38347,0
2168,38362,0
2142,38386,0
2108,38374,0
2077,38376,0
2046,38352,0
2036,38365,0
2032,38375,0
2047,38352,0
2064,38340,0
2086,38384,0
2120,38353,0
2160,38338,0
2192,38378,0
2216,38356,0
2232,38357,0
2252,38381,0
2252,38352,0
2256,38365,0
2236,38385,0
2218,38362,0
2200,38365,0
2155,38364,0
2112,38376,0
2076,38356,0
2072,38347,0
2040,38383,0
2032,38354,0
2040,38339,0
2052,38379,0
2080,38352,0
2104,38383,0
2140,38354,0
2174,38370,0
2216,38369,0
2236,38360,0
2244,38353,0
2256,38370,0
2260,38381,0
2234,38352,0
2212,38349,0
2184,38380,0
2155,38367,0
2116,38352,0
2074,38351,0
2046,38365,0
2042,38353,0
2034,38342,0
2048,38375,0
2069,38345,0
2076,38334,0
2113,38370,0
2153,38357,0
2192,38345,0
2224,38361,0
2248,38342,0
2256,38353,0
2294,38376,0
2260,38346,0
2240,38351,0
2224,38374,0
2189,38347,0
2152,38343,0
2120,38349,0
2088,38351,0
2064,38367,0
2052,38354,0
2040,38359,0
2053,38335,0
2064,38332,0
2080,38364,0
2112,38341,0
2148,38323,0
2176,38366,0
2210,38349,0
2226,38325,0
2256,38366,0
2240,38341,0
2240,38336,0
2216,38369,0
2208,38336,0
2161,38333,0
2128,38365,0
2088,38332,0
2056,38329,0
2033,38367,0
2024,38343,0
2016,38341,0
2037,38365,0
2070,38352,0
2080,38350,0
2112,38361,0
2144,38340,0
2184,38349,0
2220,38366,0
2228,38347,0
2228,38333,0
2248,38368,0
2244,38330,0
2224,38340,0
2192,38376,0
2160,38347,0
2122,38333,0
2088,38373,0
2060,38346,0
2036,38351,0
2020,38363,0
2020,38344,0
2028,38356,0
2044,38375,0
2080,38351,0
2104,38360,0
2144,38370,0
2172,38363,0
2196,38358,0
2224,38358,0
2244,38369,0
2256,38351,0
2240,38357,0
2220,38381,0
2184,38347,0
2160,38349,0
2132,38382,0
2093,38345,0
2072,38352,0
2048,38373,0
2029,38356,0
2032,38375,0
2052,38359,0
2068,38390,0
2092,38381,0
2122,38362,0
2160,38361,0
2194,38375,0
2224,38384,0
2240,38361,0
2264,38345,0
2260,38393,0
2255,38359,0
2232,38334,0
2216,38394,0
2168,38367,0
2144,38361,0
2096,38389,0
2074,38365,0
2056,38353,0
2046,38388,0
2044,38359,0
2057,38365,0
2084,38389,0
2105,38365,0
2144,38361,0
2168,38385,0
2209,38383,0
2232,38363,0
2250,38371,0
2272,38386,0
2274,38357,0
2244,38362,0
2206,38365,0
2178,38356,0
2138,38380,0
2112,38381,0
2076,38383,0
2060,38357,0
2044,38344,0
2046,38377,0
2068,38361,0
2084,38361,0
2120,38392,0
2140,38361,0
2192,38364,0
2224,38379,0
2264,38369,0
2276,38368,0
2296,38369,0
2303,38392,0
2300,38361,0
2300,38341,0
2280,38392,0
2242,38370,0
2214,38356,0
2184,38391,0
2164,38361,0
2169,38359,0
2148,38394,0
2152,38366,0
2176,38358,0
2186,38381,0
2220,38367,0
2240,38362,0
2276,38401,0
2303,38368,0
2336,38368,0
2344,38374,0
2356,38373,0
2356,38352,0
2328,38397,0
2303,38374,0
2272,38351,0
2236,38391,0
2184,38374,0
2144,38349,0
2113,38401,0
2090,38376,0
2080,38366,0
2072,38399,0
2084,38367,0
2104,38366,0
2122,38396,0
2160,38379,0
2196,38362,0
2226,38401,0
2252,38382,0
2268,38366,0
2276,38402,0
2289,38376,0
2250,38384,0
2226,38386,0
2192,38403,0
2160,38379,0
2116,38363,0
2074,38376,0
2044,38402,0
2020,38403,0
2012,38379,0
2014,38383,0
1988,38399,0
2040,38402,0
2068,38379,0
2112,38378,0
2132,38404,0
2172,38382,0
2203,38361,0
2212,38400,0
2245,38376,0
2228,38367,0
2216,38394,0
2192,38375,0
2168,38376,0
2128,38397,0
2104,38377,0
2068,38378,0
2052,38404,0
2024,38378,0
2016,38385,0
2024,38404,0
2040,38377,0
2080,38379,0
2088,38390,0
2122,38383,0
2160,38378,0
2181,38405,0
2220,38386,0
2224,38383,0
2224,38386,0
2224,38369,0
2212,38397,0
2188,38374,0
2154,38385,0
2120,38357,0
2082,38409,0
2060,38375,0
2032,38373,0
2016,38396,0
2015,38375,0
2016,38377,0
2032,38401,0
2074,38368,0
2082,38379,0
2114,38404,0
2148,38368,0
2176,38383,0
2200,38398,0
2212,38378,0
2220,38382,0
2210,38400,0
2182,38374,0
2156,38382,0
2108,38398,0
2088,38374,0
2026,38382,0
2000,38402,0
1972,38396,0
1964,38379,0
1960,38389,0
1976,38376,0
1992,38391,0
2032,38384,0
2070,38396,0
2128,38389,0
2178,38405,0
2248,38389,0
2328,38383,0
2392,38407,0
2464,38387,0
2532,38392,0
2612,38409,0
2656,38383,0
2720,38389,0
2748,38405,0
2792,38395,0
2815,38391,0
2848,38389,0
2856,38414,0
2864,38390,0
2876,38385,0
2896,38411,0
2880,38392,0
2848,38366,0
2816,38404,0
2750,38395,0
2736,38377,0
2668,38415,0
2616,38390,0
2576,38386,0
2536,38412,0
2480,38393,0
2428,38409,0
2376,38386,0
2344,38410,0
2312,38391,0
2292,38400,0
2280,38393,0
2274,38393,0
2280,38422,0
2302,38396,0
2312,38401,0
2336,38421,0
2372,38392,0
2384,38393,0
2436,38422,0
2416,38401,0
2424,38406,0
2418,38401,0
2420,38439,0
2378,38405,0
2328,38384,0
2272,38436,0
2224,38404,0
2168,38392,0
2092,38420,0
2032,38404,0
1988,38395,0
1942,38419,0
1908,38410,0
1888,38395,0
1880,38417,0
1896,38398,0
1904,38402,0
1928,38410,0
1953,38415,0
1976,38409,0
1993,38415,0
2020,38412,0
2018,38400,0
2018,38400,0
2004,38425,0
1982,38406,0
1958,38403,0
1920,38429,0
1887,38395,0
1868,38404,0
1848,38424,0
1840,38408,0
1832,38414,0
1848,38428,0
1872,38416,0
1896,38408,0
1924,38406,0
1956,38441,0
1984,38405,0
2018,38397,0
2060,38447,0
2064,38411,0
2066,38393,0
1982,38445,0
2044,38414,0
2021,38392,0
1988,38440,0
1966,38415,0
1932,38399,0
1908,38420,0
1872,38412,0
1860,38424,0
1870,38430,0
1874,38422,0
1896,38435,0
1924,38416,0
1952,38398,0
1988,38437,0
2024,38419,0
2056,38404,0
2085,38432,0
2128,38414,0
2112,38411,0
2106,38439,0
2092,38411,0
2068,38410,0
2032,38436,0
2004,38418,0
1994,38420,0
1944,38436,0
1936,38423,0
1914,38422,0
1920,38439,0
1932,38424,0
1944,38429,0
1984,38439,0
2008,38446,0
2045,38421,0
2088,38409,0
2112,38452,0
2129,38423,0
2148,38424,0
2140,38432,0
2136,38425,0
2120,38430,0
2108,38422,0
2072,38437,0
2036,38416,0
2006,38430,0
1982,38448,0
1960,38427,0
1948,38434,0
1954,38457,0
1970,38428,0
2000,38430,0
2020,38447,0
2052,38444,0
2088,38438,0
2128,38447,0
2152,38433,0
2176,38432,0
2184,38452,0
2208,38448,0
2186,38428,0
2180,38432,0
2148,38471,0
2116,38432,0
2082,38419,0
2052,38457,0
2032,38416,0
2008,38419,0
2001,38454,0
2008,38443,0
2036,38428,0
2060,38461,0
2076,38429,0
2120,38458,0
2146,38449,0
2168,38436,0
2196,38427,0
2210,38457,0
2208,38430,0
2208,38418,0
2191,38448,0
2154,38435,0
2144,38429,0
2098,38454,0
2072,38429,0
2044,38437,0
2040,38448,0
2020,38433,0
2016,38431,0
2034,38462,0
2066,38440,0
2096,38434,0
2124,38439,0
2162,38456,0
2184,38438,0
2240,38419,0
2236,38457,0
2260,38432,0
2272,38422,0
2260,38456,0
2241,38427,0
2209,38443,0
2186,38466,0
2144,38444,0
2112,38442,0
2088,38456,0
2072,38466,0
2074,38433,0
2060,38431,0
2068,38462,0
2096,38436,0
2168,38429,0
2160,38466,0
2196,38439,0
2240,38435,0
2248,38457,0
2276,38432,0
2292,38439,0
2296,38466,0
2280,38434,0
2260,38448,0
2248,38453,0
2220,38453,0
2180,38436,0
2144,38421,0
2112,38463,0
2100,38428,0
2112,38416,0
2089,38452,0
2090,38426,0
2116,38413,0
2160,38443,0
2176,38419,0
2208,38463,0
2228,38428,0
2256,38426,0
2276,38430,0
2290,38409,0
2292,38450,0
2280,38420,0
2266,38415,0
2244,38447,0
2208,38419,0
2170,38422,0
2145,38420,0
2110,38445,0
2096,38417,0
2080,38400,0
2088,38443,0
2108,38408,0
2116,38391,0
2136,38435,0
2176,38402,0
2200,38405,0
2240,38437,0
2256,38401,0
2278,38410,0
2289,38433,0
2278,38405,0
2258,38421,0
2244,38417,0
2212,38415,0
2176,38402,0
2140,38418,0
2104,38431,0
2072,38399,0
2047,38406,0
2040,38406,0
2040,38401,0
2052,38421,0
2072,38394,0
2104,38417,0
2128,38392,0
2168,38378,0
2188,38416,0
2210,38391,0
2238,38364,0
2236,38410,0
2244,38381,0
2224,38376,0
2208,38406,0
2172,38379,0
2145,38386,0
2112,38396,0
2074,38380,0
2060,38383,0
2048,38401,0
2032,38379,0
2034,38382,0
2050,38393,0
2068,38385,0
2120,38369,0
2134,38376,0
2166,38397,0
2192,38367,0
2218,38347,0
2240,38388,0
2236,38368,0
2302,38377,0
2216,38387,0
2198,38366,0
2164,38381,0
2133,38384,0
2090,38384,0
2058,38363,0
2032,38348,0
2018,38392,0
2010,38366,0
2011,38366,0
2028,38385,0
2056,38354,0
2088,38360,0
2112,38387,0
2148,38357,0
2188,38368,0
2212,38374,0
2228,38375,0
2232,38353,0
2236,38349,0
2224,38381,0
2194,38349,0
2176,38332,0
2132,38376,0
2042,38352,0
2072,38345,0
2052,38376,0
2040,38337,0
2038,38351,0
2048,38369,0
2044,38358,0
2076,38353,0
2104,38352,0
2144,38358,0
2176,38355,0
2200,38376,0
2224,38339,0
2234,38342,0
2246,38366,0
2236,38343,0
2226,38346,0
2208,38363,0
2176,38354,0
2145,38347,0
2108,38372,0
2088,38346,0
2047,38358,0
2038,38368,0
2028,38352,0
2036,38350,0
2056,38343,0
2084,38379,0
2105,38350,0
2144,38340,0
2177,38378,0
2202,38347,0
2256,38336,0
2243,38375,0
2250,38347,0
2252,38349,0
2232,38373,0
2213,38357,0
2168,38359,0
2144,38356,0
2100,38377,0
2072,38352,0
2047,38363,0
2028,38352,0
2028,38352,0
2028,38360,0
2044,38379,0
2068,38345,0
2092,38334,0
2141,38369,0
2164,38352,0
2220,38337,0
2220,38383,0
2240,38358,0
2248,38346,0
2248,38370,0
2224,38348,0
2204,38353,0
2168,38376,0
2138,38342,0
2114,38354,0
2080,38369,0
2056,38352,0
2036,38347,0
2052,38375,0
2042,38367,0
2064,38356,0
2088,38330,0
2128,38375,0
2160,38340,0
2188,38357,0
2208,38345,0
2228,38345,0
2242,38363,0
2250,38345,0
2238,38349,0
2224,38342,0
2188,38380,0
2168,38348,0
2132,38331,0
2096,38367,0
2080,38349,0
2044,38352,0
2034,38369,0
2032,38354,0
2052,38343,0
2064,38378,0
2088,38356,0
2116,38355,0
2148,38350,0
2176,38367,0
2224,38347,0
2233,38336,0
2244,38379,0
2252,38346,0
2248,38340,0
2230,38363,0
2197,38341,0
2168,38352,0
2140,38374,0
2096,38344,0
2076,38345,0
2047,38368,0
2034,38348,0
2032,38350,0
2036,38344,0
2068,38350,0
2076,38348,0
2118,38359,0
2146,38385,0
2172,38347,0
2210,38335,0
2236,38368,0
2260,38342,0
2252,38342,0
2248,38367,0
2224,38354,0
2212,38342,0
2172,38381,0
2136,38349,0
2104,38350,0
2068,38354,0
2044,38381,0
2040,38355,0
2032,38332,0
2036,38375,0
2064,38352,0
2080,38330,0
2125,38377,0
2147,38354,0
2168,38334,0
2200,38372,0
2232,38352,0
2244,38376,0
2224,38350,0
2216,38353,0
2186,38389,0
2144,38370,0
2108,38377,0
2080,38367,0
2047,38361,0
2040,38371,0
2016,38359,0
2024,38357,0
2031,38386,0
2044,38355,0
2080,38374,0
2112,38384,0
2148,38366,0
2176,38375,0
2208,38379,0
2220,38379,0
2236,38377,0
2240,38372,0
2240,38381,0
2224,38354,0
2224,38346,0
2165,38394,0
2130,38360,0
2032,38350,0
2066,38379,0
2044,38363,0
2040,38360,0
2041,38373,0
2048,38363,0
2066,38376,0
2096,38385,0
2120,38377,0
2144,38366,0
2180,38369,0
2196,38357,0
2216,38360,0
2226,38384,0
2244,38368,0
2218,38360,0
2196,38390,0
2184,38359,0
2136,38355,0
2144,38389,0
2096,38359,0
2066,38367,0
2044,38386,0
2032,38353,0
2028,38362,0
2044,38384,0
2064,38356,0
2096,38356,0
2132,38374,0
2154,38385,0
2193,38354,0
2216,38341,0
2268,38380,0
2252,38365,0
2248,38343,0
2240,38373,0
2212,38357,0
2185,38347,0
2146,38351,0
2104,38374,0
2090,38338,0
2047,38363,0
2032,38346,0
2020,38339,0
2020,38379,0
2036,38347,0
2052,38324,0
2086,38378,0
2120,38347,0
2154,38330,0
2180,38366,0
2208,38342,0
2232,38338,0
2248,38367,0
2240,38344,0
2234,38339,0
2220,38355,0
2188,38340,0
2160,38346,0
2120,38371,0
2082,38350,0
2068,38354,0
2048,38370,0
2026,38368,0
2044,38344,0
2029,38341,0
2056,38377,0
2096,38350,0
2116,38335,0
2140,38363,0
2168,38349,0
2194,38355,0
2208,38346,0
2222,38352,0
2220,38344,0
2204,38348,0
2186,38354,0
2164,38348,0
2130,38374,0
2096,38342,0
2080,38323,0
2053,38361,0
2034,38347,0
2024,38330,0
2033,38366,0
2044,38339,0
2064,38324,0
2090,38362,0
2112,38341,0
2152,38340,0
2192,38367,0
2217,38343,0
2240,38352,0
2248,38371,0
2252,38348,0
2244,38344,0
2242,38372,0
2189,38350,0
2157,38344,0
2128,38365,0
2096,38369,0
2069,38347,0
2044,38355,0
2040,38352,0
2044,38355,0
2047,38344,0
2080,38378,0
2102,38352,0
2140,38357,0
2170,38364,0
2208,38372,0
2232,38358,0
2252,38353,0
2266,38381,0
2256,38350,0
2252,38342,0
2228,38362,0
2192,38351,0
2154,38329,0
2128,38378,0
2096,38354,0
2060,38330,0
2042,38383,0
2040,38354,0
2048,38337,0
2056,38377,0
2084,38348,0
2106,38358,0
2164,38380,0
2170,38351,0
2202,38354,0
2240,38368,0
2256,38344,0
2272,38369,0
2256,38357,0
2246,38378,0
2216,38349,0
2196,38382,0
2164,38372,0
2128,38354,0
2096,38360,0
2070,38377,0
2056,38353,0
2047,38334,0
2047,38384,0
2066,38356,0
2084,38346,0
2116,38378,0
2144,38366,0
2180,38354,0
2212,38383,0
2232,38351,0
2245,38356,0
2258,38380,0
2260,38357,0
2264,38362,0
2233,38372,0
2220,38383,0
2188,38366,0
2162,38353,0
2150,38387,0
2132,38363,0
2122,38348,0
2124,38387,0
2134,38357,0
2155,38351,0
2176,38368,0
2212,38366,0
2252,38383,0
2272,38362,0
2308,38379,0
2344,38363,0
2360,38382,0
2360,38358,0
2360,38366,0
2336,38384,0
2312,38376,0
2285,38366,0
2232,38362,0
2200,38377,0
2160,38353,0
2128,38349,0
2096,38382,0
2084,38358,0
2084,38348,0
2084,38378,0
2100,38356,0
2116,38359,0
2154,38381,0
2184,38361,0
2208,38356,0
2226,38373,0
2268,38353,0
2253,38365,0
2244,38380,0
2232,38361,0
2217,38358,0
2178,38357,0
2132,38355,0
2092,38366,0
2064,38363,0
2033,38369,0
2008,38358,0
2000,38351,0
1996,38387,0
2002,38358,0
2020,38350,0
2044,38385,0
2072,38363,0
2104,38356,0
2136,38387,0
2168,38368,0
2172,38366,0
2184,38375,0
2180,38379,0
2176,38370,0
2148,38356,0
2120,38394,0
2084,38371,0
2048,38350,0
2016,38395,0
1996,38369,0
1986,38357,0
1982,38391,0
1989,38358,0
1993,38358,0
2021,38396,0
2057,38364,0
2084,38369,0
2124,38392,0
2146,38395,0
2164,38388,0
2184,38357,0
2190,38369,0
2184,38365,0
2160,38392,0
2136,38365,0
2100,38350,0
2068,38398,0
2043,38373,0
2012,38370,0
1987,38392,0
1972,38359,0
1964,38363,0
1976,38395,0
1992,38359,0
2016,38374,0
2047,38373,0
2082,38363,0
2116,38359,0
2112,38370,0
2176,38388,0
2192,38358,0
2192,38356,0
2184,38389,0
2152,38358,0
2124,38342,0
2100,38386,0
2045,38362,0
1992,38344,0
1952,38381,0
1900,38351,0
1889,38376,0
1904,38353,0
1930,38377,0
1961,38358,0
2004,38368,0
2032,38360,0
2080,38391,0
2108,38363,0
2142,38345,0
2184,38391,0
2207,38352,0
2226,38342,0
2266,38385,0
2284,38354,0
2328,38359,0
2356,38379,0
2408,38359,0
2464,38363,0
2520,38381,0
2600,38365,0
2668,38350,0
2744,38352,0
2810,38380,0
2880,38369,0
2914,38348,0
2948,38371,0
2964,38359,0
2949,38344,0
2928,38385,0
2882,38344,0
2800,38337,0
2712,38351,0
2620,38355,0
2532,38357,0
2440,38357,0
2360,38360,0
2292,38356,0
2236,38357,0
2196,38375,0
2180,38361,0
2184,38343,0
2204,38388,0
2247,38355,0
2272,38345,0
2340,38387,0
2360,38357,0
2408,38362,0
2416,38379,0
2448,38353,0
2442,38357,0
2434,38369,0
2416,38394,0
2392,38361,0
2337,38337,0
2290,38383,0
2224,38365,0
2162,38350,0
2136,38381,0
2053,38359,0
2018,38358,0
2000,38379,0
1964,38360,0
1964,38363,0
1952,38365,0
1968,38379,0
1976,38382,0
1980,38359,0
2000,38363,0
2004,38347,0
2008,38375,0
1996,38367,0
1985,38367,0
1964,38389,0
1928,38364,0
1904,38361,0
1865,38390,0
1832,38361,0
1796,38362,0
1788,38384,0
1790,38370,0
1790,38369,0
1810,38373,0
1832,38393,0
1864,38362,0
1896,38356,0
1928,38386,0
1956,38368,0
1984,38362,0
2009,38392,0
2012,38370,0
2020,38359,0
2010,38393,0
1986,38371,0
1962,38371,0
1924,38385,0
1884,38384,0
1850,38379,0
1824,38368,0
1804,38390,0
1804,38378,0
1808,38385,0
1824,38396,0
1852,38368,0
1888,38364,0
1918,38392,0
1960,38378,0
1995,38363,0
2016,38395,0
2054,38367,0
2046,38370,0
2060,38406,0
2044,38372,0
2024,38389,0
1998,38385,0
1978,38395,0
1940,38378,0
1912,38358,0
1893,38395,0
1865,38373,0
1872,38359,0
1872,38404,0
1892,38381,0
1914,38382,0
1941,38401,0
1976,38379,0
2012,38389,0
2060,38399,0
2076,38393,0
2100,38383,0
2100,38399,0
2100,38394,0
2096,38389,0
2082,38380,0
2056,38404,0
2022,38378,0
1994,38372,0
1968,38404,0
1946,38389,0
1929,38363,0
1920,38417,0
1928,38384,0
1944,38387,0
1968,38406,0
2000,38384,0
2032,38392,0
2064,38407,0
2096,38388,0
2112,38398,0
2144,38416,0
2157,38406,0
2152,38393,0
2153,38404,0
2124,38421,0
2100,38394,0
2076,38374,0
2038,38418,0
2000,38397,0
1985,38377,0
1970,38415,0
1952,38394,0
1970,38409,0
1980,38401,0
2004,38400,0
2028,38420,0
2058,38412,0
2096,38422,0
2124,38408,0
2152,38390,0
2168,38418,0
2176,38398,0
2180,38371,0
2170,38416,0
2152,38405,0
2124,38385,0
2088,38425,0
2060,38384,0
2024,38403,0
2000,38418,0
1980,38393,0
1983,38404,0
1994,38421,0
2008,38406,0
2040,38399,0
2064,38413,0
2104,38427,0
2137,38402,0
2176,38377,0
2194,38430,0
2212,38402,0
2230,38385,0
2225,38418,0
2212,38424,0
2184,38421,0
2152,38396,0
2122,38418,0
2088,38406,0
2060,38398,0
2032,38425,0
2024,38402,0
2012,38383,0
2010,38426,0
2036,38393,0
2053,38413,0
2088,38418,0
2114,38399,0
2148,38391,0
2192,38419,0
2204,38406,0
2244,38398,0
2240,38409,0
2240,38427,0
2228,38405,0
2208,38397,0
2186,38425,0
2149,38410,0
2108,38393,0
2080,38422,0
2054,38404,0
2032,38394,0
2026,38424,0
2036,38399,0
2054,38401,0
2080,38431,0
2108,38409,0
2144,38413,0
2180,38431,0
2208,38414,0
2236,38415,0
2254,38420,0
2265,38392,0
2262,38412,0
2256,38429,0
2224,38410,0
2192,38405,0
2164,38408,0
2120,38427,0
2092,38404,0
2064,38387,0
2040,38432,0
2036,38408,0
2056,38376,0
2056,38421,0
2092,38399,0
2116,38381,0
2152,38410,0
2195,38393,0
2220,38391,0
2248,38413,0
2252,38387,0
2281,38393,0
2250,38414,0
2229,38393,0
2208,38402,0
2169,38404,0
2148,38401,0
2096,38392,0
2064,38395,0
2032,38396,0
2016,38379,0
2004,38367,0
2008,38403,0
2020,38380,0
2046,38370,0
2072,38397,0
2100,38372,0
2130,38378,0
2168,38393,0
2180,38381,0
2208,38368,0
2192,38373,0
2196,38394,0
2178,38364,0
2144,38350,0
2112,38382,0
2088,38363,0
2040,38338,0
2004,38378,0
1984,38357,0
1972,38335,0
1968,38370,0
1977,38347,0
1986,38351,0
2022,38375,0
2052,38349,0
2100,38349,0
2124,38365,0
2160,38346,0
2186,38338,0
2184,38338,0
2184,38344,0
2164,38353,0
2138,38362,0
2108,38336,0
2074,38319,0
2036,38352,0
2008,38331,0
2000,38335,0
1986,38353,0
1984,38333,0
1994,38338,0
2008,38339,0
2044,38347,0
2064,38319,0
2118,38301,0
2132,38345,0
2164,38320,0
2192,38316,0
2212,38346,0
2208,38323,0
2197,38317,0
2184,38336,0
2146,38310,0
2144,38320,0
2092,38333,0
2053,38325,0
2032,38321,0
2000,38336,0
1992,38338,0
2000,38346,0
2000,38324,0
2032,38332,0
2052,38320,0
2084,38345,0
2120,38331,0
2152,38313,0
2176,38321,0
2202,38337,0
2210,38314,0
2220,38322,0
2211,38333,0
2192,38338,0
2184,38320,0
2128,38292,0
2088,38336,0
2047,38318,0
2032,38309,0
2008,38342,0
1992,38315,0
1988,38318,0
2002,38337,0
2024,38309,0
2050,38314,0
2076,38330,0
2112,38318,0
2170,38319,0
2172,38337,0
2196,38339,0
2218,38313,0
2212,38301,0
2204,38337,0
2184,38313,0
2156,38307,0
2114,38336,0
2092,38331,0
2047,38309,0
2020,38337,0
1996,38322,0
1980,38318,0
1978,38337,0
1988,38338,0
2004,38322,0
2029,38304,0
2060,38344,0
2096,38314,0
2132,38308,0
2162,38345,0
2172,38318,0
2192,38307,0
2188,38329,0
2184,38305,0
2164,38309,0
2144,38338,0
2105,38303,0
2072,38315,0
2032,38335,0
2008,38312,0
1973,38324,0
1976,38326,0
1976,38325,0
1992,38307,0
2010,38312,0
2034,38332,0
2064,38302,0
2104,38327,0
2140,38303,0
2156,38313,0
2176,38309,0
2194,38323,0
2188,38308,0
2175,38325,0
2160,38329,0
2128,38308,0
2096,38288,0
2064,38325,0
2020,38299,0
1996,38291,0
1972,38330,0
1960,38304,0
1968,38295,0
1976,38321,0
2000,38300,0
2032,38302,0
2058,38324,0
2108,38306,0
2128,38296,0
2158,38310,0
2181,38299,0
2188,38284,0
2208,38299,0
2174,38322,0
2144,38289,0
2128,38269,0
2086,38317,0
2048,38287,0
2000,38296,0
1978,38279,0
1960,38287,0
1946,38292,0
1956,38291,0
1968,38316,0
1984,38280,0
2036,38290,0
2047,38317,0
2072,38287,0
2108,38282,0
2147,38303,0
2172,38282,0
2184,38285,0
2174,38307,0
2164,38269,0
2144,38282,0
2112,38292,0
2074,38293,0
2042,38283,0
2008,38269,0
1976,38302,0
1960,38283,0
1948,38266,0
1953,38304,0
1968,38276,0
1985,38259,0
2022,38297,0
2056,38280,0
2088,38274,0
2117,38302,0
2146,38278,0
2160,38257,0
2192,38292,0
2168,38294,0
2168,38264,0
2144,38284,0
2109,38300,0
2080,38283,0
2040,38268,0
2000,38311,0
1984,38280,0
1956,38274,0
1940,38308,0
1952,38271,0
1972,38285,0
1982,38307,0
2020,38284,0
2044,38289,0
2082,38308,0
2108,38287,0
2138,38292,0
2156,38294,0
2176,38287,0
2165,38296,0
2156,38309,0
2130,38308,0
2100,38297,0
2066,38285,0
2030,38306,0
2002,38288,0
1968,38270,0
1952,38312,0
1954,38289,0
1944,38283,0
1956,38315,0
1988,38303,0
2014,38287,0
2040,38281,0
2080,38320,0
2116,38289,0
2142,38292,0
2156,38306,0
2172,38315,0
2172,38278,0
2156,38269,0
2138,38310,0
2104,38289,0
2072,38270,0
2032,38300,0
2000,38284,0
1972,38296,0
1956,38307,0
1948,38286,0
1952,38292,0
1970,38310,0
1989,38299,0
2024,38279,0
2064,38284,0
2092,38308,0
2122,38291,0
2142,38266,0
2170,38301,0
2176,38292,0
2168,38268,0
2168,38308,0
2130,38295,0
2092,38271,0
2064,38304,0
2036,38290,0
1992,38291,0
1980,38265,0
1956,38314,0
1952,38284,0
1960,38258,0
1976,38302,0
1996,38277,0
2031,38264,0
2064,38303,0
2100,38277,0
2128,38264,0
2164,38291,0
2174,38267,0
2184,38282,0
2180,38292,0
2156,38281,0
2132,38277,0
2112,38266,0
2073,38299,0
2032,38271,0
2004,38252,0
1969,38302,0
1960,38276,0
1952,38257,0
1960,38298,0
1984,38271,0
2000,38268,0
2032,38299,0
2064,38280,0
2094,38260,0
2128,38279,0
2152,38273,0
2168,38267,0
2174,38255,0
2174,38281,0
2144,38267,0
2132,38269,0
2090,38295,0
2057,38273,0
2032,38270,0
1992,38293,0
1970,38283,0
1956,38271,0
1960,38265,0
1964,38296,0
1976,38278,0
2008,38253,0
2028,38288,0
2064,38273,0
2098,38270,0
2132,38289,0
2154,38274,0
2165,38264,0
2173,38292,0
2201,38275,0
2162,38275,0
2133,38289,0
2112,38289,0
2072,38278,0
2000,38272,0
1985,38275,0
1968,38275,0
1964,38276,0
1978,38262,0
1988,38307,0
2020,38271,0
2044,38284,0
2080,38289,0
2117,38285,0
2137,38275,0
2164,38279,0
2176,38293,0
2192,38278,0
2180,38272,0
2164,38298,0
2148,38272,0
2116,38258,0
2088,38295,0
2047,38271,0
2028,38261,0
2000,38297,0
1990,38277,0
1984,38251,0
1992,38296,0
2008,38277,0
2044,38272,0
2062,38293,0
2092,38271,0
2122,38271,0
2152,38284,0
2178,38278,0
2192,38272,0
2200,38294,0
2196,38293,0
2174,38267,0
2152,38285,0
2120,38296,0
2092,38262,0
2064,38256,0
2028,38298,0
2004,38265,0
1992,38254,0
1991,38293,0
2000,38273,0
2026,38265,0
2044,38286,0
2092,38271,0
2124,38263,0
2164,38285,0
2180,38266,0
2220,38268,0
2228,38287,0
2242,38265,0
2228,38268,0
2214,38282,0
2180,38292,0
2144,38273,0
2136,38261,0
2082,38293,0
2056,38273,0
2032,38241,0
2016,38292,0
2004,38272,0
2020,38289,0
2044,38279,0
2076,38273,0
2096,38262,0
2138,38252,0
2186,38294,0
2228,38268,0
2250,38248,0
2280,38288,0
2290,38268,0
2300,38256,0
2298,38287,0
2272,38259,0
2240,38255,0
2208,38294,0
2192,38260,0
2148,38257,0
2136,38289,0
2128,38268,0
2120,38258,0
2138,38287,0
2156,38270,0
2176,38268,0
2208,38285,0
2241,38266,0
2252,38270,0
2282,38287,0
2314,38275,0
2306,38264,0
2312,38269,0
2304,38293,0
2265,38270,0
2232,38256,0
2176,38266,0
2140,38274,0
2100,38271,0
2080,38272,0
2054,38275,0
2028,38257,0
2029,38294,0
2036,38273,0
2056,38248,0
2084,38299,0
2120,38271,0
2152,38262,0
2176,38298,0
2200,38261,0
2224,38268,0
2224,38288,0
2224,38270,0
2208,38268,0
2176,38284,0
2144,38255,0
2112,38263,0
2082,38284,0
2050,38284,0
2016,38269,0
1993,38247,0
1992,38303,0
1992,38269,0
2004,38246,0
2032,38292,0
2053,38264,0
2088,38263,0
2120,38264,0
2148,38269,0
2180,38250,0
2202,38276,0
2200,38263,0
2202,38262,0
2192,38283,0
2172,38255,0
2144,38265,0
2100,38288,0
2064,38271,0
2030,38266,0
2000,38289,0
1976,38279,0
1968,38267,0
1968,38273,0
1980,38286,0
2000,38264,0
2032,38249,0
2060,38289,0
2090,38265,0
2128,38240,0
2152,38295,0
2176,38262,0
2188,38251,0
2188,38284,0
2204,38252,0
2160,38251,0
2137,38279,0
2100,38264,0
2072,38269,0
2032,38292,0
2012,38266,0
1984,38280,0
1980,38248,0
1980,38256,0
1992,38269,0
2006,38288,0
2021,38259,0
2056,38238,0
2080,38284,0
2108,38253,0
2120,38252,0
2136,38278,0
2124,38254,0
2128,38256,0
2100,38275,0
2088,38261,0
2046,38263,0
2020,38284,0
1996,38255,0
1968,38262,0
1952,38271,0
1944,38259,0
1944,38260,0
1964,38257,0
2000,38277,0
2056,38256,0
2120,38223,0
2205,38275,0
2300,38247,0
2400,38245,0
2496,38280,0
2592,38249,0
2676,38248,0
2752,38266,0
2814,38241,0
2984,38261,0
2888,38245,0
2896,38252,0
2892,38257,0
2868,38265,0
2840,38242,0
2780,38238,0
2740,38277,0
2687,38251,0
2616,38231,0
2584,38267,0
2528,38242,0
2504,38232,0
2468,38272,0
2456,38256,0
2444,38246,0
2436,38270,0
2426,38253,0
2442,38247,0
2432,38278,0
2420,38247,0
2392,38255,0
2364,38275,0
2361,38266,0
2320,38258,0
2296,38259,0
2280,38272,0
2272,38251,0
2268,38256,0
2260,38262,0
2272,38263,0
2288,38251,0
2298,38265,0
2314,38261,0
2328,38271,0
2324,38274,0
2320,38257,0
2292,38251,0
2280,38286,0
2228,38264,0
2187,38246,0
2128,38277,0
2072,38258,0
2004,38241,0
1952,38283,0
1906,38253,0
1872,38252,0
1856,38286,0
1844,38258,0
1848,38270,0
1861,38289,0
1892,38253,0
1920,38254,0
1960,38273,0
1988,38264,0
2021,38257,0
2037,38252,0
2046,38279,0
2044,38262,0
2040,38244,0
2016,38283,0
1988,38266,0
1952,38286,0
1924,38282,0
1900,38260,0
1860,38259,0
1846,38288,0
1844,38269,0
1848,38271,0
1852,38292,0
1886,38265,0
1912,38269,0
1948,38293,0
1980,38272,0
2016,38262,0
2034,38242,0
2056,38281,0
2066,38252,0
2064,38249,0
2056,38276,0
2032,38252,0
2008,38252,0
1980,38278,0
1952,38260,0
1930,38267,0
1900,38284,0
1896,38260,0
1888,38263,0
1905,38290,0
1928,38282,0
1952,38265,0
1986,38252,0
2047,38273,0
2080,38286,0
2104,38265,0
2128,38265,0
2136,38282,0
2126,38265,0
2112,38251,0
2096,38287,0
2056,38262,0
2024,38258,0
2000,38292,0
1964,38263,0
1936,38257,0
1932,38282,0
1928,38263,0
1944,38263,0
1958,38289,0
1988,38263,0
2016,38267,0
2047,38276,0
2080,38280,0
2114,38261,0
2140,38261,0
2160,38294,0
2162,38266,0
2148,38259,0
2160,38298,0
2117,38270,0
2084,38254,0
2056,38291,0
2008,38263,0
1988,38260,0
1968,38300,0
2232,38275,0
2232,38310,0
2212,38301,0
2184,38301,0
2160,38301,0
2128,38301,0
2092,38301,0
2064,38301,0
2054,38301,0
2040,38289,0
2048,38289,0
2052,38289,0
2073,38289,0
2114,38289,0
2138,38289,0
2176,38289,0
2210,38268,0
2240,38268,0
2264,38268,0
2273,38268,0
2292,38268,0
2280,38268,0
2266,38268,0
2240,38305,0
2210,38305,0
2168,38305,0
2136,38305,0
2114,38305,0
2092,38305,0
2080,38305,0
2080,38329,0
2096,38286,0
2120,38315,0
2144,38320,0
2180,38307,0
2208,38310,0
2240,38317,0
2264,38308,0
2284,38302,0
2308,38321,0
2302,38309,0
2300,38312,0
2280,38303,0
2256,38325,0
2216,38292,0
2184,38287,0
2148,38326,0
2136,38304,0
2104,38279,0
2096,38318,0
2096,38298,0
2101,38296,0
2128,38314,0
2164,38298,0
2192,38296,0
2230,38311,0
2258,38299,0
2277,38295,0
2297,38316,0
2196,38324,0
2149,38279,0
2112,38294,0
2076,38295,0
2040,38297,0
2042,38276,0
2032,38276,0
2038,38296,0
2046,38276,0
2080,38280,0
2112,38309,0
2154,38277,0
2172,38272,0
2192,38287,0
2204,38297,0
2228,38273,0
2224,38264,0
2216,38303,0
2192,38275,0
2161,38253,0
2124,38296,0
2082,38263,0
2040,38249,0
2002,38291,0
1978,38256,0
1956,38249,0
1948,38284,0
1970,38252,0
1992,38259,0
2016,38276,0
2048,38253,0
2070,38260,0
2096,38285,0
2128,38266,0
2136,38245,0
2164,38267,0
2156,38247,0
2144,38244,0
2120,38224,0
2088,38262,0
2076,38244,0
2004,38222,0
1972,38265,0
1935,38235,0
1918,38227,0
1900,38264,0
1900,38236,0
1916,38235,0
1932,38249,0
1960,38225,0
1994,38236,0
2021,38245,0
2060,38240,0
2086,38227,0
2118,38237,0
2120,38254,0
2124,38219,0
2120,38209,0
2096,38247,0
2064,38216,0
2034,38210,0
1992,38241,0
1960,38209,0
1928,38206,0
1909,38214,0
1904,38220,0
1914,38199,0
1914,38222,0
1944,38211,0
1984,38200,0
2000,38193,0
2042,38235,0
2068,38215,0
2100,38191,0
2124,38233,0
2120,38212,0
2120,38196,0
2116,38233,0
2088,38193,0
2064,38200,0
2020,38225,0
1984,38204,0
1952,38195,0
1926,38222,0
1904,38203,0
1896,38213,0
1896,38226,0
1912,38209,0
1937,38208,0
1964,38201,0
2000,38228,0
2042,38205,0
2069,38191,0
2096,38233,0
2118,38201,0
2130,38199,0
2122,38207,0
2108,38211,0
2084,38203,0
2064,38210,0
2036,38215,0
1988,38210,0
1968,38180,0
1938,38226,0
1919,38203,0
1914,38209,0
1920,38225,0
1935,38198,0
1960,38203,0
1984,38220,0
2012,38197,0
2046,38211,0
2076,38220,0
2100,38230,0
2112,38207,0
2124,38194,0
2124,38231,0
2114,38203,0
2092,38191,0
2064,38236,0
2028,38203,0
2000,38185,0
1968,38224,0
1938,38199,0
1925,38196,0
1924,38223,0
1921,38199,0
1932,38204,0
1962,38204,0
1994,38207,0
2020,38209,0
2052,38216,0
2084,38218,0
2116,38207,0
2128,38208,0
2130,38230,0
2124,38197,0
2120,38179,0
2097,38226,0
2071,38210,0
2036,38196,0
2004,38216,0
1976,38200,0
1954,38208,0
1936,38229,0
1936,38217,0
1940,38203,0
1952,38218,0
1984,38228,0
2012,38202,0
2050,38199,0
2080,38228,0
2106,38201,0
2129,38202,0
2176,38226,0
2162,38197,0
2152,38196,0
2136,38219,0
2112,38195,0
2044,38198,0
2004,38208,0
1970,38209,0
1954,38183,0
1944,38205,0
1936,38201,0
1938,38223,0
1956,38195,0
1980,38205,0
2008,38217,0
2044,38202,0
2084,38195,0
2116,38204,0
2136,38210,0
2148,38194,0
2164,38194,0
2156,38217,0
2144,38192,0
2114,38177,0
2092,38217,0
2064,38206,0
2028,38190,0
2004,38211,0
1974,38193,0
1962,38201,0
1960,38205,0
1960,38197,0
1992,38180,0
2013,38211,0
2042,38186,0
2076,38196,0
2112,38214,0
2146,38198,0
2172,38197,0
2184,38203,0
2192,38184,0
2186,38204,0
2173,38193,0
2152,38198,0
2124,38219,0
2084,38203,0
2040,38199,0
2008,38235,0
1980,38208,0
1968,38179,0
1960,38230,0
1964,38202,0
1992,38197,0
2004,38229,0
2044,38215,0
2076,38192,0
2112,38233,0
2140,38197,0
2170,38207,0
2196,38234,0
2208,38204,0
2201,38210,0
2184,38224,0
2196,38205,0
2136,38210,0
2104,38228,0
2064,38214,0
2026,38210,0
2008,38225,0
1986,38201,0
1984,38213,0
1982,38193,0
1998,38195,0
2030,38211,0
2064,38198,0
2084,38219,0
2128,38228,0
2154,38205,0
2192,38190,0
2200,38223,0
2215,38202,0
2196,38190,0
2192,38227,0
2156,38204,0
2120,38189,0
2080,38219,0
2046,38195,0
2012,38189,0
1989,38220,0
1970,38197,0
1972,38204,0
1970,38218,0
1996,38199,0
2032,38201,0
2052,38214,0
2112,38202,0
2122,38208,0
2152,38204,0
2176,38228,0
2201,38203,0
2200,38192,0
2184,38222,0
2176,38224,0
2152,38201,0
2128,38224,0
2084,38198,0
2046,38204,0
2020,38223,0
1996,38214,0
1976,38201,0
1974,38197,0
1976,38225,0
1999,38201,0
2028,38181,0
2068,38232,0
2104,38207,0
2130,38197,0
2160,38232,0
2184,38211,0
2193,38197,0
2204,38239,0
2200,38209,0
2184,38207,0
2156,38242,0
2121,38210,0
2088,38205,0
2047,38236,0
2009,38217,0
2002,38210,0
1989,38211,0
1984,38239,0
1992,38198,0
2012,38192,0
2034,38221,0
2068,38213,0
2100,38211,0
2120,38224,0
2146,38210,0
2168,38208,0
2180,38228,0
2174,38200,0
2180,38205,0
2152,38233,0
2144,38211,0
2098,38211,0
2080,38226,0
2047,38219,0
2014,38214,0
2000,38212,0
1984,38229,0
1972,38214,0
1988,38187,0
2002,38232,0
2028,38205,0
2064,38194,0
2092,38221,0
2132,38211,0
2152,38197,0
2176,38234,0
2218,38198,0
2196,38209,0
2192,38224,0
2184,38204,0
2156,38201,0
2121,38220,0
2082,38198,0
2056,38217,0
2016,38224,0
1992,38197,0
1982,38226,0
1982,38199,0
1992,38223,0
2008,38203,0
2032,38213,0
2064,38213,0
2092,38222,0
2139,38203,0
2156,38200,0
2192,38224,0
2208,38201,0
2208,38192,0
2200,38233,0
2180,38201,0
2148,38177,0
2120,38223,0
2088,38193,0
2056,38181,0
2020,38226,0
2001,38199,0
1989,38197,0
1993,38212,0
1914,38194,0
2022,38204,0
2054,38224,0
2084,38198,0
2114,38204,0
2149,38211,0
2172,38181,0
2190,38210,0
2208,38191,0
2210,38222,0
2204,38205,0
2184,38194,0
2168,38217,0
2124,38190,0
2096,38202,0
2072,38214,0
2044,38200,0
2024,38195,0
2020,38215,0
2016,38204,0
2020,38204,0
2048,38219,0
2072,38212,0
2104,38197,0
2120,38191,0
2154,38223,0
2184,38190,0
2208,38183,0
2220,38223,0
2216,38192,0
2216,38181,0
2184,38224,0
2097,38195,0
2128,38174,0
2098,38218,0
2064,38192,0
2032,38185,0
2008,38221,0
2008,38215,0
2020,38196,0
2040,38211,0
2066,38214,0
2104,38201,0
2156,38223,0
2192,38223,0
2232,38206,0
2264,38196,0
2292,38225,0
2303,38196,0
2312,38186,0
2312,38217,0
2292,38194,0
2256,38188,0
2220,38223,0
2196,38197,0
2152,38194,0
2116,38218,0
2100,38194,0
2084,38204,0
2112,38220,0
2098,38198,0
2114,38197,0
2136,38219,0
2164,38202,0
2180,38207,0
2216,38212,0
2236,38216,0
2248,38197,0
2240,38201,0
2240,38217,0
2212,38205,0
2184,38211,0
2154,38213,0
2116,38189,0
2096,38189,0
2054,38193,0
2032,38233,0
2016,38189,0
2012,38177,0
2012,38226,0
2020,38200,0
2053,38184,0
2068,38225,0
2092,38206,0
2116,38204,0
2152,38216,0
2160,38199,0
2184,38209,0
2188,38224,0
2184,38201,0
2160,38208,0
2148,38224,0
2116,38213,0
2084,38199,0
2050,38220,0
2010,38216,0
1974,38207,0
1968,38216,0
1971,38231,0
1984,38205,0
1992,38191,0
2046,38231,0
2072,38227,0
2120,38213,0
2138,38228,0
2156,38235,0
2180,38235,0
2180,38211,0
2178,38220,0
2164,38227,0
2140,38224,0
2112,38217,0
2080,38224,0
2036,38232,0
2008,38216,0
1980,38198,0
1968,38241,0
1960,38224,0
1970,38205,0
1980,38241,0
2012,38221,0
2048,38216,0
2076,38250,0
2106,38213,0
2152,38234,0
2177,38240,0
2188,38235,0
2194,38227,0
2188,38242,0
2176,38226,0
2160,38230,0
2120,38254,0
2082,38225,0
2032,38231,0
2000,38245,0
1964,38264,0
1936,38226,0
1929,38233,0
1930,38252,0
1932,38231,0
1952,38213,0
1978,38256,0
2002,38227,0
2036,38219,0
2080,38238,0
2112,38225,0
2132,38218,0
2148,38263,0
2160,38222,0
2138,38219,0
2116,38255,0
2096,38220,0
2072,38221,0
2047,38248,0
2052,38219,0
2066,38223,0
2098,38252,0
2160,38225,0
2208,38226,0
2321,38259,0
2384,38239,0
2493,38237,0
2608,38242,0
2696,38242,0
2770,38229,0
2812,38239,0
2844,38252,0
2848,38236,0
2815,38231,0
2768,38234,0
2690,38227,0
2592,38251,0
2472,38236,0
2356,38226,0
2264,38229,0
2180,38256,0
2139,38224,0
2104,38216,0
2112,38250,0
2128,38229,0
2176,38210,0
2220,38249,0
2288,38217,0
2344,38208,0
2408,38254,0
2464,38219,0
2512,38223,0
2532,38242,0
2536,38227,0
2522,38218,0
2484,38244,0
2436,38230,0
2394,38233,0
2320,38245,0
2256,38222,0
2204,38229,0
2164,38252,0
2128,38231,0
2100,38260,0
2104,38253,0
2100,38216,0
2112,38241,0
2124,38244,0
2138,38215,0
2154,38232,0
2152,38250,0
2154,38231,0
2140,38233,0
2120,38260,0
2084,38245,0
2044,38235,0
1996,38243,0
1944,38265,0
1900,38230,0
1856,38211,0
1824,38258,0
1804,38234,0
1791,38218,0
1792,38256,0
1805,38232,0
1836,38216,0
1869,38255,0
1905,38234,0
1930,38217,0
1976,38263,0
2004,38235,0
2016,38223,0
2024,38259,0
2018,38226,0
2000,38239,0
1980,38257,0
1946,38242,0
1906,38233,0
1876,38252,0
1850,38236,0
1832,38233,0
1813,38265,0
1804,38239,0
1810,38243,0
1832,38267,0
1860,38247,0
1892,38246,0
1936,38254,0
1960,38237,0
1988,38247,0
2012,38264,0
2032,38248,0
2024,38243,0
2020,38244,0
1996,38266,0
1984,38241,0
1956,38233,0
1916,38269,0
1872,38246,0
1856,38218,0
1830,38268,0
1840,38242,0
1836,38235,0
1848,38255,0
1867,38237,0
1893,38238,0
1930,38252,0
1972,38229,0
1996,38244,0
2030,38241,0
2056,38241,0
2081,38251,0
2080,38244,0
2072,38279,0
2056,38252,0
2032,38213,0
2004,38270,0
1971,38255,0
1940,38230,0
1922,38264,0
1888,38239,0
1888,38243,0
1876,38271,0
1882,38240,0
1900,38250,0
1924,38276,0
1952,38253,0
1986,38249,0
2016,38260,0
2052,38270,0
2081,38256,0
2088,38249,0
2088,38277,0
2092,38250,0
2072,38232,0
2052,38286,0
2027,38254,0
1996,38235,0
1968,38251,0
1940,38261,0
1914,38256,0
1912,38269,0
1908,38260,0
1910,38242,0
1941,38285,0
1956,38259,0
1992,38250,0
2030,38290,0
2072,38263,0
2092,38252,0
2116,38283,0
2128,38262,0
2132,38260,0
2124,38282,0
2106,38256,0
2080,38259,0
2036,38296,0
2008,38256,0
1980,38262,0
1948,38289,0
1928,38274,0
1928,38260,0
1926,38286,0
1938,38287,0
1972,38274,0
1985,38284,0
2024,38289,0
2060,38267,0
2098,38263,0
2129,38291,0
2152,38254,0
2157,38279,0
2168,38265,0
2168,38302,0
2144,38298,0
2114,38299,0
2088,38279,0
2047,38251,0
2028,38306,0
1996,38268,0
1976,38262,0
1970,38303,0
1978,38277,0
1984,38265,0
2012,38308,0
2052,38272,0
2084,38280,0
2116,38299,0
2152,38281,0
2170,38286,0
2184,38301,0
2200,38283,0
2208,38284,0
2194,38316,0
2170,38292,0
2138,38293,0
2041,38317,0
2074,38285,0
2046,38306,0
2024,38315,0
1992,38316,0
1984,38284,0
1992,38320,0
2006,38296,0
2032,38327,0
2060,38301,0
2098,38317,0
2133,38323,0
2172,38292,0
2204,38286,0
2212,38330,0
2232,38295,0
2224,38293,0
2223,38328,0
2180,38302,0
2160,38287,0
2122,38326,0
2080,38305,0
2047,38285,0
2028,38329,0
2008,38303,0
2008,38305,0
2004,38335,0
2024,38313,0
2041,38310,0
2073,38326,0
2114,38309,0
2140,38310,0
2177,38329,0
2208,38312,0
2218,38302,0
2234,38336,0
2245,38313,0
2170,38276,0
2174,38319,0
2152,38298,0
2096,38314,0
2064,38328,0
2034,38313,0
2012,38332,0
1996,38302,0
1996,38300,0
2001,38327,0
2024,38309,0
2048,38297,0
2074,38315,0
2104,38303,0
2132,38281,0
2148,38332,0
2162,38292,0
2172,38286,0
2160,38318,0
2152,38293,0
2120,38278,0
2096,38304,0
2064,38286,0
2020,38269,0
2000,38311,0
1964,38288,0
1948,38270,0
1936,38311,0
1952,38284,0
1954,38284,0
1989,38300,0
2010,38280,0
2032,38276,0
2076,38289,0
2104,38290,0
2116,38269,0
2144,38264,0
2145,38291,0
2136,38266,0
2128,38244,0
2104,38289,0
2077,38265,0
2044,38246,0
2009,38278,0
1976,38262,0
1960,38256,0
1940,38282,0
1936,38255,0
1944,38250,0
1960,38280,0
1984,38258,0
2012,38246,0
2136,38277,0
2088,38252,0
2124,38253,0
2140,38281,0
2154,38245,0
2168,38245,0
2188,38260,0
2154,38243,0
2136,38236,0
2104,38258,0
2072,38246,0
2038,38232,0
2002,38242,0
1988,38247,0
1964,38244,0
1968,38224,0
1968,38246,0
1982,38228,0
2000,38210,0
2034,38253,0
2072,38224,0
2100,38215,0
2132,38256,0
2164,38231,0
2180,38215,0
2192,38246,0
2186,38220,0
2174,38222,0
2152,38247,0
2128,38219,0
2096,38220,0
2056,38250,0
2024,38226,0
2000,38221,0
1980,38253,0
1968,38221,0
1992,38229,0
2008,38259,0
2022,38227,0
2074,38230,0
2102,38254,0
2136,38233,0
2172,38232,0
2192,38246,0
2216,38229,0
2208,38225,0
2200,38235,0
2176,38247,0
2160,38245,0
2120,38238,0
2088,38260,0
2047,38236,0
2012,38232,0
1992,38255,0
1978,38230,0
1979,38237,0
1986,38256,0
2008,38233,0
2032,38232,0
2068,38248,0
2100,38254,0
2144,38229,0
2156,38241,0
2180,38262,0
2200,38240,0
2220,38213,0
2204,38262,0
2178,38242,0
2164,38212,0
2128,38264,0
2120,38231,0
2080,38220,0
2036,38260,0
2004,38234,0
2002,38235,0
1992,38261,0
2004,38237,0
2008,38253,0
2044,38233,0
2076,38244,0
2104,38257,0
2144,38262,0
2160,38249,0
2196,38218,0
2216,38261,0
2216,38242,0
2208,38225,0
2200,38273,0
2170,38235,0
2144,38245,0
2112,38262,0
2080,38241,0
2046,38243,0
2028,38265,0
2016,38245,0
2010,38247,0
2028,38276,0
2056,38253,0
2080,38248,0
2114,38266,0
2149,38259,0
2176,38257,0
2224,38252,0
2236,38267,0
2249,38248,0
2260,38245,0
2256,38269,0
2232,38247,0
2206,38240,0
2164,38251,0
2132,38258,0
2092,38271,0
2072,38255,0
2056,38248,0
2024,38232,0
2040,38259,0
2036,38236,0
2047,38243,0
2068,38264,0
2111,38239,0
2140,38244,0
2188,38268,0
2212,38255,0
2240,38244,0
2268,38262,0
2272,38266,0
2260,38243,0
2252,38242,0
2220,38272,0
2192,38244,0
2152,38241,0
2106,38280,0
2072,38244,0
2047,38241,0
2030,38273,0
2042,38252,0
2045,38248,0
2080,38267,0
2102,38242,0
2129,38236,0
2160,38257,0
2197,38258,0
2232,38253,0
2248,38237,0
2260,38257,0
2272,38249,0
2268,38283,0
2242,38252,0
2240,38254,0
2186,38262,0
2152,38269,0
2145,38249,0
2092,38241,0
2060,38278,0
2041,38259,0
2064,38229,0
2060,38274,0
2068,38245,0
2092,38231,0
2116,38262,0
2152,38254,0
2184,38228,0
2220,38268,0
2234,38255,0
2252,38237,0
2256,38264,0
2252,38243,0
2232,38241,0
2202,38259,0
2180,38238,0
2136,38245,0
2112,38269,0
2072,38244,0
2044,38251,0
2041,38261,0
2044,38251,0
2046,38253,0
2060,38252,0
2084,38243,0
2112,38235,0
2152,38260,0
2202,38236,0
2212,38241,0
2240,38254,0
2248,38235,0
2250,38238,0
2236,38258,0
2224,38247,0
2200,38243,0
2164,38239,0
2130,38257,0
2100,38232,0
2072,38221,0
2064,38256,0
2048,38242,0
2048,38219,0
2056,38260,0
2072,38231,0
2098,38232,0
2138,38262,0
2162,38235,0
2200,38232,0
2224,38254,0
2248,38232,0
2248,38243,0
2248,38240,0
2240,38250,0
2222,38225,0
2196,38260,0
2124,38235,0
2124,38224,0
2088,38266,0
2056,38237,0
2042,38234,0
2024,38265,0
2031,38242,0
2036,38233,0
2064,38261,0
2088,38237,0
2116,38234,0
2140,38265,0
2184,38229,0
2200,38239,0
2228,38255,0
2242,38231,0
2260,38247,0
2240,38255,0
2229,38240,0
2200,38237,0
2157,38261,0
2129,38248,0
2094,38233,0
2068,38235,0
2048,38260,0
2042,38234,0
2040,38236,0
2066,38244,0
2096,38239,0
2120,38236,0
2164,38231,0
2192,38264,0
2220,38243,0
2248,38231,0
2256,38264,0
2252,38230,0
2256,38236,0
2231,38268,0
2196,38241,0
2168,38249,0
2136,38269,0
2112,38241,0
2072,38237,0
2056,38263,0
2047,38245,0
2056,38246,0
2080,38248,0
2112,38247,0
2136,38230,0
2164,38241,0
2208,38254,0
2240,38232,0
2260,38231,0
2290,38259,0
2292,38233,0
2296,38222,0
2284,38262,0
2257,38224,0
2220,38236,0
2184,38247,0
2152,38238,0
2112,38244,0
2088,38229,0
2084,38256,0
2072,38222,0
2074,38229,0
2088,38251,0
2112,38225,0
2152,38215,0
2192,38256,0
2212,38230,0
2248,38219,0
2276,38255,0
2292,38227,0
2300,38206,0
2312,38238,0
2276,38229,0
2260,38222,0
2224,38240,0
2200,38213,0
2154,38221,0
2128,38250,0
2104,38221,0
2076,38223,0
2014,38241,0
2092,38217,0
2112,38210,0
2137,38248,0
2176,38220,0
2209,38227,0
2252,38231,0
2294,38240,0
2312,38233,0
2348,38210,0
2368,38244,0
2360,38220,0
2356,38244,0
2340,38224,0
2308,38229,0
2278,38247,0
2244,38231,0
2216,38227,0
2196,38241,0
2176,38248,0
2172,38225,0
2184,38231,0
2192,38246,0
2216,38216,0
2240,38205,0
2268,38258,0
2296,38225,0
2324,38216,0
2368,38242,0
2360,38219,0
2354,38204,0
2338,38248,0
2312,38215,0
2280,38208,0
2240,38242,0
2200,38209,0
2164,38208,0
2120,38237,0
2090,38204,0
2074,38226,0
2064,38238,0
2084,38219,0
2096,38237,0
2110,38200,0
2144,38248,0
2164,38209,0
2210,38197,0
2244,38243,0
2256,38210,0
2264,38197,0
2272,38237,0
2264,38208,0
2244,38211,0
2208,38230,0
2168,38214,0
2140,38209,0
2096,38226,0
2064,38212,0
2064,38220,0
2032,38224,0
2033,38209,0
2041,38209,0
2056,38229,0
2088,38223,0
2116,38221,0
2160,38232,0
2188,38220,0
2228,38210,0
2246,38204,0
2261,38236,0
2268,38216,0
2268,38218,0
2242,38217,0
2218,38196,0
2192,38215,0
2152,38197,0
2116,38227,0
2080,38210,0
2047,38206,0
2032,38237,0
2032,38208,0
2044,38222,0
2056,38230,0
2080,38224,0
2108,38214,0
2145,38220,0
2178,38223,0
2216,38209,0
2236,38205,0
2252,38231,0
2256,38211,0
2272,38194,0
2244,38237,0
2220,38208,0
2197,38202,0
2148,38231,0
2124,38226,0
2094,38225,0
2058,38241,0
2048,38218,0
2032,38222,0
2048,38249,0
2056,38219,0
2084,38235,0
2108,38239,0
2130,38209,0
2160,38251,0
2180,38227,0
2192,38249,0
2216,38229,0
2220,38223,0
2208,38232,0
2184,38250,0
2168,38229,0
2132,38230,0
2116,38249,0
2080,38230,0
2044,38213,0
2036,38252,0
2036,38219,0
2040,38217,0
2068,38252,0
2124,38222,0
2194,38217,0
2272,38246,0
2368,38219,0
2464,38215,0
2556,38253,0
2648,38223,0
2750,38220,0
2822,38252,0
2888,38225,0
2921,38224,0
2920,38254,0
2880,38210,0
2844,38226,0
2794,38230,0
2730,38218,0
2652,38232,0
2572,38224,0
2498,38217,0
2426,38245,0
2376,38219,0
2346,38203,0
2336,38244,0
2351,38218,0
2368,38210,0
2408,38246,0
2420,38212,0
2476,38211,0
2496,38237,0
2522,38213,0
2524,38209,0
2528,38231,0
2536,38206,0
2512,38214,0
2489,38234,0
2456,38208,0
2426,38224,0
2394,38239,0
2376,38221,0
2372,38211,0
2352,38247,0
2360,38219,0
2352,38207,0
2347,38234,0
2352,38212,0
2356,38236,0
2348,38233,0
2344,38214,0
2332,38229,0
2292,38223,0
2256,38226,0
2212,38247,0
2152,38218,0
2096,38208,0
2072,38245,0
2000,38222,0
1952,38195,0
1936,38249,0
1930,38211,0
1920,38204,0
1920,38244,0
1962,38224,0
1972,38217,0
2008,38233,0
2032,38215,0
2060,38226,0
2082,38237,0
2107,38205,0
2104,38220,0
2092,38234,0
2082,38219,0
2066,38224,0
2036,38217,0
2008,38242,0
1974,38223,0
1938,38211,0
1918,38226,0
1906,38196,0
1916,38215,0
1928,38221,0
1936,38209,0
1968,38204,0
2000,38237,0
2032,38213,0
2068,38214,0
2094,38242,0
2114,38217,0
2139,38217,0
2128,38225,0
2136,38217,0
2108,38224,0
2080,38243,0
2046,38220,0
2008,38223,0
1972,38227,0
1952,38236,0
1936,38213,0
1922,38204,0
1928,38246,0
1944,38210,0
1972,38209,0
2004,38241,0
2040,38218,0
2088,38205,0
2116,38251,0
2148,38212,0
2176,38198,0
2184,38212,0
2170,38227,0
2168,38219,0
2124,38234,0
2092,38235,0
2052,38198,0
2016,38248,0
2000,38206,0
1976,38207,0
1968,38228,0
1972,38216,0
1994,38215,0
2008,38243,0
2046,38214,0
2080,38220,0
2112,38233,0
2146,38215,0
2176,38209,0
2204,38222,0
2214,38220,0
2224,38213,0
2209,38202,0
2193,38237,0
2160,38212,0
2121,38188,0
2096,38234,0
2060,38206,0
2052,38204,0
2026,38234,0
2016,38223,0
2018,38213,0
2033,38233,0
2056,38212,0
2112,38225,0
2116,38211,0
2144,38231,0
2180,38225,0
2204,38200,0
2224,38241,0
2232,38211,0
2232,38214,0
2228,38237,0
2212,38218,0
2176,38226,0
2138,38225,0
2128,38233,0
2084,38229,0
2064,38219,0
2037,38232,0
2032,38221,0
2030,38205,0
2044,38241,0
2068,38229,0
2104,38199,0
2136,38246,0
2178,38216,0
2212,38207,0
2226,38245,0
2240,38222,0
2260,38216,0
2254,38244,0
2256,38207,0
2224,38217,0
2194,38247,0
2152,38223,0
2121,38225,0
2088,38236,0
2064,38243,0
2046,38225,0
2036,38231,0
2040,38230,0
2066,38228,0
2088,38231,0
2120,38222,0
2156,38216,0
2194,38234,0
2232,38237,0
2264,38224,0
2272,38218,0
2288,38248,0
2288,38223,0
2276,38212,0
2256,38249,0
2224,38220,0
2188,38203,0
2160,38248,0
2122,38212,0
2098,38201,0
2082,38242,0
2072,38225,0
2082,38207,0
2105,38248,0
2118,38230,0
2160,38213,0
2194,38244,0
2228,38228,0
2256,38235,0
2284,38237,0
2292,38213,0
2308,38223,0
2298,38243,0
2290,38245,0
2264,38230,0
2232,38229,0
2196,38253,0
2160,38229,0
2124,38231,0
2115,38250,0
2088,38235,0
2080,38238,0
2096,38250,0
2108,38234,0
2140,38233,0
2176,38243,0
2192,38255,0
2240,38227,0
2264,38235,0
2296,38252,0
2316,38231,0
2330,38218,0
2320,38254,0
2300,38228,0
2280,38212,0
2250,38253,0
2208,38227,0
2176,38219,0
2132,38236,0
2097,38221,0
2080,38224,0
2069,38248,0
2076,38228,0
2080,38206,0
2108,38225,0
2140,38212,0
2162,38211,0
2192,38231,0
2220,38203,0
2252,38218,0
2272,38233,0
2280,38210,0
2276,38205,0
2264,38222,0
2232,38206,0
2208,38198,0
2156,38222,0
2128,38201,0
2092,38193,0
2056,38202,0
2040,38203,0
2036,38194,0
2048,38190,0
2050,38200,0
2080,38187,0
2104,38165,0
2172,38213,0
2185,38185,0
2208,38169,0
2240,38199,0
2256,38178,0
2268,38160,0
2264,38197,0
2237,38201,0
2216,38168,0
2192,38172,0
2152,38166,0
2120,38167,0
2084,38157,0
2058,38187,0
2040,38157,0
2032,38165,0
2036,38180,0
2056,38161,0
2084,38160,0
2112,38163,0
2138,38182,0
2174,38144,0
2212,38137,0
2228,38172,0
2240,38145,0
2248,38141,0
2248,38171,0
2236,38144,0
2208,38141,0
2188,38167,0
2154,38153,0
2108,38134,0
2084,38170,0
2065,38137,0
2043,38142,0
2040,38169,0
2056,38142,0
2068,38138,0
2088,38165,0
2125,38145,0
2160,38161,0
2184,38141,0
2220,38150,0
2246,38161,0
2260,38134,0
2269,38117,0
2268,38162,0
2248,38129,0
2224,38115,0
2207,38159,0
2160,38140,0
2128,38127,0
2104,38163,0
2064,38134,0
2058,38130,0
2046,38150,0
2060,38140,0
2072,38130,0
2104,38156,0
2146,38137,0
2192,38123,0
2200,38130,0
2236,38158,0
2258,38125,0
2273,38102,0
2292,38149,0
2274,38122,0
2272,38131,0
2240,38142,0
2200,38123,0
2164,38154,0
2128,38127,0
2092,38120,0
2066,38144,0
2068,38167,0
2085,38125,0
2068,38130,0
2082,38129,0
2108,38152,0
2132,38121,0
2186,38117,0
2224,38148,0
2236,38120,0
2264,38105,0
2280,38137,0
2272,38120,0
2268,38108,0
2248,38131,0
2218,38110,0
2180,38103,0
2156,38125,0
2124,38116,0
2100,38118,0
2082,38137,0
2060,38114,0
2061,38120,0
2072,38130,0
2094,38114,0
2120,38109,0
2156,38102,0
2192,38145,0
2226,38112,0
2248,38104,0
2264,38116,0
2282,38112,0
2288,38110,0
2284,38113,0
2252,38137,0
2220,38098,0
2188,38119,0
2152,38134,0
2122,38111,0
2088,38121,0
2072,38121,0
2056,38116,0
2068,38110,0
2068,38133,0
2081,38127,0
2112,38110,0
2138,38105,0
2174,38138,0
2208,38110,0
2236,38104,0
2276,38132,0
2281,38117,0
2296,38088,0
2276,38135,0
2256,38115,0
2234,38104,0
2198,38136,0
2166,38112,0
2130,38113,0
2096,38138,0
2068,38117,0
2064,38127,0
2072,38138,0
2104,38132,0
2120,38115,0
2153,38115,0
2185,38103,0
2224,38146,0
2256,38112,0
2272,38093,0
2288,38130,0
2291,38118,0
2272,38120,0
2288,38145,0
2228,38107,0
2208,38118,0
2164,38130,0
2140,38132,0
2104,38112,0
2084,38116,0
2072,38146,0
2076,38121,0
2096,38091,0
2112,38125,0
2136,38103,0
2164,38097,0
2232,38135,0
2240,38120,0
2260,38100,0
2296,38141,0
2298,38109,0
2296,38114,0
2256,38117,0
2264,38123,0
2218,38121,0
2200,38101,0
2152,38115,0
2120,38122,0
2092,38142,0
2064,38109,0
2056,38121,0
2064,38108,0
2074,38135,0
2106,38111,0
2128,38100,0
2168,38141,0
2194,38117,0
2234,38101,0
2256,38138,0
2280,38121,0
2284,38106,0
2280,38134,0
2276,38112,0
2252,38120,0
2232,38132,0
2188,38114,0
2148,38116,0
2113,38138,0
2104,38116,0
2060,38108,0
2040,38129,0
2056,38119,0
2056,38113,0
2080,38111,0
2120,38100,0
2128,38125,0
2156,38102,0
2189,38112,0
2208,38122,0
2248,38106,0
2248,38121,0
2248,38130,0
2244,38100,0
2224,38090,0
2192,38128,0
2172,38113,0
2136,38097,0
2112,38120,0
2072,38100,0
2058,38106,0
2047,38131,0
2056,38107,0
2060,38109,0
2080,38126,0
2108,38112,0
2144,38113,0
2176,38125,0
2208,38124,0
2232,38111,0
2252,38104,0
2290,38130,0
2264,38106,0
2256,38096,0
2240,38128,0
2204,38104,0
2176,38101,0
2128,38126,0
2092,38108,0
2080,38119,0
2052,38097,0
2036,38109,0
2037,38138,0
2056,38106,0
2080,38092,0
2108,38126,0
2148,38107,0
2175,38089,0
2211,38133,0
2224,38111,0
2276,38093,0
2260,38135,0
2256,38100,0
2244,38108,0
2216,38123,0
2180,38105,0
2140,38111,0
2108,38126,0
2072,38107,0
2048,38102,0
2016,38116,0
2004,38124,0
2020,38103,0
2034,38098,0
2044,38131,0
2077,38106,0
2112,38081,0
2146,38133,0
2177,38102,0
2208,38102,0
2218,38117,0
2236,38099,0
2232,38097,0
2218,38121,0
2192,38106,0
2166,38089,0
2132,38126,0
2096,38097,0
2064,38093,0
2032,38118,0
2014,38102,0
2012,38098,0
2040,38124,0
2026,38098,0
2052,38095,0
2080,38098,0
2122,38120,0
2146,38099,0
2188,38099,0
2208,38130,0
2240,38096,0
2245,38080,0
2240,38124,0
2224,38104,0
2192,38082,0
2196,38120,0
2138,38096,0
2101,38085,0
2060,38117,0
2048,38092,0
2024,38099,0
2020,38120,0
2008,38125,0
2046,38092,0
2056,38124,0
2074,38117,0
2104,38090,0
2144,38107,0
2172,38119,0
2192,38112,0
2216,38099,0
2224,38113,0
2221,38120,0
2208,38097,0
2184,38085,0
2156,38126,0
2112,38097,0
2088,38085,0
2072,38122,0
2028,38102,0
2020,38091,0
1972,38119,0
2032,38089,0
2028,38107,0
2064,38120,0
2088,38100,0
2112,38096,0
2180,38123,0
2170,38102,0
2194,38112,0
2224,38127,0
2232,38115,0
2218,38108,0
2208,38114,0
2184,38112,0
2154,38130,0
2124,38116,0
2096,38114,0
2064,38124,0
2037,38099,0
2028,38078,0
2032,38115,0
2025,38101,0
2046,38086,0
2064,38129,0
2096,38106,0
2124,38096,0
2152,38120,0
2186,38099,0
2200,38101,0
2224,38129,0
2226,38102,0
2224,38112,0
2224,38138,0
2196,38112,0
2176,38102,0
2144,38098,0
2112,38135,0
2080,38104,0
2081,38092,0
2060,38133,0
2064,38105,0
2080,38086,0
2120,38120,0
2149,38101,0
2184,38127,0
2218,38126,0
2256,38109,0
2296,38112,0
2308,38160,0
2330,38107,0
2336,38097,0
2332,38130,0
2312,38099,0
2288,38103,0
2252,38113,0
2225,38115,0
2184,38091,0
2156,38104,0
2116,38118,0
2100,38096,0
2100,38083,0
2092,38123,0
2096,38117,0
2112,38085,0
2138,38122,0
2176,38102,0
2200,38094,0
2225,38129,0
2236,38104,0
2244,38093,0
2246,38119,0
2232,38106,0
2216,38103,0
2204,38131,0
2162,38098,0
2132,38108,0
2098,38099,0
2064,38118,0
2047,38109,0
2022,38118,0
2024,38136,0
2020,38104,0
2028,38091,0
2060,38137,0
2088,38113,0
2114,38101,0
2137,38139,0
2164,38117,0
2184,38114,0
2200,38127,0
2196,38109,0
2192,38113,0
2178,38128,0
2144,38099,0
2112,38112,0
2080,38126,0
2042,38128,0
2020,38112,0
1992,38128,0
1980,38128,0
1992,38112,0
1996,38121,0
2026,38139,0
2040,38110,0
2080,38097,0
2112,38130,0
2146,38114,0
2192,38134,0
2204,38119,0
2208,38103,0
2200,38136,0
2176,38117,0
2128,38099,0
2116,38131,0
2078,38110,0
2034,38106,0
2008,38131,0
1990,38107,0
1975,38120,0
1976,38138,0
1984,38114,0
2012,38124,0
2044,38135,0
2064,38119,0
2104,38115,0
2144,38110,0
2172,38146,0
2200,38106,0
2214,38102,0
2218,38145,0
2214,38109,0
2200,38099,0
2160,38135,0
2148,38123,0
2085,38104,0
2040,38141,0
2004,38115,0
1984,38097,0
1948,38140,0
1946,38134,0
1944,38134,0
1954,38118,0
1976,38135,0
2004,38134,0
2040,38136,0
2072,38123,0
2104,38116,0
2140,38131,0
2158,38149,0
2164,38125,0
2173,38106,0
2160,38138,0
2168,38118,0
2164,38095,0
2178,38141,0
2178,38123,0
2216,38117,0
2276,38145,0
2336,38123,0
2424,38115,0
2528,38150,0
2632,38118,0
2742,38128,0
2840,38140,0
2924,38118,0
3040,38127,0
3070,38146,0
3106,38118,0
3120,38119,0
3096,38144,0
3048,38128,0
2928,38106,0
2824,38127,0
2716,38121,0
2592,38109,0
2492,38142,0
2396,38154,0
2316,38134,0
2260,38131,0
2210,38142,0
2216,38145,0
2224,38127,0
2250,38130,0
2290,38142,0
2344,38117,0
2384,38120,0
2432,38146,0
2448,38126,0
2472,38112,0
2464,38148,0
2456,38118,0
2426,38115,0
2396,38147,0
2348,38133,0
2297,38116,0
2240,38136,0
2180,38117,0
2172,38118,0
2113,38143,0
2090,38122,0
2090,38118,0
2074,38149,0
2080,38119,0
2072,38109,0
2082,38119,0
2088,38136,0
2040,38132,0
2080,38114,0
2068,38133,0
2047,38121,0
2028,38109,0
2008,38142,0
1956,38108,0
1920,38097,0
1894,38137,0
1844,38111,0
1812,38101,0
1808,38149,0
1796,38107,0
1808,38098,0
1818,38144,0
1840,38121,0
1897,38119,0
1908,38141,0
1946,38130,0
1978,38127,0
1996,38134,0
2048,38138,0
2044,38123,0
2056,38095,0
2021,38145,0
1996,38125,0
1968,38113,0
1932,38151,0
1896,38117,0
1876,38124,0
1840,38115,0
1828,38121,0
1818,38137,0
1824,38147,0
1834,38146,0
1864,38126,0
1896,38105,0
1930,38150,0
1970,38113,0
2004,38119,0
2035,38154,0
2056,38120,0
2080,38128,0
2068,38146,0
2056,38126,0
2036,38134,0
2024,38131,0
1976,38156,0
1936,38121,0
1912,38110,0
1880,38143,0
1864,38120,0
1856,38133,0
1862,38154,0
1880,38125,0
1912,38131,0
1938,38131,0
1972,38146,0
2016,38130,0
2048,38114,0
2072,38148,0
2088,38133,0
2105,38129,0
2104,38140,0
2088,38138,0
2068,38139,0
2032,38112,0
2000,38147,0
1970,38125,0
1932,38132,0
1909,38153,0
1896,38128,0
1892,38135,0
1900,38150,0
1916,38121,0
1954,38126,0
1988,38146,0
2024,38149,0
2046,38123,0
2084,38132,0
2100,38148,0
2128,38133,0
2144,38119,0
2144,38148,0
2125,38128,0
2096,38107,0
2072,38152,0
2053,38123,0
2006,38106,0
1968,38151,0
1952,38135,0
1929,38133,0
1920,38155,0
1928,38150,0
1942,38154,0
1970,38128,0
2000,38143,0
2034,38155,0
2064,38110,0
2097,38154,0
2128,38118,0
2146,38131,0
2154,38154,0
2161,38130,0
2137,38134,0
2128,38157,0
2098,38129,0
2060,38133,0
2032,38128,0
2000,38155,0
1983,38133,0
1960,38107,0
1956,38155,0
1964,38133,0
1984,38112,0
2010,38168,0
2048,38137,0
2090,38128,0
2112,38162,0
2168,38131,0
2168,38141,0
2186,38152,0
2194,38139,0
2192,38142,0
2178,38160,0
2144,38150,0
2120,38154,0
2096,38160,0
2052,38147,0
2020,38145,0
1992,38148,0
1978,38165,0
1969,38144,0
1986,38145,0
2008,38172,0
2040,38163,0
2075,38161,0
2110,38155,0
2144,38172,0
2192,38152,0
2208,38136,0
2228,38183,0
2256,38157,0
2244,38132,0
2232,38170,0
2208,38147,0
2186,38129,0
2156,38161,0
2112,38151,0
2080,38134,0
2047,38170,0
2052,38142,0
2029,38137,0
2040,38159,0
2052,38153,0
2074,38152,0
2112,38180,0
2136,38164,0
2168,38159,0
2200,38146,0
2224,38171,0
2244,38152,0
2244,38148,0
2234,38165,0
2216,38174,0
2192,38156,0
2160,38152,0
2140,38163,0
2096,38149,0
2068,38127,0
2036,38174,0
2032,38144,0
2016,38126,0
2040,38157,0
2056,38137,0
2064,38134,0
2104,38147,0
2144,38120,0
2176,38134,0
2212,38147,0
2226,38116,0
2240,38126,0
2240,38152,0
2226,38130,0
2227,38123,0
2194,38144,0
2168,38130,0
2132,38125,0
2056,38088,0
2028,38136,0
2012,38117,0
2012,38122,0
2016,38123,0
2032,38105,0
2047,38132,0
2076,38095,0
2108,38097,0
2128,38124,0
2164,38094,0
2182,38097,0
2197,38116,0
2200,38105,0
2200,38087,0
2172,38101,0
2152,38109,0
2116,38082,0
2096,38065,0
2044,38112,0
2024,38083,0
1997,38077,0
1986,38111,0
1984,38089,0
1989,38061,0
2010,38115,0
2057,38082,0
2072,38065,0
2104,38100,0
2144,38074,0
2170,38065,0
2192,38095,0
2196,38069,0
2192,38072,0
2192,38076,0
2168,38084,0
2144,38089,0
2106,38074,0
2076,38093,0
2064,38079,0
2012,38077,0
2008,38087,0
1988,38083,0
1981,38067,0
1984,38065,0
2004,38095,0
2036,38066,0
2088,38052,0
2104,38091,0
2144,38064,0
2172,38041,0
2216,38086,0
2196,38063,0
2216,38034,0
2208,38076,0
2192,38049,0
2165,38048,0
2128,38083,0
2027,38058,0
2061,38054,0
2033,38072,0
2012,38057,0
2012,38054,0
2000,38071,0
2020,38069,0
2030,38061,0
2056,38067,0
2098,38051,0
2124,38054,0
2152,38033,0
2184,38076,0
2206,38049,0
2212,38036,0
2212,38070,0
2204,38052,0
2184,38040,0
2168,38073,0
2136,38048,0
2096,38051,0
2080,38072,0
2040,38045,0
2024,38043,0
2010,38064,0
2012,38051,0
2028,38042,0
2048,38068,0
2064,38058,0
2098,38049,0
2132,38051,0
2160,38060,0
2194,38037,0
2224,38030,0
2232,38061,0
2232,38035,0
2233,38018,0
2217,38057,0
2174,38026,0
2141,38049,0
2114,38032,0
2080,38051,0
2047,38041,0
2028,38037,0
2024,38003,0
2010,38060,0
2036,38020,0
2046,38010,0
2088,38063,0
2104,38033,0
2136,38020,0
2186,38052,0
2210,38026,0
2232,38021,0
2236,38053,0
2264,38022,0
2232,38029,0
2216,38050,0
2186,38029,0
2162,38037,0
2129,38060,0
2086,38029,0
2053,38035,0
2032,38051,0
2020,38042,0
2032,38038,0
2034,38038,0
2056,38055,0
2082,38017,0
2112,38015,0
2144,38059,0
2180,38027,0
2212,38056,0
2228,38040,0
2242,38046,0
2248,38038,0
2236,38040,0
2216,38048,0
2184,38064,0
2152,38030,0
2124,38017,0
2099,38058,0
2066,38044,0
2050,38023,0
2036,38060,0
2044,38031,0
2056,38025,0
2072,38055,0
2104,38031,0
2136,38049,0
2160,38066,0
2200,38040,0
2220,38039,0
2240,38050,0
2248,38059,0
2248,38035,0
2236,38025,0
2216,38050,0
2192,38025,0
2160,38015,0
2130,38054,0
2092,38035,0
2064,38015,0
2044,38034,0
2032,38051,0
2032,38029,0
2047,38034,0
2068,38008,0
2096,38056,0
2128,38020,0
2162,38015,0
2192,38042,0
2224,38023,0
2248,38010,0
2244,38051,0
2256,38030,0
2234,38027,0
2218,38046,0
2180,38028,0
2152,38023,0
2116,38045,0
2084,38024,0
2047,38023,0
2048,38036,0
2038,38036,0
2048,38021,0
2072,37994,0
2088,38035,0
2120,38020,0
2148,38004,0
2182,38030,0
2216,38019,0
2244,38015,0
2260,38041,0
2260,38034,0
2250,38047,0
2228,38013,0
2208,38037,0
2176,38047,0
2146,38021,0
2096,38036,0
2064,38018,0
2047,38022,0
2028,38040,0
2024,38016,0
2032,38021,0
2056,38046,0
2084,38033,0
2106,38020,0
2144,38011,0
2172,38049,0
2208,38015,0
2238,38010,0
2248,38039,0
2248,38029,0
2248,38015,0
2248,38049,0
2212,38034,0
2180,38008,0
2136,38043,0
2120,38020,0
2065,38029,0
2034,38050,0
2016,38024,0
2012,38029,0
2024,38048,0
2040,38030,0
2056,38037,0
2090,38049,0
2124,38022,0
2156,38056,0
2184,38022,0
2216,38019,0
2218,38046,0
2232,38023,0
2234,38019,0
2225,38035,0
2207,38021,0
2168,38034,0
2145,38044,0
2100,38038,0
2072,38015,0
2047,38042,0
2044,38057,0
2026,38027,0
2026,38017,0
2042,38055,0
2072,38023,0
2106,38005,0
2140,38053,0
2166,38018,0
2192,38012,0
2224,38043,0
2240,38024,0
2246,38011,0
2252,38050,0
2240,38025,0
2216,38023,0
2180,38046,0
2138,38029,0
2120,38018,0
2072,38030,0
2064,38019,0
2029,38044,0
2020,38019,0
2032,38023,0
2040,38043,0
2064,38018,0
2100,38021,0
2136,38036,0
2172,38032,0
2200,38018,0
2224,38007,0
2248,38031,0
2240,38006,0
2232,37999,0
2212,38040,0
2200,38014,0
2160,38007,0
2136,38041,0
2096,38013,0
2052,37998,0
2032,38022,0
2016,38006,0
2010,38009,0
2034,38031,0
2044,37997,0
2080,37997,0
2112,38031,0
2176,38015,0
2204,38018,0
2240,37999,0
2248,38006,0
2260,38000,0
2238,37998,0
2226,38027,0
2204,37998,0
2168,37982,0
2136,38027,0
2096,38003,0
2072,37992,0
2036,38028,0
2020,38002,0
2012,37995,0
2028,38029,0
2047,38008,0
2064,38008,0
2100,38034,0
2136,38000,0
2178,38007,0
2210,38025,0
2232,38005,0
2250,38006,0
2264,38017,0
2242,38008,0
2240,38012,0
2208,38025,0
2178,38004,0
2144,38019,0
2112,38022,0
2076,38017,0
2040,38021,0
2038,37994,0
2024,38018,0
2034,38021,0
2046,37986,0
2069,37990,0
2104,38040,0
2136,38009,0
2164,38000,0
2200,38031,0
2232,38018,0
2239,38009,0
2240,38031,0
2244,38018,0
2216,38018,0
2208,38034,0
2162,38006,0
2138,38021,0
2092,38041,0
2068,38027,0
2036,38006,0
2020,38040,0
2032,38025,0
2026,38008,0
2048,38014,0
2072,38035,0
2124,38007,0
2141,38007,0
2174,38039,0
2212,38019,0
2220,38000,0
2248,38044,0
2248,38021,0
2229,38028,0
2220,38037,0
2196,38022,0
2162,38016,0
2122,38007,0
2104,38029,0
2064,38010,0
2036,38019,0
2028,38037,0
2028,38033,0
2040,38016,0
2060,38028,0
2092,38035,0
2120,38005,0
2152,38003,0
2184,38033,0
2212,38018,0
2236,38000,0
2232,38046,0
2232,38017,0
2248,37996,0
2220,38025,0
2200,38008,0
2160,38006,0
2128,38029,0
2098,38005,0
2068,38006,0
2042,38033,0
2036,38011,0
2038,38017,0
2061,38032,0
2072,38012,0
2100,38032,0
2136,38010,0
2228,38042,0
2196,38041,0
2216,38011,0
2236,38004,0
2248,38037,0
2252,38007,0
2236,38002,0
2220,38029,0
2194,38011,0
2164,38010,0
2132,38030,0
2100,38014,0
2072,38023,0
2047,38042,0
2046,38010,0
2052,38012,0
2068,38034,0
2104,38021,0
2140,38018,0
2186,38035,0
2236,38025,0
2272,38020,0
2300,38026,0
2354,38026,0
2348,38022,0
2346,38005,0
2348,38055,0
2336,38021,0
2312,38002,0
2264,38033,0
2224,38027,0
2192,38040,0
2169,38023,0
2144,38002,0
2128,38045,0
2132,38021,0
2130,38004,0
2144,38033,0
2164,38024,0
2188,38020,0
2225,38040,0
2236,38023,0
2272,38024,0
2272,38044,0
2280,38044,0
2274,38031,0
2272,38014,0
2242,38051,0
2210,38027,0
2180,38003,0
2138,38056,0
2118,38023,0
2074,38024,0
2064,38051,0
2054,38024,0
2068,38037,0
2062,38046,0
2084,38030,0
2112,38029,0
2136,38045,0
2162,38025,0
2180,38047,0
2204,38045,0
2216,38029,0
2224,38028,0
2216,38031,0
2202,38019,0
2174,38048,0
2152,38030,0
2104,38025,0
2080,38049,0
2046,38030,0
2012,38024,0
2000,38053,0
2000,38030,0
1998,38031,0
2008,38051,0
2036,38043,0
2064,38033,0
2096,38039,0
2136,38053,0
2164,38031,0
2208,38016,0
2212,38054,0
2240,38028,0
2225,38018,0
2212,38052,0
2214,38028,0
2164,38021,0
2132,38053,0
2096,38029,0
2057,38023,0
2028,38049,0
2008,38048,0
1992,38045,0
2004,38033,0
2016,38056,0
2040,38035,0
2064,38032,0
2096,38031,0
2132,38061,0
2170,38042,0
2192,38026,0
2216,38061,0
2229,38036,0
2224,38019,0
2224,38055,0
2192,38032,0
2168,38039,0
2128,38063,0
2092,38036,0
2058,38029,0
2028,38060,0
2004,38033,0
1996,38050,0
1997,38067,0
2000,38034,0
2000,38055,0
2022,38072,0
2056,38054,0
2072,38052,0
2092,38042,0
2120,38067,0
2141,38038,0
2162,38035,0
2160,38044,0
2152,38068,0
2128,38055,0
2116,38053,0
2096,38064,0
2076,38076,0
2100,38040,0
2089,38023,0
2128,38076,0
2172,38031,0
2264,38046,0
2345,38068,0
2444,38043,0
2568,38031,0
2672,38065,0
2796,38044,0
2880,38048,0
3008,38082,0
3048,38053,0
3080,38052,0
3104,38073,0
3104,38064,0
3060,38052,0
2984,38043,0
2880,38076,0
2760,38050,0
2644,38042,0
2541,38077,0
2448,38052,0
2384,38045,0
2326,38073,0
2288,38061,0
2272,38059,0
2282,38052,0
2296,38050,0
2341,38048,0
2372,38056,0
2410,38045,0
2444,38080,0
2468,38062,0
2480,38038,0
2476,38096,0
2456,38062,0
2433,38028,0
2386,38080,0
2356,38066,0
2300,38042,0
2272,38080,0
2232,38066,0
2268,38035,0
2168,38081,0
2164,38062,0
2156,38069,0
2160,38078,0
2168,38063,0
2176,38062,0
2176,38088,0
2168,38056,0
2177,38062,0
2137,38086,0
2105,38074,0
2072,38069,0
2024,38064,0
1929,38094,0
1884,38072,0
1852,38073,0
1814,38078,0
1796,38063,0
1788,38040,0
1796,38085,0
1806,38058,0
1840,38049,0
1869,38100,0
1908,38065,0
1942,38057,0
1970,38090,0
2004,38073,0
2016,38067,0
2036,38092,0
2024,38072,0
2014,38073,0
1988,38078,0
1960,38070,0
1914,38079,0
1888,38091,0
1852,38078,0
1828,38067,0
1813,38063,0
1808,38092,0
1797,38065,0
1836,38051,0
1860,38084,0
1892,38064,0
1924,38052,0
1962,38095,0
1992,38070,0
2018,38097,0
2036,38060,0
2047,38093,0
2045,38080,0
2032,38067,0
2000,38090,0
1972,38070,0
1936,38064,0
1900,38073,0
1868,38079,0
1855,38059,0
1836,38055,0
1840,38085,0
1844,38057,0
1856,38044,0
1888,38078,0
1924,38064,0
1968,38042,0
1996,38086,0
2016,38057,0
2056,38060,0
2057,38079,0
2068,38067,0
2060,38065,0
2044,38081,0
2012,38051,0
1997,38069,0
1956,38088,0
1920,38077,0
1888,38071,0
1864,38079,0
1856,38070,0
1854,38077,0
1864,38071,0
1880,38079,0
1914,38080,0
1941,38067,0
1978,38053,0
2006,38098,0
2056,38074,0
2053,38070,0
2080,38090,0
2087,38073,0
2080,38068,0
2060,38083,0
2032,38079,0
2000,38081,0
1976,38107,0
1936,38069,0
1912,38070,0
1884,38105,0
1872,38085,0
1866,38089,0
1888,38101,0
1904,38107,0
1930,38091,0
1960,38075,0
1985,38119,0
2036,38092,0
2052,38079,0
2080,38116,0
2102,38084,0
2090,38072,0
2080,38096,0
2066,38070,0
2044,38101,0
2002,38098,0
1964,38101,0
1936,38091,0
1904,38115,0
1882,38092,0
1866,38103,0
1864,38121,0
1876,38109,0
1892,38109,0
1932,38096,0
1962,38122,0
1996,38104,0
2032,38082,0
2064,38121,0
2096,38102,0
2112,38092,0
2112,38140,0
2108,38111,0
2097,38091,0
2074,38136,0
2034,38106,0
2002,38099,0
1970,38127,0
1936,38104,0
1932,38104,0
1905,38129,0
1928,38105,0
1914,38120,0
1936,38142,0
1960,38092,0
1988,38112,0
2024,38115,0
2056,38122,0
2088,38112,0
2104,38124,0
2120,38140,0
2128,38123,0
2112,38111,0
2104,38108,0
2076,38136,0
2034,38102,0
2004,38088,0
1964,38136,0
1944,38114,0
1924,38104,0
1912,38132,0
1916,38121,0
1920,38117,0
1946,38144,0
1972,38126,0
2020,38103,0
2058,38129,0
2088,38121,0
2112,38125,0
2128,38141,0
2142,38119,0
2148,38117,0
2136,38123,0
2112,38144,0
2080,38113,0
2060,38114,0
2018,38107,0
1978,38115,0
1944,38130,0
1932,38113,0
1924,38111,0
1919,38109,0
1932,38112,0
1956,38125,0
1994,38122,0
2018,38101,0
2052,38086,0
2095,38131,0
2118,38096,0
2144,38079,0
2154,38130,0
2160,38102,0
2146,38080,0
2128,38116,0
2104,38092,0
2064,38096,0
2024,38121,0
1976,38096,0
1946,38097,0
1924,38106,0
1908,38102,0
1912,38096,0
1917,38108,0
1948,38098,0
1971,38090,0
1996,38072,0
2038,38102,0
2056,38084,0
2084,38083,0
2100,38078,0
2104,38097,0
2108,38088,0
2098,38111,0
2072,38105,0
2044,38069,0
2008,38059,0
1976,38098,0
1936,38070,0
1908,38061,0
1888,38086,0
1876,38069,0
1876,38059,0
1888,38077,0
1908,38058,0
1940,38052,0
1976,38076,0
2008,38046,0
2044,38057,0
2064,38079,0
2082,38058,0
2112,38047,0
2112,38064,0
2112,38064,0
2064,38047,0
2053,38019,0
1994,38063,0
1960,38045,0
1928,38038,0
1900,38071,0
1896,38038,0
1872,38051,0
1892,38050,0
1904,38048,0
1924,38058,0
1956,38065,0
1988,38059,0
2024,38034,0
2047,38047,0
2080,38055,0
2098,38039,0
2106,38029,0
2108,38054,0
2102,38035,0
2080,38027,0
2040,38060,0
2024,38051,0
1976,38034,0
1950,38024,0
1912,38055,0
1900,38022,0
1896,38005,0
1904,38055,0
1908,38026,0
1939,38005,0
1973,38041,0
2002,38023,0
2026,38012,0
2064,38039,0
2092,38028,0
2112,38022,0
2120,38044,0
2120,38028,0
2104,38036,0
2084,38021,0
2052,38013,0
2026,38013,0
1980,38023,0
1946,38034,0
1928,38027,0
1894,38022,0
1896,38012,0
1904,38044,0
1916,38021,0
1959,38004,0
1978,38044,0
2012,38017,0
2042,37999,0
2080,38040,0
2100,38017,0
2124,38001,0
2128,38036,0
2136,38011,0
2112,38009,0
2096,38030,0
2069,38017,0
2020,38008,0
1988,38031,0
1956,38015,0
1924,38016,0
1920,38036,0
1922,38017,0
1928,38016,0
1952,38030,0
1994,38015,0
2024,38022,0
2052,38038,0
2096,38016,0
2112,38006,0
2120,37997,0
2132,38050,0
2120,38001,0
2109,37989,0
2088,38037,0
2042,38008,0
2027,38005,0
1996,38031,0
1968,38011,0
1944,38015,0
1928,38032,0
1932,38007,0
1936,38008,0
1952,38034,0
1980,38006,0
2024,38012,0
2054,38023,0
2093,38036,0
2130,38012,0
2149,38025,0
2162,38036,0
2169,38010,0
2162,37996,0
2149,38033,0
2136,38004,0
2112,38007,0
2072,38027,0
2037,37992,0
2004,38007,0
1972,38013,0
1952,38022,0
1956,38023,0
1956,38004,0
1968,38023,0
1996,38018,0
2028,38005,0
2052,38005,0
2088,38031,0
2130,37997,0
2144,37993,0
2176,38032,0
2172,38011,0
2168,37983,0
2144,38027,0
2132,37999,0
2096,38004,0
2076,38016,0
2040,38001,0
2016,38009,0
1980,38022,0
1970,37993,0
1969,38002,0
1968,38002,0
2000,38023,0
2010,37990,0
2038,37979,0
2072,38012,0
2120,37993,0
2152,37979,0
2156,37992,0
2180,38013,0
2178,38016,0
2176,37998,0
2160,38000,0
2136,38026,0
2112,37995,0
2080,37980,0
2056,38027,0
2024,37984,0
2004,37987,0
1983,38021,0
1992,38002,0
1986,37996,0
2004,38020,0
2040,37986,0
2056,37999,0
2084,38006,0
2124,38024,0
2144,37995,0
2164,37978,0
2188,38016,0
2194,37990,0
2192,37977,0
2168,38017,0
2142,37993,0
2128,37979,0
2076,38013,0
2034,37976,0
2016,37994,0
1988,38017,0
1972,37987,0
1978,37996,0
1968,37988,0
1996,37995,0
2013,37991,0
2042,37994,0
2090,38005,0
2116,37991,0
2144,37991,0
2168,38004,0
2176,38010,0
2210,37999,0
2184,37992,0
2160,38025,0
2140,37987,0
2096,37968,0
2072,38020,0
2033,37993,0
2004,37986,0
1992,38012,0
1972,37996,0
1976,37982,0
1978,38019,0
2008,37989,0
2030,37991,0
2073,38012,0
2100,37999,0
2136,37998,0
2176,37999,0
2192,37996,0
2212,37984,0
2220,37986,0
2200,38009,0
2196,37995,0
2152,37996,0
2122,37977,0
2088,38013,0
2064,37991,0
2016,37976,0
2000,38005,0
1986,37979,0
1976,37999,0
1988,38004,0
2004,38004,0
2026,37982,0
2060,37982,0
2096,38012,0
2128,37985,0
2164,37972,0
2174,38002,0
2196,37987,0
2200,37983,0
2184,38013,0
2164,37990,0
2152,37990,0
2114,38011,0
2080,37991,0
2057,37985,0
2021,37984,0
2013,38016,0
1990,37989,0
1996,37963,0
2004,38011,0
2028,37986,0
2060,37995,0
2072,37993,0
2102,38019,0
2144,37996,0
2164,37993,0
2184,37992,0
2196,38002,0
2196,37989,0
2188,37967,0
2174,38009,0
2140,37990,0
2104,37980,0
2070,38022,0
2036,37987,0
2008,37993,0
1980,38007,0
1968,37990,0
1982,37992,0
1984,38014,0
2009,38006,0
2040,37986,0
2068,37977,0
2100,38015,0
2138,37990,0
2168,37988,0
2192,38010,0
2200,37985,0
2230,37984,0
2192,38009,0
2168,37983,0
2152,37995,0
2116,38017,0
2088,37987,0
2056,37984,0
2020,38017,0
2008,38007,0
1986,38000,0
1990,37992,0
2010,37971,0
2024,38020,0
2047,37991,0
2082,37979,0
2114,38012,0
2152,37992,0
2176,37992,0
2196,38012,0
2212,37992,0
2208,37991,0
2204,38015,0
2172,38002,0
2152,37994,0
2112,38009,0
2084,38022,0
2040,37996,0
2008,37978,0
1996,38016,0
1996,37986,0
1984,37993,0
2006,38010,0
2034,37983,0
2048,37993,0
2086,38023,0
2120,37992,0
2149,37990,0
2176,38015,0
2192,38001,0
2210,37999,0
2208,37968,0
2192,37996,0
2184,38012,0
2144,37998,0
2116,37964,0
2076,38004,0
2046,37986,0
2010,37992,0
1996,38002,0
1992,37984,0
2000,37983,0
2012,38004,0
2032,37986,0
2064,37984,0
2090,38000,0
2124,38006,0
2160,37988,0
2188,37969,0
2200,38012,0
2224,37981,0
2226,37964,0
2210,38009,0
2188,37980,0
2154,37966,0
2124,38003,0
2098,37964,0
2054,37983,0
2036,38000,0
2020,37970,0
2008,37979,0
2008,37961,0
2020,37976,0
2047,37981,0
2074,37987,0
2120,37962,0
2138,38005,0
2178,37976,0
2202,37981,0
2216,37993,0
2229,37973,0
2228,37985,0
2217,37993,0
2192,37981,0
2162,37974,0
2124,37991,0
2092,37988,0
2068,37971,0
2032,37965,0
2008,38004,0
2008,37967,0
2016,37950,0
2020,37991,0
2058,37973,0
2086,37964,0
2120,37992,0
2149,37977,0
2208,37983,0
2217,37999,0
2232,37971,0
2248,37975,0
2236,37993,0
2194,37995,0
2160,37994,0
2124,37980,0
2086,37990,0
2047,37999,0
2020,37952,0
2008,37997,0
2000,37971,0
2005,37966,0
2016,37999,0
2032,37981,0
2080,37981,0
2108,38001,0
2154,37983,0
2184,37979,0
2236,38001,0
2256,37994,0
2272,37989,0
2236,37969,0
2280,38003,0
2264,37980,0
2240,37964,0
2210,37998,0
2188,37974,0
2152,37969,0
2128,38010,0
2112,37983,0
2096,37991,0
2101,38010,0
2116,37991,0
2152,37993,0
2157,37999,0
2188,38008,0
2220,38000,0
2241,37987,0
2256,38008,0
2276,37986,0
2276,37986,0
2268,37996,0
2238,38010,0
2212,37984,0
2176,38000,0
2136,38015,0
2098,37989,0
2060,37992,0
2036,38013,0
2018,38016,0
2012,37986,0
2016,37985,0
2036,38022,0
2047,38001,0
2096,37981,0
2124,38018,0
2156,37993,0
2182,37995,0
2210,38024,0
2216,37994,0
2220,38004,0
2234,38012,0
2192,37999,0
2160,37991,0
2120,38020,0
2092,38019,0
2050,38004,0
2016,38008,0
1981,37984,0
1968,38011,0
1960,38021,0
1968,38013,0
1980,37994,0
2016,38038,0
2040,38016,0
2080,38011,0
2112,38032,0
2156,38004,0
2203,38020,0
2186,38043,0
2200,38006,0
2184,38017,0
2196,38025,0
2152,38013,0
2132,38006,0
2084,38028,0
2046,38035,0
2012,38006,0
2000,37986,0
1976,38028,0
1962,38015,0
1985,38003,0
1996,38031,0
2028,38013,0
2050,38006,0
2082,38035,0
2112,38021,0
2144,38012,0
2164,38032,0
2180,37999,0
2184,38022,0
2168,38021,0
2160,38006,0
2140,38007,0
2101,38015,0
2078,37999,0
2044,38042,0
2012,38008,0
1984,37998,0
1968,38032,0
1968,38010,0
1980,38014,0
2000,38035,0
2020,38014,0
2044,38020,0
2082,38022,0
2104,38036,0
2116,38012,0
2128,38011,0
2138,38044,0
2136,38023,0
2120,38020,0
2096,38043,0
2066,38024,0
2036,38021,0
1924,38038,0
1985,38020,0
1952,38026,0
1940,38043,0
1938,38030,0
1952,38034,0
1972,38049,0
2024,38039,0
2096,38021,0
2184,38025,0
2256,38055,0
2356,38060,0
2456,38043,0
2554,38025,0
2648,38055,0
2732,38037,0
2824,38044,0
2858,38063,0
2900,38042,0
2900,38044,0
2896,38066,0
2858,38036,0
2812,38048,0
2764,38067,0
2696,38054,0
2636,38059,0
2568,38056,0
2520,38079,0
2476,38051,0
2438,38039,0
2436,38080,0
2405,38051,0
2346,38050,0
2412,38079,0
2418,38059,0
2432,38062,0
2432,38080,0
2432,38066,0
2408,38057,0
2396,38061,0
2372,38053,0
2348,38072,0
2320,38069,0
2298,38071,0
2276,38059,0
2260,38091,0
2256,38074,0
2264,38058,0
2284,38091,0
2295,38069,0
2320,38068,0
2312,38100,0
2308,38072,0
2322,38068,0
2320,38090,0
2288,38077,0
2252,38077,0
2212,38076,0
2160,38102,0
2092,38071,0
2048,38064,0
1988,38101,0
1925,38074,0
1884,38069,0
1856,38095,0
1837,38075,0
1836,38061,0
1844,38095,0
1866,38080,0
1898,38073,0
1888,38051,0
1954,38068,0
1985,38073,0
2006,38078,0
2024,38069,0
2040,38071,0
2028,38060,0
2016,38105,0
1992,38072,0
1964,38070,0
1942,38098,0
1904,38075,0
1872,38069,0
1860,38091,0
1848,38074,0
1840,38072,0
1856,38093,0
1856,38094,0
1888,38069,0
1922,38063,0
1952,38113,0
1996,38083,0
2026,38069,0
2048,38100,0
2052,38080,0
2056,38078,0
1976,38102,0
2036,38094,0
2016,38088,0
1992,38114,0
1946,38090,0
1921,38090,0
1888,38087,0
1876,38108,0
1876,38098,0
1873,38089,0
1888,38124,0
1919,38086,0
1944,38102,0
1974,38119,0
2010,38106,0
2037,38098,0
2068,38097,0
2100,38130,0
2108,38101,0
2108,38077,0
2088,38130,0
2076,38109,0
2056,38087,0
2016,38129,0
1984,38106,0
1956,38106,0
1946,38131,0
1924,38114,0
1902,38112,0
1920,38135,0
1914,38122,0
1940,38131,0
1961,38120,0
2016,38130,0
2040,38122,0
2068,38111,0
2100,38137,0
2128,38127,0
2164,38139,0
2136,38127,0
2130,38153,0
2104,38137,0
2076,38118,0
2038,38151,0
2008,38133,0
1976,38113,0
1950,38144,0
1928,38126,0
1928,38128,0
1936,38158,0
1946,38125,0
1984,38131,0
2004,38157,0
2040,38143,0
2068,38143,0
2104,38134,0
2128,38159,0
2152,38133,0
2164,38121,0
2168,38163,0
2156,38141,0
2129,38129,0
2102,38162,0
2068,38135,0
2037,38142,0
2008,38169,0
1982,38138,0
1964,38149,0
1960,38171,0
1984,38161,0
2008,38157,0
2036,38147,0
2064,38169,0
2104,38142,0
2133,38175,0
2156,38156,0
2181,38140,0
2188,38174,0
2192,38151,0
2188,38153,0
2172,38186,0
2144,38145,0
2112,38149,0
2080,38177,0
2056,38166,0
2020,38164,0
1996,38183,0
2004,38164,0
2012,38167,0
2032,38195,0
2048,38180,0
2080,38169,0
2112,38172,0
2169,38187,0
2176,38174,0
2233,38153,0
2230,38200,0
2244,38167,0
2240,38157,0
2229,38198,0
2212,38170,0
2178,38218,0
2140,38197,0
2120,38175,0
2086,38170,0
2064,38191,0
2060,38194,0
2044,38177,0
2052,38181,0
2060,38205,0
2084,38197,0
2124,38189,0
2160,38183,0
2188,38204,0
2224,38188,0
2252,38163,0
2280,38208,0
2276,38188,0
2289,38165,0
2273,38212,0
2248,38182,0
2224,38168,0
2208,38208,0
2176,38192,0
2130,38194,0
2112,38209,0
2080,38182,0
2081,38187,0
2082,38207,0
2096,38185,0
2116,38192,0
2144,38201,0
2176,38210,0
2200,38218,0
2236,38191,0
2254,38199,0
2272,38177,0
2274,38184,0
2280,38169,0
2264,38214,0
2244,38180,0
2208,38186,0
2170,38215,0
2140,38177,0
2110,38171,0
2080,38213,0
2064,38178,0
2060,38180,0
2056,38201,0
2076,38182,0
2104,38187,0
2112,38182,0
2152,38195,0
2172,38175,0
2204,38170,0
2230,38191,0
2244,38168,0
2252,38153,0
2242,38191,0
2260,38163,0
2210,38160,0
2181,38186,0
2152,38162,0
2114,38173,0
2080,38190,0
2047,38149,0
2024,38170,0
2020,38173,0
2018,38148,0
2036,38165,0
2047,38133,0
2080,38163,0
2110,38150,0
2162,38142,0
2168,38170,0
2208,38144,0
2226,38141,0
2228,38166,0
2228,38150,0
2200,38139,0
2178,38150,0
2148,38154,0
2122,38141,0
2076,38151,0
2047,38168,0
2016,38131,0
2000,38117,0
2000,38167,0
2008,38129,0
2024,38122,0
2054,38155,0
2104,38123,0
2116,38140,0
2153,38146,0
2176,38130,0
2216,38134,0
2232,38161,0
2228,38146,0
2220,38136,0
2204,38124,0
2188,38157,0
2156,38138,0
2128,38130,0
2088,38146,0
2060,38130,0
2036,38123,0
2024,38146,0
2018,38123,0
2032,38126,0
2045,38155,0
2084,38131,0
2112,38127,0
2168,38138,0
2188,38151,0
2216,38123,0
2232,38117,0
2252,38156,0
2260,38136,0
2256,38124,0
2242,38147,0
2210,38118,0
2176,38123,0
2132,38155,0
2113,38124,0
2068,38130,0
2038,38145,0
2040,38131,0
2028,38128,0
2032,38143,0
2046,38139,0
2084,38142,0
2116,38138,0
2148,38144,0
2188,38129,0
2176,38112,0
2232,38145,0
2252,38132,0
2260,38131,0
2244,38149,0
2226,38125,0
2207,38134,0
2164,38151,0
2137,38134,0
2100,38138,0
2064,38145,0
2044,38142,0
2032,38134,0
2032,38145,0
2044,38158,0
2056,38128,0
2088,38116,0
2116,38160,0
2145,38132,0
2188,38114,0
2208,38164,0
2232,38129,0
2246,38129,0
2256,38153,0
2256,38131,0
2244,38135,0
2224,38161,0
2178,38133,0
2148,38149,0
2110,38132,0
2080,38154,0
2064,38147,0
2038,38135,0
2036,38133,0
2045,38159,0
2072,38140,0
2096,38136,0
2124,38159,0
2163,38134,0
2192,38136,0
2232,38156,0
2252,38151,0
2264,38131,0
2272,38120,0
2272,38161,0
2250,38130,0
2224,38125,0
2184,38160,0
2156,38138,0
2129,38132,0
2080,38167,0
2056,38152,0
2042,38133,0
2042,38158,0
2068,38143,0
2090,38137,0
2104,38159,0
2140,38143,0
2170,38142,0
2196,38136,0
2220,38173,0
2250,38157,0
2272,38153,0
2272,38153,0
2256,38153,0
2244,38138,0
2208,38163,0
2180,38164,0
2144,38147,0
2112,38139,0
2080,38170,0
2047,38148,0
2044,38120,0
2044,38174,0
2056,38153,0
2080,38134,0
2104,38163,0
2136,38149,0
2160,38147,0
2192,38175,0
2228,38145,0
2248,38148,0
2266,38164,0
2264,38164,0
2248,38152,0
2258,38165,0
2209,38176,0
2178,38151,0
2160,38142,0
2116,38174,0
2088,38145,0
2068,38140,0
2058,38151,0
2068,38163,0
2072,38169,0
2096,38162,0
2130,38180,0
2164,38152,0
2200,38163,0
2224,38179,0
2252,38178,0
2278,38159,0
2300,38140,0
2280,38175,0
2272,38151,0
2250,38147,0
2232,38185,0
2184,38153,0
2152,38158,0
2104,38184,0
2080,38173,0
2047,38155,0
2048,38173,0
2053,38173,0
2064,38160,0
2086,38145,0
2112,38195,0
2168,38161,0
2179,38151,0
2212,38174,0
2250,38154,0
2261,38159,0
2292,38183,0
2276,38153,0
2272,38151,0
2256,38170,0
2218,38152,0
2194,38149,0
2144,38184,0
2116,38154,0
2080,38143,0
2047,38175,0
2044,38157,0
2044,38150,0
2065,38179,0
2088,38165,0
2112,38158,0
2136,38155,0
2176,38176,0
2216,38152,0
2244,38132,0
2256,38164,0
2268,38155,0
2268,38134,0
2272,38165,0
2248,38138,0
2220,38139,0
2196,38169,0
2156,38146,0
2120,38150,0
2094,38173,0
2072,38148,0
2058,38145,0
2065,38160,0
2088,38134,0
2114,38140,0
2148,38151,0
2184,38127,0
2220,38143,0
2244,38138,0
2268,38167,0
2276,38133,0
2272,38139,0
2264,38168,0
2250,38137,0
2228,38142,0
2196,38157,0
2160,38161,0
2124,38136,0
2100,38122,0
2080,38156,0
2064,38129,0
2068,38119,0
2080,38167,0
2106,38128,0
2148,38129,0
2156,38152,0
2192,38137,0
2216,38137,0
2244,38152,0
2293,38144,0
2276,38134,0
2272,38133,0
2268,38154,0
2248,38135,0
2208,38120,0
2172,38134,0
2145,38137,0
2116,38104,0
2086,38131,0
2064,38142,0
2068,38135,0
2076,38139,0
2072,38145,0
2104,38159,0
2140,38130,0
2184,38109,0
2205,38147,0
2224,38122,0
2256,38126,0
2264,38143,0
2280,38116,0
2280,38135,0
2256,38147,0
2234,38125,0
2200,38135,0
2168,38153,0
2128,38144,0
2097,38130,0
2074,38136,0
2064,38151,0
2052,38125,0
2060,38119,0
2094,38154,0
2106,38128,0
2152,38118,0
2186,38151,0
2220,38125,0
2252,38124,0
2280,38140,0
2290,38135,0
2300,38127,0
2308,38135,0
2274,38128,0
2252,38132,0
2224,38149,0
2184,38160,0
2136,38143,0
2100,38124,0
2090,38161,0
2056,38132,0
2060,38113,0
2064,38154,0
2080,38142,0
2082,38132,0
2128,38155,0
2168,38130,0
2192,38140,0
2224,38160,0
2248,38132,0
2262,38141,0
2276,38149,0
2268,38173,0
2250,38141,0
2226,38125,0
2209,38160,0
2165,38138,0
2136,38128,0
2106,38159,0
2084,38137,0
2060,38129,0
2046,38149,0
2068,38150,0
2088,38159,0
2108,38150,0
2152,38161,0
2180,38136,0
2220,38123,0
2244,38174,0
2276,38139,0
2370,38134,0
2294,38174,0
2284,38142,0
2272,38149,0
2242,38171,0
2216,38138,0
2176,38153,0
2144,38164,0
2108,38161,0
2080,38140,0
2076,38142,0
2060,38168,0
2069,38149,0
2101,38130,0
2128,38163,0
2152,38135,0
2190,38132,0
2230,38162,0
2256,38141,0
2296,38141,0
2313,38159,0
2322,38147,0
2304,38138,0
2292,38134,0
2256,38151,0
2217,38163,0
2192,38154,0
2154,38165,0
2116,38145,0
2092,38153,0
2076,38169,0
2084,38155,0
2084,38140,0
2120,38152,0
2140,38177,0
2176,38144,0
2212,38130,0
2248,38168,0
2296,38144,0
2316,38147,0
2344,38165,0
2352,38146,0
2356,38149,0
2384,38178,0
2337,38154,0
2312,38146,0
2284,38177,0
2254,38148,0
2249,38158,0
2203,38154,0
2189,38171,0
2192,38145,0
2192,38145,0
2208,38194,0
2224,38157,0
2264,38178,0
2292,38186,0
2330,38162,0
2346,38153,0
2360,38158,0
2388,38188,0
2388,38163,0
2368,38162,0
2344,38192,0
2321,38178,0
2289,38166,0
2240,38173,0
2200,38198,0
2160,38174,0
2132,38158,0
2108,38194,0
2108,38167,0
2112,38150,0
2136,38199,0
2156,38172,0
2188,38165,0
2219,38197,0
2248,38172,0
2276,38176,0
2284,38187,0
2324,38168,0
2307,38173,0
2294,38173,0
2276,38200,0
2252,38164,0
2208,38160,0
2164,38175,0
2174,38181,0
2094,38184,0
2076,38174,0
2060,38202,0
2056,38175,0
2072,38183,0
2076,38187,0
2106,38194,0
2140,38175,0
2184,38163,0
2205,38195,0
2252,38172,0
2272,38163,0
2288,38185,0
2284,38178,0
2280,38165,0
2258,38197,0
2228,38169,0
2200,38177,0
2162,38188,0
2136,38198,0
2104,38175,0
2080,38157,0
2066,38200,0
2058,38171,0
2072,38178,0
2088,38191,0
2114,38177,0
2152,38167,0
2180,38199,0
2210,38171,0
2232,38180,0
2256,38185,0
2276,38191,0
2272,38198,0
2276,38188,0
2252,38197,0
2228,38183,0
2190,38183,0
2160,38201,0
2122,38192,0
2096,38184,0
2080,38161,0
2076,38207,0
2064,38178,0
2068,38165,0
2104,38199,0
2120,38178,0
2152,38175,0
2180,38199,0
2212,38174,0
2228,38188,0
2248,38200,0
2260,38174,0
2250,38183,0
2233,38188,0
2212,38201,0
2184,38175,0
2160,38162,0
2124,38203,0
2096,38179,0
2068,38181,0
2048,38205,0
2040,38195,0
2046,38184,0
2076,38189,0
2104,38199,0
2162,38199,0
2222,38184,0
2312,38160,0
2384,38202,0
2464,38186,0
2557,38170,0
2640,38201,0
2727,38185,0
2776,38185,0
2840,38209,0
2860,38188,0
2864,38183,0
2836,38195,0
2816,38209,0
2760,38189,0
2708,38173,0
2644,38210,0
2596,38186,0
2533,38173,0
2468,38214,0
2424,38185,0
2376,38187,0
2376,38215,0
2354,38194,0
2370,38189,0
2404,38210,0
2432,38203,0
2468,38207,0
2476,38208,0
2472,38204,0
2480,38186,0
2476,38212,0
2456,38187,0
2444,38191,0
2431,38211,0
2416,38212,0
2404,38194,0
2404,38172,0
2404,38215,0
2394,38185,0
2416,38186,0
2402,38204,0
2420,38188,0
2408,38193,0
2408,38214,0
2376,38187,0
2372,38192,0
2352,38207,0
2320,38189,0
2261,38182,0
2217,38196,0
2154,38222,0
2104,38184,0
2060,38165,0
2034,38212,0
2000,38192,0
1984,38189,0
1984,38204,0
1992,38182,0
2006,38207,0
2033,38167,0
2060,38181,0
2080,38207,0
2108,38189,0
2120,38182,0
2136,38201,0
2128,38184,0
2112,38179,0
2088,38199,0
2064,38183,0
2021,38180,0
1992,38199,0
1962,38194,0
1948,38173,0
1940,38163,0
1920,38190,0
1908,38174,0
1938,38169,0
1948,38193,0
2008,38179,0
2032,38186,0
2061,38192,0
2096,38183,0
2128,38183,0
2149,38169,0
2164,38205,0
2176,38181,0
2166,38161,0
2144,38200,0
2116,38179,0
2092,38180,0
2030,38192,0
2024,38162,0
1996,38188,0
1984,38184,0
1976,38197,0
1976,38192,0
2000,38176,0
2028,38190,0
2060,38209,0
2100,38186,0
2128,38170,0
2173,38207,0
2196,38188,0
2216,38188,0
2224,38212,0
2240,38206,0
2224,38192,0
2212,38179,0
2178,38218,0
2144,38188,0
2124,38180,0
2088,38215,0
2064,38194,0
2060,38205,0
2041,38226,0
2040,38201,0
2060,38200,0
2090,38209,0
2113,38233,0
2148,38199,0
2189,38176,0
2224,38226,0
2244,38216,0
2088,38206,0
2093,38194,0
2107,38240,0
2138,38219,0
2176,38198,0
2202,38233,0
2240,38213,0
2264,38210,0
2304,38233,0
2336,38204,0
2324,38210,0
2328,38224,0
2316,38212,0
2291,38210,0
2260,38210,0
2226,38238,0
2194,38207,0
2184,38193,0
2133,38229,0
2133,38215,0
2120,38197,0
2125,38231,0
2144,38207,0
2164,38208,0
2192,38229,0
2234,38209,0
2268,38218,0
2304,38225,0
2334,38229,0
2352,38206,0
2360,38195,0
2357,38244,0
2336,38207,0
2308,38207,0
2288,38207,0
2256,38207,0
2212,38248,0
2186,38226,0
2164,38226,0
2148,38226,0
2144,38226,0
2152,38226,0
2168,38226,0
2195,38216,0
2232,38228,0
2264,38228,0
2288,38228,0
2320,38228,0
2344,38228,0
2362,38228,0
2364,38218,0
2362,38219,0
2348,38219,0
2328,38219,0
2296,38219,0
2260,38219,0
2240,38219,0
2196,38219,0
2186,38226,0
2152,38226,0
2152,38226,0
2160,38226,0
2176,38226,0
2198,38226,0
2212,38243,0
2260,38212,0
2300,38228,0
2322,38243,0
2344,38222,0
2364,38219,0
2368,38236,0
2358,38244,0
2344,38227,0
2314,38219,0
2280,38245,0
2249,38218,0
2216,38211,0
2180,38242,0
2156,38214,0
2146,38198,0
2132,38239,0
2136,38216,0
2156,38219,0
2176,38226,0
2204,38215,0
2236,38221,0
2296,38243,0
2292,38234,0
2324,38216,0
2348,38216,0
2338,38232,0
2330,38205,0
2164,38200,0
2136,38207,0
2116,38231,0
2101,38220,0
2100,38208,0
2101,38233,0
2120,38199,0
2144,38203,0
2172,38225,0
2208,38209,0
2236,38214,0
2268,38206,0
2288,38220,0
2300,38208,0
2302,38188,0
2296,38220,0
2268,38196,0
2244,38181,0
2210,38218,0
2178,38199,0
2136,38203,0
2104,38227,0
2096,38187,0
2072,38191,0
2080,38200,0
2084,38204,0
2108,38196,0
2134,38178,0
2174,38214,0
2216,38181,0
2240,38168,0
2264,38207,0
2284,38201,0
2288,38203,0
2300,38190,0
2296,38199,0
2272,38171,0
2244,38186,0
2220,38204,0
2184,38176,0
2144,38174,0
2120,38201,0
2100,38186,0
2093,38172,0
2085,38167,0
2096,38190,0
2128,38169,0
2144,38152,0
2176,38196,0
2224,38170,0
2236,38167,0
2280,38195,0
2302,38183,0
2320,38167,0
2346,38192,0
2324,38184,0
2304,38175,0
2272,38175,0
2264,38188,0
2204,38167,0
2176,38138,0
2144,38187,0
2128,38174,0
2104,38199,0
2114,38162,0
2144,38185,0
2152,38169,0
2196,38184,0
2224,38166,0
2248,38167,0
2276,38171,0
2296,38182,0
2302,38165,0
2302,38150,0
2300,38183,0
2276,38153,0
2256,38154,0
2212,38177,0
2194,38162,0
2154,38165,0
2124,38194,0
2112,38180,0
2090,38162,0
2096,38172,0
2112,38187,0
2140,38157,0
2152,38152,0
2196,38191,0
2226,38174,0
2280,38160,0
2290,38183,0
2304,38174,0
2322,38186,0
2324,38198,0
2306,38193,0
2284,38199,0
2248,38187,0
2220,38172,0
2180,38204,0
2152,38209,0
2116,38165,0
2104,38194,0
2092,38182,0
2016,38184,0
2108,38207,0
2126,38190,0
2159,38179,0
2192,38163,0
2228,38202,0
2256,38175,0
2292,38158,0
2302,38201,0
2320,38175,0
2316,38172,0
2300,38209,0
2240,38171,0
2264,38181,0
2230,38205,0
2192,38183,0
2148,38186,0
2116,38192,0
2088,38188,0
2080,38174,0
2076,38174,0
2088,38205,0
2122,38170,0
2153,38169,0
2184,38176,0
2212,38157,0
2250,38187,0
2272,38187,0
2290,38166,0
2302,38176,0
2303,38175,0
2296,38198,0
2276,38184,0
2246,38170,0
2214,38163,0
2188,38194,0
2144,38166,0
2116,38171,0
2098,38194,0
2104,38157,0
2096,38175,0
2108,38189,0
2128,38165,0
2160,38172,0
2192,38181,0
2226,38186,0
2256,38168,0
2276,38152,0
2304,38178,0
2316,38161,0
2341,38152,0
2296,38175,0
2278,38156,0
2264,38163,0
2224,38193,0
2184,38170,0
2144,38161,0
2116,38174,0
2098,38159,0
2088,38154,0
2090,38159,0
2104,38131,0
2124,38187,0
2150,38145,0
2184,38145,0
2220,38179,0
2252,38160,0
2279,38161,0
2296,38182,0
2312,38163,0
2296,38160,0
2280,38182,0
2260,38171,0
2232,38162,0
2204,38165,0
2160,38193,0
2136,38158,0
2120,38152,0
2096,38188,0
2088,38154,0
2096,38152,0
2105,38191,0
2152,38162,0
2160,38174,0
2188,38193,0
2224,38178,0
2257,38167,0
2277,38163,0
2292,38172,0
2296,38165,0
2290,38159,0
2266,38165,0
2256,38199,0
2216,38165,0
2180,38165,0
2152,38201,0
2116,38173,0
2096,38176,0
2072,38178,0
2080,38195,0
2084,38172,0
2096,38162,0
2114,38189,0
2152,38177,0
2176,38174,0
2216,38204,0
2240,38181,0
2264,38181,0
2288,38185,0
2304,38193,0
2320,38171,0
2280,38160,0
2256,38204,0
2220,38177,0
2212,38169,0
2148,38194,0
2118,38178,0
2090,38178,0
2073,38195,0
2064,38175,0
2064,38176,0
2084,38171,0
2108,38191,0
2132,38183,0
2168,38189,0
2192,38167,0
2224,38197,0
2244,38184,0
2268,38177,0
2280,38199,0
2268,38164,0
2255,38182,0
2232,38197,0
2209,38168,0
2174,38185,0
2144,38187,0
2108,38190,0
2088,38168,0
2076,38163,0
2064,38195,0
2076,38171,0
2092,38159,0
2112,38188,0
2144,38173,0
2176,38158,0
2200,38199,0
2224,38169,0
2272,38161,0
2264,38190,0
2266,38173,0
2268,38174,0
2253,38176,0
2220,38187,0
2196,38159,0
2156,38178,0
2112,38163,0
2088,38188,0
2064,38158,0
2058,38156,0
2060,38189,0
2072,38164,0
2080,38162,0
2100,38187,0
2131,38164,0
2164,38177,0
2204,38193,0
2236,38180,0
2256,38166,0
2260,38151,0
2280,38192,0
2264,38160,0
2248,38148,0
2224,38190,0
2200,38167,0
2161,38170,0
2128,38195,0
2120,38164,0
2072,38165,0
2056,38193,0
2054,38179,0
2057,38159,0
2080,38182,0
2108,38197,0
2144,38168,0
2168,38178,0
2196,38174,0
2232,38167,0
2248,38166,0
2276,38172,0
2268,38180,0
2268,38181,0
2260,38192,0
2232,38172,0
2200,38179,0
2160,38202,0
2128,38168,0
2100,38151,0
2068,38196,0
2056,38177,0
2056,38157,0
2060,38192,0
2072,38166,0
2100,38175,0
2132,38187,0
2164,38175,0
2208,38179,0
2234,38196,0
2268,38187,0
2280,38177,0
2280,38179,0
2296,38187,0
2256,38171,0
2220,38150,0
2200,38192,0
2160,38166,0
2128,38157,0
2092,38172,0
2072,38171,0
2046,38182,0
2052,38194,0
2060,38190,0
2076,38182,0
2098,38170,0
2129,38180,0
2174,38190,0
2196,38171,0
2232,38163,0
2256,38194,0
2268,38164,0
2274,38167,0
2258,38194,0
2256,38168,0
2228,38179,0
2202,38185,0
2156,38188,0
2132,38177,0
2100,38155,0
2073,38196,0
2074,38179,0
2064,38175,0
2068,38195,0
2092,38173,0
2138,38170,0
2146,38204,0
2178,38186,0
2224,38183,0
2244,38182,0
2266,38192,0
2272,38182,0
2272,38182,0
2249,38170,0
2216,38173,0
2184,38178,0
2148,38207,0
2124,38180,0
2092,38166,0
2068,38206,0
2096,38178,0
2070,38188,0
2080,38196,0
2112,38190,0
2128,38189,0
2160,38178,0
2192,38211,0
2232,38189,0
2256,38166,0
2276,38204,0
2296,38178,0
2288,38187,0
2280,38200,0
2272,38179,0
2232,38187,0
2192,38207,0
2192,38204,0
2137,38182,0
2102,38182,0
2088,38217,0
2080,38191,0
2084,38185,0
2108,38192,0
2114,38202,0
2152,38194,0
2184,38192,0
2234,38190,0
2277,38185,0
2308,38194,0
2332,38220,0
2352,38201,0
2358,38198,0
2356,38202,0
2348,38226,0
2320,38196,0
2288,38177,0
2252,38214,0
2228,38193,0
2192,38187,0
2168,38222,0
2154,38201,0
2152,38211,0
2164,38227,0
2184,38213,0
2210,38202,0
2228,38202,0
2256,38222,0
2274,38202,0
2320,38179,0
2312,38220,0
2304,38201,0
2304,38185,0
2288,38220,0
2264,38200,0
2224,38221,0
2180,38222,0
2152,38191,0
2116,38212,0
2096,38204,0
2064,38234,0
2064,38207,0
2056,38181,0
2065,38223,0
2082,38201,0
2120,38193,0
2138,38214,0
2168,38196,0
2200,38188,0
2216,38211,0
2232,38203,0
2240,38196,0
2252,38213,0
2220,38220,0
2200,38211,0
2160,38190,0
2140,38233,0
2112,38193,0
2064,38188,0
2028,38225,0
2020,38203,0
2017,38207,0
2017,38218,0
2028,38210,0
2064,38208,0
2080,38206,0
2116,38226,0
2144,38203,0
2174,38232,0
2220,38214,0
2236,38205,0
2248,38235,0
2236,38221,0
2236,38190,0
2204,38205,0
2178,38230,0
2136,38199,0
2108,38199,0
2073,38222,0
2040,38209,0
2024,38194,0
2008,38204,0
2016,38226,0
2016,38192,0
2047,38195,0
2074,38218,0
2104,38201,0
2140,38205,0
2186,38226,0
2198,38201,0
2222,38195,0
2234,38212,0
2236,38229,0
2240,38191,0
2204,38166,0
2174,38223,0
2136,38195,0
2106,38189,0
2069,38217,0
2034,38216,0
2016,38197,0
2012,38219,0
2000,38199,0
2008,38203,0
2020,38191,0
2040,38211,0
2064,38190,0
2088,38192,0
2116,38208,0
2160,38210,0
2168,38193,0
2170,38174,0
2192,38213,0
2162,38189,0
2160,38179,0
2128,38218,0
2104,38191,0
2084,38200,0
2084,38212,0
2080,38206,0
2112,38195,0
2162,38215,0
2232,38216,0
2316,38185,0
2408,38173,0
2520,38220,0
2644,38190,0
2748,38190,0
2860,38214,0
2954,38204,0
3040,38206,0
3052,38208,0
3066,38194,0
3064,38205,0
3020,38193,0
2952,38210,0
2852,38225,0
2748,38212,0
2632,38195,0
2516,38196,0
2430,38222,0
2366,38199,0
2309,38198,0
2276,38215,0
2272,38201,0
2284,38197,0
2312,38227,0
2342,38208,0
2392,38200,0
2424,38228,0
2466,38225,0
2488,38203,0
2524,38204,0
2520,38229,0
2496,38203,0
2458,38190,0
2416,38230,0
2368,38212,0
2324,38203,0
2278,38239,0
2240,38222,0
2212,38224,0
2196,38238,0
2168,38232,0
2168,38237,0
2175,38226,0
2188,38232,0
2184,38240,0
2196,38237,0
2188,38245,0
2248,38222,0
2168,38207,0
2130,38244,0
2092,38226,0
2067,38216,0
2004,38244,0
1960,38213,0
1910,38233,0
1872,38251,0
1840,38236,0
1820,38234,0
1810,38215,0
1810,38252,0
1832,38231,0
1845,38223,0
1878,38256,0
1912,38224,0
1960,38229,0
1986,38251,0
2012,38217,0
2038,38235,0
2042,38246,0
2040,38224,0
2033,38232,0
2009,38238,0
1984,38226,0
1932,38248,0
1912,38235,0
1888,38243,0
1860,38233,0
1840,38234,0
1840,38263,0
1840,38230,0
1864,38238,0
1890,38247,0
1924,38249,0
1955,38223,0
2016,38232,0
2032,38255,0
2058,38225,0
2080,38225,0
2080,38251,0
2076,38222,0
2056,38227,0
2036,38255,0
2018,38232,0
1980,38229,0
1948,38256,0
1925,38232,0
1900,38228,0
1889,38252,0
1888,38245,0
1904,38237,0
1921,38231,0
1952,38253,0
1988,38233,0
2016,38229,0
2056,38243,0
2072,38250,0
2104,38249,0
2132,38229,0
2116,38262,0
2120,38231,0
2100,38241,0
2084,38256,0
2044,38237,0
2024,38252,0
1980,38263,0
1954,38255,0
1928,38235,0
1928,38253,0
1920,38272,0
1928,38243,0
1952,38228,0
1978,38259,0
2012,38245,0
2040,38254,0
2066,38279,0
2112,38246,0
2134,38240,0
2144,38267,0
2154,38283,0
2142,38245,0
2149,38242,0
2106,38277,0
2080,38249,0
2052,38241,0
2012,38264,0
1960,38286,0
1944,38262,0
1956,38251,0
1949,38261,0
1974,38269,0
2004,38267,0
2028,38266,0
2064,38270,0
2104,38289,0
2130,38265,0
2156,38247,0
2189,38289,0
2178,38267,0
2184,38259,0
2152,38289,0
2144,38263,0
2100,38272,0
2068,38291,0
2028,38262,0
1992,38273,0
1980,38291,0
1960,38288,0
1956,38269,0
1970,38251,0
1989,38286,0
2016,38267,0
2054,38252,0
2081,38297,0
2120,38278,0
2148,38262,0
2180,38289,0
2200,38266,0
2200,38286,0
2188,38272,0
2164,38277,0
2148,38277,0
2112,38268,0
2074,38285,0
2056,38270,0
2024,38277,0
1996,38286,0
2000,38289,0
1988,38272,0
2000,38275,0
2034,38302,0
2068,38287,0
2084,38254,0
2136,38290,0
2154,38283,0
2192,38268,0
2216,38298,0
2226,38265,0
2248,38271,0
2234,38303,0
2212,38275,0
2188,38271,0
2168,38295,0
2114,38286,0
2100,38276,0
2056,38264,0
2032,38303,0
2026,38275,0
2026,38288,0
2032,38289,0
2047,38279,0
2080,38298,0
2120,38288,0
2144,38278,0
2180,38311,0
2212,38274,0
2244,38294,0
2248,38307,0
2248,38282,0
2240,38280,0
2224,38297,0
2204,38285,0
2174,38270,0
2132,38305,0
2096,38289,0
2072,38272,0
2056,38313,0
2036,38282,0
2032,38288,0
2044,38301,0
2064,38301,0
2088,38281,0
2128,38262,0
2160,38299,0
2202,38267,0
2220,38273,0
2268,38292,0
2269,38266,0
2260,38278,0
2256,38299,0
2240,38280,0
2204,38270,0
2170,38283,0
2136,38263,0
2104,38275,0
2076,38286,0
2046,38265,0
2032,38271,0
2028,38260,0
2052,38266,0
2046,38284,0
2080,38254,0
2112,38246,0
2148,38272,0
2165,38247,0
2200,38255,0
2224,38277,0
2232,38247,0
2232,38250,0
2224,38262,0
2200,38263,0
2168,38248,0
2138,38235,0
2112,38272,0
2072,38237,0
2038,38231,0
2020,38251,0
2008,38235,0
2018,38231,0
2016,38258,0
2036,38232,0
2064,38245,0
2116,38254,0
2122,38242,0
2144,38203,0
2170,38223,0
2194,38256,0
2204,38233,0
2196,38225,0
2188,38238,0
2168,38224,0
2144,38224,0
2108,38214,0
1960,38245,0
2046,38208,0
2026,38204,0
2004,38233,0
2000,38216,0
1992,38213,0
2020,38219,0
2058,38217,0
2072,38219,0
2096,38231,0
2148,38227,0
2160,38212,0
2200,38196,0
2248,38232,0
2236,38197,0
2242,38193,0
2220,38217,0
2212,38198,0
2164,38202,0
2141,38222,0
2112,38197,0
2076,38196,0
2048,38207,0
2024,38192,0
2017,38196,0
2016,38196,0
2021,38213,0
2047,38195,0
2080,38195,0
2112,38185,0
2146,38225,0
2180,38194,0
2210,38196,0
2232,38226,0
2244,38195,0
2248,38198,0
2240,38223,0
2212,38223,0
2188,38205,0
2152,38188,0
2128,38224,0
2088,38192,0
2056,38189,0
2036,38226,0
2024,38198,0
2026,38198,0
2050,38227,0
2058,38201,0
2092,38206,0
2154,38200,0
2160,38223,0
2196,38197,0
2228,38186,0
2252,38225,0
2250,38205,0
2258,38197,0
2226,38217,0
2212,38192,0
2184,38210,0
2152,38220,0
2120,38211,0
2084,38230,0
2064,38200,0
2040,38184,0
2034,38229,0
2036,38204,0
2055,38197,0
2072,38226,0
2112,38194,0
2144,38216,0
2168,38233,0
2196,38217,0
2228,38218,0
2234,38207,0
2244,38226,0
2244,38210,0
2240,38190,0
2214,38234,0
2184,38211,0
2149,38216,0
2114,38244,0
2102,38211,0
2058,38225,0
2048,38231,0
2032,38223,0
2032,38212,0
2054,38211,0
2084,38230,0
2104,38220,0
2146,38218,0
2174,38235,0
2208,38233,0
2232,38216,0
2256,38207,0
2264,38235,0
2260,38222,0
2245,38212,0
2228,38236,0
2188,38217,0
2169,38219,0
2120,38242,0
2096,38232,0
2052,38215,0
2034,38220,0
2040,38243,0
2042,38229,0
2047,38215,0
2076,38239,0
2104,38218,0
2144,38233,0
2185,38239,0
2208,38233,0
2234,38230,0
2284,38222,0
2258,38247,0
2266,38223,0
2250,38216,0
2232,38240,0
2197,38220,0
2154,38228,0
2124,38250,0
2080,38247,0
2086,38222,0
2046,38211,0
2040,38238,0
2044,38223,0
2058,38234,0
2084,38243,0
2112,38230,0
2148,38214,0
2192,38218,0
2210,38245,0
2248,38226,0
2252,38219,0
2288,38247,0
2272,38216,0
2244,38226,0
2226,38242,0
2192,38211,0
2152,38223,0
2121,38226,0
2088,38241,0
2064,38215,0
2050,38196,0
2044,38240,0
2044,38213,0
2080,38215,0
2088,38245,0
2128,38220,0
2152,38218,0
2204,38222,0
2240,38217,0
2249,38228,0
2246,38224,0
2244,38212,0
2228,38222,0
2208,38237,0
2192,38215,0
2140,38215,0
2106,38230,0
2072,38240,0
2045,38225,0
2032,38207,0
2032,38252,0
2032,38215,0
2056,38219,0
2072,38234,0
2104,38216,0
2140,38223,0
2172,38249,0
2216,38231,0
2232,38220,0
2248,38229,0
2258,38252,0
2242,38221,0
2216,38209,0
2220,38249,0
2168,38223,0
2132,38240,0
2096,38243,0
2068,38232,0
2048,38239,0
2020,38222,0
2022,38243,0
2042,38255,0
2037,38233,0
2066,38238,0
2096,38255,0
2128,38222,0
2184,38217,0
2196,38256,0
2220,38224,0
2236,38229,0
2253,38251,0
2240,38241,0
2240,38240,0
2212,38227,0
2184,38262,0
2140,38232,0
2108,38218,0
2076,38253,0
2047,38241,0
2040,38231,0
2042,38252,0
2048,38235,0
2064,38236,0
2092,38243,0
2124,38264,0
2177,38243,0
2188,38210,0
2220,38258,0
2240,38241,0
2250,38230,0
2260,38266,0
2242,38225,0
2232,38242,0
2208,38220,0
2168,38242,0
2148,38239,0
2112,38231,0
2076,38267,0
2040,38230,0
2040,38240,0
2016,38258,0
2026,38245,0
2048,38240,0
2068,38238,0
2096,38264,0
2128,38235,0
2176,38223,0
2192,38258,0
2220,38229,0
2228,38231,0
2232,38251,0
2212,38225,0
2216,38226,0
2194,38250,0
2160,38233,0
2125,38224,0
2084,38234,0
2052,38256,0
2029,38230,0
2020,38202,0
2018,38253,0
2032,38226,0
2049,38227,0
2072,38225,0
2116,38233,0
2144,38237,0
2172,38225,0
2192,38238,0
2226,38225,0
2244,38235,0
2245,38252,0
2244,38244,0
2208,38230,0
2192,38223,0
2157,38249,0
2116,38232,0
2088,38207,0
2047,38242,0
2036,38225,0
2020,38220,0
2016,38260,0
2028,38227,0
2044,38223,0
2068,38269,0
2108,38233,0
2148,38230,0
2176,38233,0
2216,38256,0
2228,38240,0
2264,38215,0
2246,38260,0
2236,38228,0
2220,38214,0
2180,38262,0
2154,38225,0
2120,38250,0
2076,38237,0
2047,38237,0
2030,38231,0
2028,38230,0
2024,38259,0
2034,38229,0
2047,38216,0
2080,38254,0
2116,38232,0
2148,38224,0
2182,38250,0
2196,38234,0
2248,38231,0
2236,38257,0
2248,38236,0
2230,38237,0
2272,38249,0
2180,38252,0
2148,38237,0
2120,38215,0
2080,38248,0
2053,38223,0
2030,38225,0
2022,38244,0
2020,38229,0
2028,38235,0
2045,38260,0
2080,38236,0
2120,38229,0
2154,38244,0
2184,38256,0
2196,38239,0
2212,38232,0
2224,38258,0
2226,38231,0
2216,38228,0
2190,38254,0
2160,38235,0
2128,38218,0
2104,38250,0
2068,38230,0
2032,38227,0
2016,38253,0
2004,38226,0
2010,38226,0
2036,38260,0
2044,38238,0
2068,38232,0
2106,38230,0
2136,38255,0
2172,38233,0
2193,38222,0
2224,38250,0
2242,38229,0
2232,38236,0
2224,38255,0
2206,38229,0
2200,38237,0
2148,38253,0
2116,38249,0
2080,38231,0
2053,38217,0
2037,38263,0
2025,38254,0
2038,38260,0
2047,38237,0
2069,38263,0
2100,38263,0
2133,38253,0
2170,38256,0
2192,38246,0
2224,38226,0
2240,38265,0
2256,38244,0
2266,38220,0
2244,38263,0
2230,38242,0
2196,38236,0
2176,38268,0
2132,38240,0
2096,38248,0
2076,38277,0
2072,38252,0
2064,38252,0
2092,38250,0
2096,38270,0
2114,38247,0
2154,38227,0
2178,38271,0
2216,38242,0
2248,38242,0
2266,38274,0
2288,38260,0
2306,38257,0
2296,38275,0
2276,38261,0
2200,38261,0
2224,38258,0
2256,38294,0
2266,38265,0
2288,38245,0
2308,38282,0
2304,38262,0
2293,38265,0
2280,38284,0
2268,38258,0
2218,38273,0
2198,38286,0
2160,38281,0
2128,38266,0
2092,38255,0
2080,38291,0
2068,38269,0
2069,38254,0
2076,38283,0
2098,38270,0
2122,38266,0
2149,38288,0
2178,38285,0
2202,38268,0
2225,38260,0
2232,38293,0
2236,38261,0
2248,38263,0
2232,38286,0
2208,38261,0
2180,38269,0
2100,38273,0
2076,38280,0
2047,38280,0
2040,38280,0
2028,38280,0
2042,38280,0
2060,38280,0
2074,38292,0
2110,38286,0
2136,38286,0
2172,38286,0
2212,38286,0
2228,38286,0
2258,38286,0
2256,38261,0
2256,38290,0
2232,38290,0
2218,38290,0
2180,38290,0
2148,38290,0
2121,38290,0
2082,38258,0
2068,38276,0
2050,38276,0
2032,38276,0
2052,38276,0
2067,38276,0
2096,38276,0
2118,38276,0
2156,38277,0
2184,38277,0
2220,38277,0
2228,38301,0
2246,38278,0
2256,38284,0
2246,38300,0
2238,38305,0
2212,38282,0
2177,38280,0
2144,38293,0
2108,38282,0
2074,38262,0
2044,38306,0
2031,38275,0
2008,38282,0
2000,38297,0
2008,38280,0
2020,38292,0
2047,38296,0
2088,38293,0
2104,38287,0
2136,38269,0
2168,38301,0
2196,38284,0
2213,38273,0
2212,38295,0
2202,38282,0
2186,38285,0
2180,38305,0
2336,38262,0
2420,38292,0
2520,38289,0
2620,38289,0
2736,38286,0
2836,38310,0
2928,38286,0
3006,38291,0
3080,38290,0
3100,38318,0
3104,38277,0
3104,38275,0
3032,38303,0
2960,38281,0
2832,38294,0
2736,38294,0
2620,38311,0
2527,38283,0
2432,38269,0
2356,38309,0
2304,38290,0
2284,38293,0
2261,38313,0
2272,38298,0
2308,38299,0
2338,38306,0
2404,38313,0
2437,38296,0
2472,38286,0
2500,38321,0
2522,38289,0
2516,38301,0
2480,38303,0
2444,38297,0
2404,38309,0
2362,38307,0
2314,38297,0
2266,38329,0
2212,38293,0
2181,38277,0
2160,38335,0
2134,38300,0
2128,38294,0
2127,38329,0
2136,38299,0
2144,38307,0
2136,38325,0
2144,38303,0
2132,38302,0
2124,38327,0
2104,38331,0
2068,38314,0
2044,38297,0
2004,38336,0
1960,38316,0
1920,38296,0
1876,38346,0
1862,38310,0
1829,38313,0
1820,38339,0
1813,38316,0
1828,38310,0
1849,38343,0
1876,38339,0
1897,38337,0
1932,38343,0
1966,38328,0
2000,38335,0
2020,38339,0
2028,38334,0
2032,38322,0
2028,38321,0
2008,38351,0
1988,38343,0
1948,38318,0
1923,38312,0
1889,38352,0
1864,38333,0
1848,38326,0
1832,38349,0
1836,38330,0
1848,38330,0
1872,38358,0
1902,38342,0
1936,38336,0
1972,38344,0
2005,38369,0
2042,38337,0
2057,38313,0
2072,38355,0
2072,38334,0
2064,38328,0
2052,38354,0
2020,38328,0
1984,38332,0
1953,38344,0
1924,38343,0
1890,38357,0
1884,38336,0
1862,38329,0
1866,38331,0
1890,38335,0
1905,38339,0
1940,38349,0
1968,38361,0
2006,38333,0
2032,38325,0
2068,38366,0
2088,38343,0
2096,38323,0
2100,38368,0
2088,38340,0
2072,38342,0
2046,38362,0
2024,38342,0
1988,38335,0
1960,38358,0
1937,38352,0
1916,38341,0
1912,38311,0
1912,38368,0
1930,38342,0
1944,38331,0
1981,38364,0
2021,38328,0
2056,38339,0
2088,38357,0
2130,38331,0
2154,38361,0
2156,38364,0
2154,38339,0
2144,38346,0
2122,38358,0
2100,38370,0
2064,38339,0
2032,38329,0
1992,38371,0
1968,38350,0
1948,38340,0
1942,38350,0
1940,38353,0
1960,38342,0
1984,38331,0
2004,38373,0
2040,38342,0
2080,38330,0
2108,38369,0
2192,38347,0
2160,38345,0
2176,38366,0
2178,38345,0
2176,38354,0
2144,38367,0
2116,38367,0
2089,38349,0
2060,38341,0
2022,38371,0
2000,38354,0
1986,38343,0
1981,38372,0
1976,38353,0
1996,38354,0
2020,38338,0
2047,38361,0
2076,38358,0
2120,38337,0
2146,38380,0
2184,38358,0
2194,38365,0
2208,38381,0
2200,38349,0
2199,38359,0
2174,38379,0
2152,38377,0
2124,38368,0
2084,38344,0
2044,38386,0
2036,38360,0
2016,38367,0
2004,38385,0
2008,38364,0
2032,38362,0
2048,38380,0
2080,38380,0
2116,38364,0
2142,38343,0
2190,38387,0
2208,38370,0
2224,38356,0
2244,38388,0
2250,38368,0
2229,38374,0
2200,38381,0
2178,38376,0
2144,38378,0
2108,38349,0
2092,38394,0
2040,38364,0
2036,38367,0
2012,38388,0
2032,38370,0
2044,38373,0
2082,38382,0
2102,38393,0
2144,38368,0
2184,38354,0
2200,38394,0
2232,38371,0
2248,38352,0
2256,38386,0
2248,38369,0
2236,38375,0
2212,38394,0
2192,38366,0
2156,38380,0
2128,38387,0
2088,38377,0
2056,38367,0
2038,38361,0
2038,38392,0
2040,38362,0
2052,38358,0
2068,38388,0
2128,38345,0
2152,38369,0
2192,38392,0
2212,38363,0
2232,38355,0
2236,38345,0
2236,38389,0
2244,38358,0
2208,38364,0
2172,38384,0
2138,38355,0
2102,38348,0
2074,38375,0
2046,38373,0
2026,38361,0
2016,38336,0
2024,38385,0
2032,38349,0
2047,38346,0
2080,38357,0
2114,38348,0
2144,38340,0
2168,38373,0
2194,38349,0
2218,38345,0
2208,38355,0
2226,38368,0
2186,38351,0
2160,38319,0
2128,38374,0
2092,38337,0
2060,38334,0
2012,38345,0
1994,38344,0
1976,38327,0
1969,38352,0
1976,38329,0
1988,38331,0
2012,38336,0
2044,38359,0
2072,38338,0
2104,38335,0
2140,38345,0
2168,38360,0
2184,38335,0
2194,38312,0
2184,38351,0
2168,38332,0
2152,38327,0
2116,38345,0
2072,38325,0
2036,38332,0
2000,38364,0
1986,38335,0
1976,38328,0
1958,38323,0
1970,38362,0
1994,38316,0
2012,38308,0
2045,38351,0
2088,38325,0
2114,38332,0
2148,38342,0
2186,38318,0
2184,38329,0
2180,38337,0
2180,38332,0
2170,38345,0
2148,38314,0
2118,38322,0
2084,38331,0
2042,38340,0
2009,38353,0
1986,38326,0
1969,38313,0
1968,38355,0
1978,38331,0
2000,38323,0
2020,38357,0
2052,38331,0
2082,38339,0
2120,38346,0
2148,38351,0
2176,38341,0
2184,38338,0
2200,38372,0
2204,38338,0
2184,38328,0
2165,38367,0
2128,38343,0
2108,38342,0
2057,38365,0
2026,38337,0
2004,38354,0
1984,38355,0
1974,38368,0
1976,38330,0
2004,38362,0
2024,38363,0
2047,38360,0
2088,38350,0
2128,38353,0
2156,38359,0
2184,38359,0
2200,38376,0
2200,38352,0
2189,38330,0
2184,38365,0
2152,38348,0
2128,38364,0
2090,38384,0
2056,38371,0
2024,38361,0
1996,38337,0
1980,38372,0
1982,38351,0
1992,38340,0
2008,38380,0
2038,38365,0
2064,38361,0
2096,38385,0
2129,38359,0
2165,38360,0
2202,38369,0
2200,38384,0
2208,38359,0
2202,38328,0
2188,38375,0
2162,38366,0
2122,38363,0
2104,38367,0
2056,38334,0
2024,38358,0
1993,38332,0
1988,38366,0
1996,38346,0
1996,38353,0
2016,38369,0
2040,38346,0
2077,38351,0
2108,38347,0
2153,38372,0
2172,38338,0
2200,38329,0
2212,38368,0
2224,38342,0
2216,38340,0
2192,38379,0
2164,38348,0
2136,38343,0
2097,38376,0
2066,38362,0
2026,38356,0
2008,38331,0
2165,38378,0
1996,38344,0
2012,38337,0
2024,38363,0
2056,38346,0
2088,38361,0
2112,38357,0
2144,38334,0
2172,38340,0
2200,38356,0
2218,38327,0
2216,38354,0
2196,38354,0
2186,38371,0
2164,38343,0
2132,38338,0
2096,38377,0
2060,38352,0
2032,38345,0
2020,38368,0
2008,38355,0
2000,38348,0
2012,38377,0
2032,38351,0
2024,38356,0
2084,38348,0
2113,38383,0
2152,38351,0
2170,38328,0
2192,38377,0
2212,38362,0
2208,38354,0
2194,38370,0
2186,38359,0
2156,38354,0
2124,38379,0
2092,38379,0
2061,38359,0
2020,38362,0
2000,38371,0
1988,38371,0
1980,38364,0
2000,38376,0
2012,38355,0
2047,38362,0
2076,38381,0
2112,38375,0
2144,38358,0
2176,38378,0
2196,38392,0
2212,38364,0
2218,38343,0
2200,38391,0
2184,38363,0
2160,38358,0
2124,38391,0
2092,38359,0
2047,38365,0
2024,38390,0
2008,38373,0
1990,38363,0
1989,38398,0
2000,38364,0
2008,38367,0
2048,38379,0
2090,38393,0
2112,38363,0
2144,38353,0
2176,38383,0
2194,38360,0
2204,38393,0
2200,38381,0
2188,38365,0
2168,38384,0
2144,38391,0
2109,38361,0
2072,38367,0
2044,38378,0
2016,38362,0
1998,38374,0
1994,38381,0
1993,38393,0
2010,38361,0
2032,38340,0
2047,38385,0
2096,38369,0
2128,38357,0
2156,38379,0
2180,38358,0
2200,38358,0
2224,38383,0
2242,38369,0
2220,38365,0
2197,38361,0
2176,38397,0
2118,38358,0
2092,38358,0
2064,38375,0
2040,38358,0
2002,38359,0
2000,38386,0
2000,38366,0
2012,38347,0
2032,38375,0
2060,38362,0
2090,38371,0
2120,38389,0
2156,38361,0
2184,38368,0
2200,38389,0
2208,38362,0
2212,38359,0
2200,38365,0
2186,38392,0
2152,38354,0
2128,38350,0
2088,38388,0
2068,38360,0
2032,38364,0
2020,38392,0
2008,38363,0
2002,38370,0
2014,38382,0
2032,38383,0
2072,38368,0
2112,38350,0
2133,38391,0
2164,38359,0
2208,38351,0
2202,38381,0
2208,38366,0
2208,38360,0
2196,38391,0
2130,38379,0
2100,38382,0
2064,38370,0
2032,38364,0
2004,38393,0
1986,38357,0
1972,38374,0
1986,38396,0
1992,38374,0
2010,38375,0
2044,38391,0
2076,38382,0
2104,38369,0
2152,38357,0
2168,38391,0
2184,38373,0
2192,38364,0
2204,38388,0
2180,38372,0
2176,38375,0
2136,38392,0
2104,38384,0
2068,38374,0
2033,38358,0
2008,38390,0
1988,38377,0
1972,38369,0
1985,38390,0
2008,38376,0
2026,38362,0
2064,38398,0
2093,38378,0
2124,38379,0
2144,38405,0
2170,38354,0
2192,38372,0
2208,38387,0
2200,38378,0
2184,38381,0
2166,38393,0
2146,38384,0
2104,38368,0
2072,38379,0
2043,38398,0
2012,38369,0
1992,38358,0
1984,38398,0
2000,38371,0
2024,38380,0
2045,38386,0
2092,38383,0
2100,38370,0
2144,38396,0
2176,38393,0
2200,38369,0
2212,38360,0
2228,38390,0
2208,38368,0
2202,38355,0
2180,38396,0
2153,38377,0
2112,38375,0
2082,38400,0
2048,38376,0
1984,38375,0
2064,38370,0
1988,38375,0
1988,38399,0
2000,38385,0
2020,38408,0
2058,38379,0
2077,38356,0
2112,38404,0
2140,38379,0
2176,38374,0
2184,38399,0
2200,38382,0
2212,38377,0
2192,38391,0
2176,38400,0
2132,38381,0
2104,38363,0
2074,38393,0
2056,38381,0
2024,38372,0
2002,38398,0
2008,38376,0
2016,38387,0
2021,38401,0
2046,38388,0
2073,38383,0
2114,38391,0
2129,38401,0
2160,38384,0
2185,38366,0
2202,38393,0
2196,38384,0
2200,38390,0
2192,38401,0
2164,38378,0
2136,38387,0
2116,38390,0
2080,38375,0
2044,38359,0
2028,38414,0
2016,38368,0
2016,38383,0
2037,38397,0
2047,38373,0
2092,38386,0
2132,38390,0
2176,38394,0
2204,38376,0
2260,38364,0
2288,38405,0
2320,38376,0
2320,38377,0
2336,38406,0
2320,38369,0
2288,38383,0
2264,38408,0
2226,38373,0
2192,38386,0
2168,38395,0
2132,38399,0
2120,38376,0
2100,38373,0
2100,38405,0
2108,38399,0
2124,38380,0
2148,38397,0
2162,38375,0
2176,38397,0
2204,38381,0
2220,38385,0
2242,38376,0
2244,38406,0
2230,38379,0
2212,38374,0
2195,38411,0
2144,38383,0
2128,38383,0
2096,38406,0
2064,38389,0
2036,38392,0
2012,38411,0
2028,38407,0
