3068
3096
3120
3112
3092
3084
2920
3012
2972
2980
2952
2912
2875
2836
2804
2762
2714
2688
2624
2584
2530
2491
2443
2404
2369
2336
2314
2304
2282
2266
2266
2266
2228
2232
2228
2220
2198
2192
2160
2152
2124
2128
2115
2092
2081
2072
2066
2050
2064
2060
2062
2068
2056
2058
2060
2056
2039
2032
2018
2021
1992
1984
1970
1956
1940
1928
1921
1928
1930
1936
1940
1952
1954
1976
1989
1992
1979
1976
1963
1947
1938
1936
1929
1921
1912
1907
1909
1914
1921
1934
1936
1952
1960
1960
1964
1960
1938
1920
1918
1912
1906
1904
1892
1882
1880
1898
1914
1908
1920
1926
1940
1948
1954
1984
1977
1976
1956
1946
1932
1916
1905
1882
1870
1872
1869
1865
1872
1880
1874
1892
1906
1912
1933
1941
1938
1944
1936
1944
1942
1920
1916
1907
1901
1885
1885
1888
1892
1899
1904
1925
1928
1947
1948
1964
1960
1963
1949
1952
1928
1932
1904
1898
1892
1892
1888
1888
1880
1886
1896
1922
1928
1949
1952
1960
1968
1965
1969
1953
1952
1948
1943
1928
1929
1928
1921
1921
1913
1916
1911
1920
1933
1936
1916
1918
1922
1928
1920
1916
1912
1896
1890
1898
1888
1876
1880
1866
1865
1880
1888
1889
1904
1916
1922
1936
1937
1937
1934
1930
1920
1902
1896
1890
1888
1872
1860
1860
1870
1866
1882
1900
1913
1932
1941
1968
1984
1978
1977
1984
1980
1961
1956
1955
1944
1936
1936
1921
1924
1922
1932
1942
1956
1958
1970
1980
2000
1997
1972
1968
1968
1964
1960
1956
1942
1940
1946
1960
1966
1968
1985
1968
1974
1987
1988
1994
2004
2026
2016
2000
1996
1995
1992
1980
1972
1969
1964
1960
1964
1968
1948
1960
1972
1986
1990
1996
1996
2008
2008
2024
2025
2006
2004
2004
1997
1993
1986
1992
1989
1994
1995
2000
2010
2028
2035
2049
2048
2038
2041
2041
2034
2028
1992
1988
1972
1972
1980
1964
1976
1984
2004
2028
2032
2052
2056
2068
2060
2074
2068
2058
2050
2037
2035
2022
2017
2013
2006
2009
2012
2016
2024
2032
2048
2053
2034
2046
2060
2060
2047
2047
2047
2032
2040
2056
2048
2048
2038
2040
2048
2048
2040
2056
2060
2067
2074
2084
2088
2084
2072
2072
2064
2057
2037
2028
2024
2018
1996
1992
1996
2004
2004
2018
2028
2044
2058
2096
2097
2099
2093
2080
2074
2064
2048
2048
2024
2020
2010
2024
2025
2020
2022
2037
2056
2064
2088
2088
2096
2107
2069
2068
2056
2047
2042
2024
2018
2000
1996
2016
2020
2028
2048
2048
2064
2076
2085
2088
2096
2099
2092
2088
2080
2067
2056
2048
2034
2035
2025
2020
2033
2036
2028
2032
2042
2058
2064
2076
2068
2076
2072
2084
2081
2070
2057
2048
2038
2034
2032
2034
2036
2037
2048
2060
2072
2084
2092
2104
2113
2112
2112
2112
2106
2096
2068
2056
2052
2032
2024
2028
2024
2017
2028
2052
2060
2084
2088
2088
2090
2104
2101
2093
2089
2082
2074
2073
2065
2060
2060
2052
2060
2060
2064
2077
2080
2096
2080
2084
2096
2096
2096
2088
2085
2082
2076
2088
2080
2073
2066
2056
2051
2056
2060
2066
2074
2089
2097
2116
2117
2123
2124
2128
2118
2112
2100
2091
2084
2088
2047
2046
2040
2040
2047
2047
2068
2076
2088
2112
2125
2129
2130
2125
2120
2120
2104
2104
2102
2104
2112
2120
2128
2139
2148
2176
2176
2192
2210
2217
2232
2240
2204
2206
2184
2178
2172
2152
2144
2120
2116
2132
2128
2128
2126
2131
2132
2150
2160
2170
2169
2176
2184
2176
2176
2156
2152
2132
2120
2120
2105
2096
2089
2083
2064
2072
2080
2088
2100
2100
2106
2106
2100
2128
2112
2108
2100
2096
2080
2076
2080
2072
2060
2066
2075
2076
2091
2105
2116
2123
2128
2128
2128
2130
2117
2112
2072
2100
2052
2040
2036
2034
2026
2028
2024
2058
2051
2050
2048
2039
2020
2008
1988
1955
1948
1931
1928
1928
1922
1936
1939
1955
1976
2010
2072
2130
2208
2307
2380
2500
2632
2764
2906
3036
3152
3260
3352
3504
3553
3573
3553
3508
3444
3354
3269
3184
3112
3042
3000
2970
2956
2960
2980
3014
3049
3088
3124
3152
3168
3171
3096
3080
3068
3034
3008
2968
2930
2900
2856
2864
2818
2776
2728
2672
2613
2560
2498
2453
2400
2360
2314
2290
2264
2251
2240
2229
2227
2225
2229
2221
2217
2208
2168
2146
2128
2108
2088
2064
2044
2026
2016
2028
2011
2000
1996
2000
1997
2011
2000
2010
2002
2006
1992
1980
1960
1952
1940
1925
1904
1896
1893
1878
1880
1880
1864
1868
1881
1894
1912
1904
1912
1918
1912
1932
1916
1909
1900
1899
1888
1881
1868
1868
1872
1872
1866
1875
1876
1880
1888
1891
1891
1892
1883
1880
1876
1866
1848
1840
1836
1832
1829
1836
1828
1837
1842
1858
1862
1872
1872
1878
1880
1888
1890
1875
1872
1869
1858
1848
1848
1835
1832
1844
1832
1830
1844
1857
1862
1882
1866
1876
1880
1884
1884
1888
1872
1868
1856
1860
1856
1857
1844
1856
1846
1857
1856
1880
1889
1899
1911
1910
1924
1921
1920
1925
1912
1901
1895
1880
1875
1860
1854
1840
1842
1848
1856
1866
1872
1888
1896
1924
1925
1928
1931
1920
1920
1908
1893
1890
1880
1880
1866
1861
1860
1870
1864
1869
1874
1890
1896
1910
1904
1912
1890
1880
1872
1860
1856
1852
1784
1834
1832
1832
1830
1833
1836
1840
1842
1862
1864
1882
1884
1881
1888
1880
1869
1862
1860
1842
1830
1836
1817
1820
1818
1832
1816
1832
1848
1849
1865
1872
1880
1876
1890
1904
1894
1896
1888
1884
1866
1864
1866
1868
1864
1869
1880
1889
1897
1914
1922
1930
1930
1929
1930
1936
1924
1932
1906
1908
1900
1896
1900
1904
1901
1900
1906
1928
1921
1932
1931
1936
1947
1940
1936
1928
1947
1920
1913
1906
1908
1905
1904
1912
1908
1921
1920
1936
1944
1952
1948
1946
1948
1952
1940
1940
1944
1932
1928
1944
1941
1937
1937
1940
1942
1945
1940
1955
1960
1976
1980
1992
1988
1996
1992
1993
1978
1969
1964
1956
1952
1946
1920
1928
1919
1932
1924
1938
1940
1960
1968
1988
2000
2012
2008
2021
2019
2000
2002
1993
1985
1978
1973
1972
1966
1964
1963
1965
1978
1976
2000
2002
2012
2004
1992
1988
1988
1984
1984
1981
1972
1978
1976
1984
2001
2000
2004
2001
2001
2020
2016
2022
2024
2030
2024
2028
2024
2018
2020
2012
1998
1997
1997
1992
1988
1985
1968
1972
1976
1984
1988
2004
2000
2012
2008
2032
2025
2029
2012
2005
2003
1998
2010
2002
2005
2013
2008
2016
2016
2022
2032
2026
2034
2048
2036
2020
2032
2028
1996
1992
1992
1980
1988
1976
1972
1970
1980
2000
2012
2016
2018
2029
2028
2038
2048
2048
2048
2036
2029
2032
2017
2012
2006
2008
2016
1996
2001
2006
2008
2020
2010
2016
2024
2026
2026
2024
2024
2020
2016
2032
2048
2019
2010
2005
2001
1929
2002
2026
2010
2026
2032
2036
2048
2056
2070
2064
2064
2052
2048
2037
2032
2025
2002
1986
1990
1988
1996
2016
2004
2010
2016
2042
2052
2054
2058
2054
2048
2042
2036
2025
2020
2019
2013
2007
2012
2029
2025
2024
2032
2038
2048
2053
2058
2072
2036
2032
2032
2026
2024
2010
2000
1996
2000
2020
2016
2013
2016
2028
2040
2048
2065
2069
2076
2080
2076
2074
2080
2064
2052
2030
2028
2017
2012
2011
2016
2012
1992
2000
2010
2024
2032
2036
2047
2056
2060
2080
2080
2073
2052
2048
2032
2024
2024
2021
2024
2020
2036
2048
2052
2064
2064
2074
2089
2084
2088
2080
2076
2056
2024
2018
2010
2008
2000
2008
2005
2012
2016
2050
2072
2076
2105
2113
2128
2150
2154
2166
2176
2170
2176
2170
2165
2153
2140
2147
2140
2136
2128
2128
2129
2140
2108
2112
2116
2120
2120
2116
2112
2108
2100
2112
2108
2112
2100
2100
2104
2112
2112
2112
2112
2112
2116
2113
2119
2118
2112
2105
2116
2090
2069
2068
2053
2048
2012
2008
2013
2016
2020
2026
2032
2040
2056
2092
2100
2104
2112
2104
2096
2092
2080
2073
2064
2054
2048
2048
2038
2054
2048
2057
2068
2085
2089
2102
2114
2120
2088
2084
2080
2072
2046
2036
2008
1977
1950
1944
1920
1900
1878
1880
1888
1902
1920
1932
1961
1984
2000
2035
2074
2136
2200
2275
2372
2476
2596
2730
2872
3008
3068
3180
3280
3360
3424
3444
3440
3404
3344
3320
3233
3137
3056
2968
2905
2857
2836
2834
2848
2884
2944
2992
3050
3104
3145
3170
3192
3200
3176
3136
3093
3040
2920
2852
2792
2736
2680
2632
2584
2544
2500
2496
2472
2441
2409
2384
2358
2332
2312
2288
2264
2240
2218
2190
2192
2171
2146
2136
2129
2117
2116
2100
2100
2093
2060
2060
2047
2040
2026
2016
2008
2000
1994
1992
1977
1970
1958
1945
1942
1936
1936
1936
1938
1936
1952
1952
1952
1954
1946
1949
1948
1932
1920
1902
1896
1882
1860
1856
1852
1848
1856
1850
1860
1870
1881
1896
1920
1906
1904
1910
1905
1888
1888
1882
1872
1865
1848
1852
1844
1844
1846
1856
1865
1869
1888
1893
1908
1917
1900
1908
1896
1892
1880
1880
1869
1852
1848
1860
1861
1864
1863
1869
1869
1880
1894
1907
1904
1913
1917
1916
1921
1910
1897
1892
1889
1872
1868
1867
1861
1872
1856
1864
1876
1880
1736
1904
1914
1924
1924
1948
1942
1925
1922
1928
1914
1904
1906
1900
1904
1898
1912
1904
1913
1915
1932
1936
1939
1956
1952
1961
1956
1952
1928
1922
1912
1906
1900
1898
1897
1892
1904
1928
1925
1938
1944
1954
1947
1954
1948
1944
1941
1926
1923
1916
1898
1905
1888
1889
1888
1883
1872
1890
1884
1885
1880
1884
1886
1884
1890
1894
1880
1880
1872
1876
1859
1852
1856
1847
1864
1856
1880
1873
1878
1888
1905
1906
1916
1920
1920
1922
1925
1924
1913
1902
1896
1894
1877
1872
1866
1868
1880
1890
1888
1900
1912
1932
1944
1945
1959
1957
1963
1952
1952
1936
1934
1933
1920
1920
1921
1921
1932
1931
1944
1952
1956
1968
1980
1990
1972
1964
1965
1956
1952
1952
1930
1925
1920
1936
1933
1920
1926
1931
1922
1936
1946
1949
1968
1973
1973
1980
1974
1968
1965
1965
1958
1946
1933
1930
1925
1923
1906
1928
1914
1936
1936
1956
1968
1984
1986
2000
2011
1992
1992
1972
1974
1968
1962
1960
1964
1960
1961
1968
1976
1984
1992
2007
2012
2026
2017
2018
2025
2016
1984
1980
1980
1969
1964
1956
1960
1948
1956
1976
1990
2000
2008
2020
2040
2041
2056
2053
2056
2041
2033
2019
2010
2004
1989
1985
1984
1980
1984
1990
2004
2018
2002
2018
2028
2032
2032
2046
2032
2036
2016
2025
2026
2013
2009
2001
1997
2000
2004
2012
2004
2020
2027
2040
2056
2060
2064
2064
2069
2068
2060
2048
2033
2018
1994
1984
1982
1980
1980
1984
1992
1996
2008
2026
2048
2051
2058
2058
2069
2060
2060
2056
2052
2064
2048
2048
2050
2050
2035
2029
2041
2050
2042
2048
2048
2048
2032
2036
2028
2032
2032
2021
2010
2016
1996
2016
2016
2012
2018
2017
2029
2035
2048
2073
2088
2096
2101
2098
2092
2081
2069
2057
2040
2028
2016
2017
2000
2000
1980
1984
1988
2004
2024
2032
2044
2046
2056
2082
2082
2080
2075
2072
2060
2041
2038
2040
2032
2033
2029
2038
2040
2048
2053
2059
2076
2080
2076
2080
2082
2074
2033
2032
2016
2008
2008
1992
1997
1988
1992
2025
2029
2034
2058
2072
2080
2099
2104
2100
2104
2097
2090
2083
2064
2060
2035
2026
2017
2018
2022
2032
2028
2036
2028
2036
2056
2056
2064
2068
2072
2080
2064
2084
2073
2056
2050
2048
2038
2036
2048
2040
2050
2056
2064
2076
2088
2092
2112
2112
2121
2097
2080
2082
2070
2066
2032
2028
2020
2024
2020
2020
2026
2041
2040
2080
2098
2096
2100
2106
2098
2092
2085
2082
2069
2064
2051
2041
2037
2040
2029
2037
2040
2038
2072
2072
2086
2082
2064
2064
2064
2060
2064
2047
2044
2040
2036
2056
2059
2052
2050
2060
2058
2069
2074
2088
2099
2104
2120
2112
2116
2104
2096
2092
2072
2057
2048
2040
2032
2036
2000
2002
2012
2016
2036
2046
2064
2072
2090
2116
2128
2136
2131
2128
2126
2133
2132
2118
2118
2114
2122
2134
2116
2130
2144
2133
2132
2144
2136
2141
2128
2120
2088
2080
2068
2064
2064
2060
2064
2056
2060
2090
2096
2113
2114
2137
2140
2136
2148
2138
2129
2124
2120
2108
2090
2090
2070
2059
2054
2052
2048
2048
2069
2070
2047
2064
2088
2088
2092
2104
2104
2096
2094
2098
2096
2088
2096
2080
2081
2082
2074
2083
2080
2098
2100
2112
2124
2134
2147
2150
2145
2136
2123
2113
2090
2075
2034
2010
1996
1968
1944
1932
1918
1913
1918
1936
1952
1969
1989
2000
2021
2038
2060
2093
2138
2202
2288
2378
2485
2624
2756
2896
3042
3181
3300
3408
3506
3556
3504
3504
3464
3400
3312
3216
3108
3020
2936
2920
2880
2853
2856
2870
2897
2948
3008
3072
3130
3157
3188
3192
3188
3168
3139
3092
3042
2993
2924
2880
2820
2762
2668
2624
2588
2546
2520
2482
2448
2422
2392
2400
2368
2330
2304
2267
2244
2224
2208
2176
2157
2153
2132
2128
2133
2128
2129
2129
2122
2134
2113
2112
2096
2082
2040
2020
2000
1996
1968
1960
1946
1940
1933
1944
1947
1949
1952
1957
1963
1961
1968
1965
1958
1954
1942
1936
1928
1920
1912
1899
1896
1897
1892
1893
1901
1894
1882
1889
1896
1904
1900
1912
1908
1904
1896
1904
1896
1888
1880
1873
1868
1864
1862
1856
1857
1872
1880
1885
1892
1904
1904
1932
1916
1912
1912
1904
1904
1895
1868
1864
1856
1850
1848
1852
1856
1864
1868
1900
1904
1920
1920
1925
1932
1932
1920
1915
1901
1884
1888
1876
1864
1858
1860
1857
1861
1869
1877
1888
1893
1910
1896
1900
1912
1910
1914
1908
1900
1893
1888
1894
1894
1896
1900
1890
1908
1912
1922
1930
1952
1954
1972
1958
1948
1957
1944
1940
1936
1916
1908
1904
1904
1900
1904
1896
1910
1909
1918
1932
1940
1950
1952
1964
1968
1952
1946
1927
1921
1920
1914
1904
1894
1904
1899
1907
1901
1906
1907
1909
1933
1920
1928
1916
1912
1912
1882
1872
1864
1856
1848
1856
1850
1832
1836
1856
1863
1875
1883
1890
1893
1913
1920
1920
1909
1914
1905
1893
1884
1883
1869
1865
1878
1874
1876
1882
1888
1896
1896
1908
1914
1920
1920
1924
1928
1920
1916
1920
1912
1900
1891
1888
1880
1880
1888
1888
1897
1900
1920
1920
1940
1950
1968
1974
1974
1969
1964
1960
1942
1933
1914
1900
1892
1888
1841
1890
1904
1908
1912
1936
1945
1946
1964
1962
1969
1958
1952
1947
1928
1932
1923
1920
1912
1913
1920
1915
1914
1928
1930
1947
1953
1962
1948
1962
1952
1956
1954
1944
1932
1936
1924
1938
1939
1945
1954
1936
1940
1942
1957
1972
1969
1984
1990
1997
1991
1992
1987
1984
1976
1960
1961
1954
1954
1946
1924
2104
1944
1944
1956
1964
1980
1986
2000
2016
2025
2019
2012
2022
2001
1992
1988
1978
1966
1976
1976
1966
1976
1978
1979
1990
2008
1998
2016
2024
2022
2008
1992
1990
1984
1980
1976
1964
1961
1962
1960
1980
1976
1986
2002
2012
2028
2025
2034
2034
2026
2019
2032
2009
2003
1989
1996
1987
1984
1980
1977
1984
1984
1986
1977
1984
2004
2004
2028
2028
2044
2040
2024
2032
2032
2024
2008
1993
1984
1977
1977
1968
1975
1984
1984
1985
2000
2013
2029
2034
2040
2036
2032
2024
2013
2010
1984
1972
1982
1968
1978
1976
1976
1984
1988
2020
2029
2041
2048
2048
2050
2048
2042
2032
2024
2022
2012
2007
2000
2001
2002
1998
2001
2012
2024
2032
2037
2041
2016
2032
2016
2018
2004
2002
2000
1986
1989
2004
1998
2000
2001
2006
2006
2024
2024
2037
2048
2048
2056
2052
2048
2038
2027
2028
2024
2016
2004
2001
2000
1992
1976
1984
1988
1994
2016
2014
2026
2033
2044
2076
2069
2056
2058
2048
2035
2020
2016
2000
1994
1990
1986
1996
2000
2016
2011
2038
2052
2068
2068
2069
2080
2065
2036
2032
2024
2016
2004
2000
1992
1992
1992
2008
2017
2026
2035
2048
2050
2069
2074
2090
2086
2088
2082
2080
2070
2056
2052
2038
2032
2022
2028
2024
2028
2025
2008
2010
2020
2036
2032
2044
2040
2041
2041
2056
2049
2048
2040
2026
2036
2024
2022
2022
2028
2028
2048
2056
2061
2064
2075
2080
2076
2068
2069
2056
2050
2048
2008
2010
2012
2008
2010
2010
1860
2016
2028
2052
2064
2080
2083
2074
2088
2076
2076
2065
2049
2048
2048
2028
2048
2037
2051
2048
2058
2080
2081
2112
2112
2126
2088
2100
2112
2098
2088
2088
2080
2068
2064
2072
2082
2070
2066
2064
2065
2074
2084
2086
2083
2101
2105
2112
2114
2116
2116
2112
2105
2092
2088
2064
2064
2054
2018
2022
2014
2016
2026
2032
2032
2042
2068
2072
2104
2088
2091
2076
2085
2077
2080
2073
2068
2056
2056
2056
2056
2058
2064
2082
2080
2088
2096
2107
2112
2106
2088
2080
2082
2060
2072
2056
2047
2036
2034
2060
2060
2064
2073
2084
2096
2100
2104
2104
2106
2096
2056
2026
1994
1964
1931
1913
1893
1893
1898
1924
1936
1952
1957
1976
2006
2047
2104
2164
2236
2332
2424
2576
2688
2816
2936
3048
3152
3232
3296
3340
3372
3360
3328
3252
3200
3096
3016
2933
2867
2816
2784
2768
2762
2778
2756
2800
2840
2876
2920
2948
2968
2976
2984
3024
3020
2993
2952
2921
2864
2819
2772
2722
2672
2630
2584
2544
2500
2451
2412
2376
2344
2309
2288
2277
2250
2241
2196
2181
2168
2156
2142
2136
2116
2092
2084
2088
2080
2074
2054
2052
2048
2028
2032
2027
2021
2025
2024
2025
2022
2002
1992
1992
2069
1959
1946
1938
1933
1928
1900
1906
1912
1916
1925
1930
1932
1948
1940
1960
1966
1956
1940
1928
1915
1896
1888
1877
1876
1859
1865
1867
1856
1868
1867
1877
1891
1904
1922
1920
1934
1920
1904
1896
1876
1880
1884
1864
1858
1852
1842
1856
1856
1869
1872
1872
1896
1894
1904
1908
1916
1916
1913
1910
1901
1882
1888
1878
1872
1865
1860
1864
1858
1861
1860
1865
1876
1884
1896
1904
1912
1916
1918
1932
1932
1932
1932
1922
1925
1916
1910
1907
1896
1898
1888
1889
1891
1888
1897
1902
1902
1897
1906
1896
1893
1894
1880
1874
1876
1872
1876
1872
1874
1876
1888
1920
2027
1945
1944
1952
1952
1952
1952
1936
1932
1920
1899
1901
1888
1882
1882
1882
1884
1890
1888
1893
1904
1907
1904
1912
1916
1920
1906
1900
1896
1892
1882
1888
1888
1864
1860
1853
1845
1850
1856
1856
1864
1875
1880
1882
1882
1892
1888
1881
1876
1849
1851
1840
1844
1821
1812
1808
1808
1818
1832
1834
1848
1866
1869
1896
1899
1908
1906
1900
1901
1885
1876
1873
1876
1872
1872
1862
1869
1877
1881
1893
1900
1913
1920
1922
1924
1925
1896
1893
1886
1882
1873
1884
1876
1872
1868
1880
1881
1884
1885
1902
1905
1910
1922
1923
1930
1938
1925
1910
1905
1893
1893
1886
1881
1865
1873
1872
1884
1885
1876
1892
1904
1912
1920
1936
1933
1944
1936
1936
1925
1922
1920
1908
1885
1881
1881
1870
1877
1886
1890
1897
1906
1916
1924
1940
1945
1952
1946
1945
1940
1936
1908
1906
1890
1888
1880
1881
1884
1888
1896
1912
1924
1937
1944
1957
1976
1977
1976
1989
1979
1973
1972
1956
1942
1932
1936
1924
1929
1924
1928
1941
1952
1965
1956
1970
1978
1985
1984
1988
1976
1970
1968
1968
1968
1958
1956
1942
1940
1939
1952
1958
1973
1985
2000
2009
2016
2003
2016
2000
2002
1994
1984
1978
1971
1963
1944
1948
1944
1942
1960
1961
1960
1972
1984
2004
2020
2016
2012
2013
1988
1984
1980
1968
1946
1944
1941
1936
1956
1952
1970
1966
1986
1986
1996
2009
2006
1997
1980
1968
1960
1952
1932
1940
1944
1941
1942
1964
1974
1984
1997
2000
2006
2016
2028
2024
2032
2033
2016
2008
1998
1984
1974
1970
1956
1952
1952
1949
1960
1974
1954
1972
1974
2012
2009
2024
2022
2012
2008
2024
2017
2008
1997
1985
1977
1970
1970
1965
1964
1966
1984
1989
1990
2010
2022
2016
2023
2024
2016
2016
2008
1987
1968
2000
1968
1968
1968
1977
1976
1978
1990
2008
2008
2016
2021
2023
2020
2022
2024
2010
2000
2000
1980
1978
1958
1956
1952
1960
1956
1968
1976
1991
2017
2020
2016
2018
2026
2026
2028
2012
1996
1992
1978
1992
1976
1969
1988
1960
1962
1965
1972
1984
2002
2012
2021
2033
2034
2036
2034
2026
2017
2011
2005
1988
1980
1976
1952
1956
1960
1960
1972
1984
1984
1992
2000
2024
2030
2041
2028
2025
2012
2011
1992
1984
1984
1968
1969
1972
1974
1979
1971
1995
2004
2022
2032
2038
2034
2032
2018
2018
2008
2000
1992
1992
1984
1980
1978
2000
2000
2000
2004
2004
2012
2020
2036
2035
2033
2035
2040
2032
2034
2020
2012
2010
2005
2008
2010
2003
2008
2016
2008
2020
2028
2040
2064
2076
2080
2092
2100
2120
2112
2104
2089
2066
2052
2040
2024
2018
2000
2000
2001
2016
2017
2039
2048
2052
2064
2068
2080
2082
2084
2083
2047
2042
2041
2034
2020
2012
2002
2004
2000
2024
2025
2028
2035
2050
2048
2040
2049
2038
2038
2036
2035
2028
2022
2016
2012
2020
2020
2024
2038
2040
2056
2065
2052
2064
2060
2070
2068
2068
2047
2046
2041
2048
2048
2032
2010
2008
2005
2000
2016
2011
2016
2032
2042
2054
2061
2073
2058
2060
2034
2016
1980
1956
1924
1911
1872
1861
1866
1872
1881
1896
1912
1936
1972
2032
2101
2157
2228
2324
2432
2544
2656
2781
2896
3010
3114
3188
3241
3268
3280
3272
3236
3180
3088
2988
2896
2802
2692
2636
2600
2584
2604
2624
2648
2712
2768
2872
2929
2968
3009
3030
3041
3034
3020
2992
2946
2902
2837
2784
2720
2664
2608
2561
2512
2469
2437
2400
2376
2346
2288
2276
2256
2252
2232
2218
2204
2188
2172
2180
2161
2136
2117
2084
2074
2052
2032
2032
2024
2010
2022
2018
2022
2025
2048
2032
2032
2037
2020
2010
2000
1984
1948
1932
1920
1908
1904
1893
1888
1896
1888
1912
1917
1928
1936
1957
1888
1940
1944
1945
1925
1928
1916
1909
1896
1885
1877
1880
1872
1858
1867
1897
1880
1897
1880
1896
1904
1912
1906
1914
1912
1892
1882
1892
1880
1872
1864
1856
1862
1860
1869
1876
1893
1904
1920
1922
1928
1928
1912
1920
1901
1877
1888
1873
1870
1868
1860
1853
1864
1864
1872
1876
1884
1896
1904
1928
1928
1928
1932
1920
1924
1902
1892
1888
1870
1864
1857
1872
1867
1880
1889
1904
1915
1928
1928
1942
1945
1952
1936
1924
1918
1908
1896
1882
1878
1880
1864
1876
1880
1881
1877
1892
1895
1920
1928
1942
1960
1952
1957
1948
1944
1933
1922
1920
1905
1888
1882
1881
1872
1873
1864
1872
1888
1900
1910
1924
1928
1940
1925
1936
1944
1920
1905
1888
1868
1862
1848
1844
1838
1834
1830
1834
1836
1845
1846
1849
1865
1864
1869
1868
1867
1867
1850
1844
1844
1845
1840
1820
1820
1808
1810
1828
1825
1840
1852
1862
1873
1882
1896
1898
1897
1901
1901
1904
1900
1892
1894
1888
1885
1888
1881
1888
1898
1909
1900
1900
1910
1908
1908
1904
1896
1894
1892
1896
1898
1893
1885
1888
1888
1897
1905
1912
1920
1929
1932
1953
1955
1965
1960
1964
1960
1936
1936
1925
1923
1913
1890
1889
1888
1896
1906
1910
1908
1934
1936
1968
1961
1976
1976
1964
1955
1952
1942
1930
1924
1920
1921
1907
1912
1910
1912
1922
1923
1926
1939
1953
1964
1980
1952
1950
1946
1928
1908
1904
1896
1892
1884
1898
1906
1905
1933
1928
1943
1961
1965
1988
1988
2000
2003
2002
2004
1980
1984
1970
1964
1952
1936
1928
1932
1934
1918
1932
1978
1948
1956
1908
1984
1982
1981
2000
1992
1978
1968
1957
1946
1936
1936
1928
1926
1936
1940
1964
1972
1985
1996
2005
2020
2028
2024
2024
2004
2008
1972
1964
1956
1952
1948
1940
1941
1937
1930
1948
1952
1973
1969
1984
1992
2008
2016
2016
2016
2008
2003
1990
1986
1984
1975
1971
1974
1957
1968
1963
1978
1970
1960
1968
1968
1978
1986
1980
1972
1976
1972
1984
1976
1969
1965
1961
1963
1968
1969
1976
1976
1988
1987
1994
2002
2001
2000
1993
1986
1979
1969
1965
1962
1953
1928
1932
1918
1928
1936
1929
1940
1952
1960
1984
2000
2008
2012
2018
2009
2018
2000
1992
1972
1960
1948
1944
1938
1942
1938
1941
1952
1964
1974
1978
1992
1996
1972
1973
1980
1964
1941
1936
1930
1924
1916
1924
1924
1924
1929
1952
1952
1958
1972
1980
2000
1998
2008
2016
2004
1996
1992
1980
1968
1963
1953
1952
1944
1952
1932
1938
1948
1960
1980
1976
1994
2000
1996
2018
2016
2012
2008
1996
1972
1966
1957
1945
1939
1946
1936
1938
1956
1956
1965
1974
1988
1996
2002
1997
2005
2001
1970
1972
1960
1954
1940
1924
1930
1928
1924
1944
1956
1965
1968
1984
1984
1988
1980
1984
1980
1978
1972
1964
1960
1952
1949
1940
1941
1942
1940
1946
1956
1956
1944
1962
1972
1976
1977
1980
1978
1968
1954
1968
1966
1964
1952
1941
1941
1936
1941
1936
1942
1946
1956
1970
1968
1974
1976
1970
1974
1956
1958
1952
1942
1938
1920
1918
1930
1936
1944
1972
1972
1984
1992
2032
2034
2048
2038
2029
2025
2016
2010
2003
2000
1991
1990
1988
1986
1977
1976
1974
1989
1992
1989
1992
2000
2006
1984
1988
1984
1976
1988
1992
1980
1974
1980
1992
1989
1987
1988
1992
1998
1996
1993
1993
1984
1970
1960
1958
1955
1947
1948
1952
1957
1952
1946
1952
1944
1953
1928
1928
1932
1940
1790
1948
1956
1968
1962
1976
1984
1976
1973
1973
1968
1960
1962
1962
1962
1965
1969
1976
1976
1976
1980
1974
1971
1952
1926
1893
1875
1843
1808
1780
1776
1760
1768
1772
1776
1788
1808
1836
1872
1920
1979
2054
2146
2252
2378
2503
2635
2772
2922
3052
3160
3270
3352
3426
3456
3448
3412
3364
3288
3200
3032
2940
2864
2796
2750
2720
2704
2704
2740
2800
2851
2890
2921
2962
2993
2986
2988
2978
2946
2924
2901
2848
2808
2768
2708
2672
2609
2549
2496
2445
2392
2338
2260
2224
2185
2148
2116
2092
2080
2064
2060
2064
2066
2058
2052
2038
2025
2012
1992
1969
1952
1936
1916
1900
1884
1870
1864
1833
1849
1840
1844
1848
1841
1838
1836
1824
1824
1812
1804
1800
1789
1786
1780
1780
1778
1777
1776
1761
1768
1761
1765
1771
1780
1777
1777
1772
1774
1770
1768
1770
1764
1756
1755
1756
1754
1754
1744
1752
1756
1762
1768
1762
1764
1768
1770
1788
1769
1784
1768
1757
1773
1744
1754
1745
1738
1731
1728
1729
1730
1730
1737
1744
1748
1753
1765
1762
1762
1760
1738
1736
1732
1732
1732
1728
1726
1732
1725
1729
1740
1732
1741
1736
1737
1738
1737
1756
1746
1754
1736
1733
1736
1741
1734
1736
1739
1749
1750
1754
1748
1769
1764
1780
1772
1777
1784
1784
1777
1788
1784
1792
1773
1777
1760
1763
1760
1764
1752
1761
1766
1772
1776
1780
1780
1778
1778
1777
1771
1768
1769
1764
1765
1760
1748
1760
1778
1768
1764
1772
1778
1776
1776
1786
1784
1773
1773
1764
1769
1753
1744
1741
1736
1736
1720
1717
1724
1712
1704
1713
1714
1721
1733
1736
1752
1752
1745
1736
1730
1714
1704
1690
1696
1672
1668
1674
1672
1672
1680
1684
1693
1710
1706
1712
1719
1722
1730
1737
1728
1732
1728
1716
1713
1708
1701
1700
1700
1698
1700
1708
1680
1728
1732
1738
1736
1754
1752
1768
1761
1763
1772
1771
1757
1761
1756
1749
1746
1746
1733
1744
1732
1749
1748
1748
1762
1756
1768
1765
1772
1764
1740
1746
1732
1722
1716
1712
1716
1716
1728
1736
1747
1753
1748
1762
1766
1764
1768
1765
1758
1762
1745
1748
1746
1749
1750
1742
1736
1748
1749
1753
1763
1769
1768
1784
1784
1788
1800
1788
1784
1780
1776
1786
1776
1776
1776
1781
1772
1772
1764
1764
1773
1768
1778
1798
1801
1818
1820
1829
1828
1836
1834
1828
1824
1816
1808
1794
1796
1792
1791
1796
1790
1798
1804
1820
1835
1840
1836
1840
1845
1841
1841
1832
1824
1826
1827
1824
1819
1810
1808
1814
1812
1818
1824
1836
1845
1846
1840
1846
1842
1842
1840
1837
1832
1828
1820
1824
1820
1814
1818
1811
1813
1813
1820
1824
1826
1836
1856
1840
1852
1848
1846
1856
1844
1860
1845
1848
1850
1850
1840
1834
1832
1834
1840
1844
1848
1848
1848
1856
1860
1856
1860
1858
1861
1856
1856
1861
1848
1848
1847
1856
1849
1851
1848
1849
1856
1856
1862
1868
1858
1858
1840
1844
1848
1844
1844
1844
1836
1842
1840
1866
1864
1869
1874
1882
1888
1892
1896
1896
1896
1902
1891
1899
1897
1892
1880
1874
1862
1858
1850
1837
1844
1844
1832
1836
1844
1852
1850
1864
1864
1868
1866
1888
1888
1896
1888
1893
1888
1878
1878
1875
1882
1875
1872
1885
1888
1897
1901
1898
1908
1900
1901
1908
1888
1904
1876
1880
1880
1872
1865
1876
1872
1876
1882
1908
1909
1908
1916
1913
1914
1905
1904
1898
1892
1890
1889
1888
1888
1892
1893
1889
1893
1907
1897
1904
1900
1909
1900
1896
1898
1888
1894
1888
1876
1880
1872
1880
1884
1888
1891
1888
1900
1908
1905
1925
1924
1930
1936
1922
1924
1925
1922
1920
1920
1913
1910
1905
1898
1896
1884
1880
1886
1898
1894
1900
1904
1904
1912
1928
1931
1928
1922
1926
1930
1924
1921
1931
1926
1924
1927
1916
1912
1920
1916
1920
1912
1916
1914
1922
1912
1921
1904
1892
1896
1906
1912
1908
1918
1928
1936
1964
1970
1980
1994
1997
2020
2012
2024
2016
2024
2016
2000
1991
1979
1976
1953
1952
1952
1952
1954
1947
1952
1953
1936
1948
1948
1964
1961
1970
1972
1964
1976
1988
1987
1981
1974
1968
1976
1980
1984
1976
1968
1974
1979
1978
1994
1990
1973
1971
1969
1952
1956
1944
1944
1941
1912
1918
1914
1928
1928
1940
1948
1950
1960
1980
1980
1989
1984
1984
1984
1987
1970
1980
1960
1968
1955
1957
1968
1961
1969
1978
1976
1980
1984
1977
1972
1954
1908
1904
1882
1850
1832
1820
1818
1816
1832
1840
1856
1861
1888
1912
1952
2006
2082
2164
2262
2376
2504
2728
2777
2920
3044
3160
3268
3344
3403
3440
3460
3419
3292
3224
3132
3048
2964
2896
2832
2788
2768
2808
2824
2858
2897
2944
2996
3040
3072
3098
3108
3108
3093
3072
3042
3003
2968
2920
2873
2828
2788
2736
2696
2641
2548
2508
2456
2412
2364
2328
2290
2258
2232
2234
2215
2198
2189
2170
2157
2160
2136
2123
2113
2104
2089
2076
2053
2048
2021
2005
1995
1984
1961
1956
1944
1944
1918
1920
1908
1904
1904
1897
1888
1888
1873
1880
1879
1865
1852
1856
1844
1837
1840
1843
1842
1848
1852
1856
1856
1856
1856
1859
1858
1848
1841
1836
1837
1837
1808
1810
1816
1818
1754
1812
1812
1816
1816
1832
1842
1830
1834
1846
1837
1841
1844
1836
1829
1828
1829
1826
1824
1816
1820
1826
1833
1837
1840
1844
1850
1849
1848
1842
1844
1844
1842
1836
1836
1834
1828
1840
1848
1836
1834
1824
1826
1826
1828
1842
1840
1848
1858
1872
1880
1876
1876
1869
1868
1861
1864
1858
1850
1846
1834
2008
1842
1848
1866
1868
1872
1890
1888
1904
1904
1910
1909
1912
1908
1905
1904
1904
1906
1906
1916
1915
1920
1922
1930
1924
1934
1940
1932
1938
1929
1936
1908
1908
1904
1904
1906
1896
1892
1896
1904
1912
1920
1926
1924
1923
1934
1920
1920
1928
1912
1909
1898
1902
1898
1904
1898
1884
1884
1883
1882
1888
1884
1892
1866
1864
1858
1860
1856
1858
1848
1844
1844
1848
1845
1846
1841
1842
1849
1848
1848
1856
1856
1865
1864
1862
1874
1877
1884
1882
1888
1892
1888
1884
1882
1885
1868
1864
1860
1868
1872
1888
1884
1884
1888
1912
1913
1912
1922
1928
1915
1914
1912
1907
1904
1900
1897
1896
1900
1893
1900
1901
1914
1912
1928
1928
1942
1933
1928
1920
1928
1924
1920
1916
1908
1908
1904
1920
1928
1920
1914
1920
1929
1936
1932
1938
1936
1950
1960
1960
1952
1960
1960
1964
1952
1948
1937
1948
1940
1941
1914
1916
1918
1922
1928
1944
1928
1944
1956
1972
1989
1980
1992
1984
1986
1974
1971
1968
1962
1965
1968
1968
1969
1972
1977
1992
1988
1997
2006
2005
2016
2017
1996
1996
1984
1977
1984
1980
1968
1980
1970
1992
1988
2000
2004
2005
2016
2024
2036
2036
2048
2032
2024
2017
2008
2005
2002
1993
2002
2000
1992
2001
2012
2012
1996
2000
2014
2016
2020
2020
2028
2020
2020
2048
2053
2048
2032
2034
2048
2035
2033
2029
2038
2037
2048
2048
2048
2056
2058
2049
2056
2050
2048
2038
2034
2026
2004
1996
2002
1996
1992
2000
1848
2005
2012
2036
2048
2057
2060
2064
2066
2065
2068
2064
2060
2057
2053
2052
2052
2052
2056
2048
2050
2061
2067
2068
2070
2082
2064
2064
2066
2066
2060
2052
2042
2036
2028
2048
2048
2036
2048
2053
2056
2056
2068
2070
2076
2080
2080
2084
2084
2088
2084
2081
2088
2081
2074
2074
2080
2074
2060
2047
2060
2056
2060
2066
2068
2065
2060
2088
2089
2081
2082
2076
2082
2076
2080
2080
2080
2073
2096
2080
2088
2096
2104
2112
2112
2120
2120
2122
2120
2129
2098
2088
2088
2084
2076
2072
2080
2076
2076
2096
2092
2090
2100
2112
2120
2179
2128
2128
2131
2128
2124
2121
2120
2112
2100
2092
2098
2104
2104
2104
2101
2112
2092
2096
2092
2100
2104
2112
2108
2108
2106
2124
2118
2116
2112
2115
2112
2112
2112
2112
2112
2112
2128
2130
2138
2132
2140
2144
2144
2146
2138
2134
2129
2125
2100
2092
2092
2090
2088
2092
2096
2100
2112
2136
2140
2148
2148
2146
2155
2148
2144
2141
2144
2125
2124
2117
2112
2122
2114
2120
2120
2124
2122
2128
2136
2141
2104
2104
2100
2098
2092
2092
2096
2088
2080
2098
2104
2112
2114
2124
2134
2145
2156
2166
2179
2193
2200
2208
2208
2213
2212
2212
2219
2219
2209
2216
2214
2208
2180
2168
2168
2164
2156
2156
2161
2152
2164
2186
2188
2185
2180
2184
2181
2176
2176
2178
2176
2176
2184
2184
2184
2192
2185
2193
2182
2184
2181
2176
2184
2168
2140
2136
2136
2116
2124
2120
2120
2114
2116
2146
2145
2146
2152
2154
2155
2162
2160
2176
2170
2176
2176
2168
2164
2161
2155
2152
2152
2137
2144
2144
2148
2156
2124
2140
2128
2148
2138
2132
2122
2114
2096
2092
2080
2051
2016
2000
1979
1973
1970
1975
1990
2008
2025
2042
2064
2104
2138
2196
2284
2354
2453
2560
2688
2816
2892
3028
3164
3280
3388
3484
3552
3572
3560
3600
3584
3525
3444
3376
3296
3226
3168
3116
3081
3080
3089
3130
3152
3200
3264
3298
3344
3376
3384
3392
3376
3361
3264
3216
3176
3132
3084
3028
2976
2928
2904
2896
2857
2804
2760
2720
2688
2656
2616
2584
2568
2544
2514
2496
2476
2450
2432
2416
2401
2368
2369
2356
2341
2341
2303
2308
2308
2312
2316
2332
2340
2348
2356
2400
2402
2400
2400
2396
2390
2384
2384
2385
2374
2380
2378
2388
2393
2400
2408
2404
2436
2423
2412
2412
2417
2416
2376
2372
2368
2368
2368
2360
2360
2356
2372
2396
2410
2403
2410
2408
2417
2425
2432
2432
2425
2421
2417
2421
2417
2406
2402
2400
2400
2396
2393
2389
2388
2400
2360
2360
2360
2364
2364
2360
2356
2344
2348
2368
2368
2360
2352
2356
2356
2336
2332
2324
2328
2320
2323
2324
2312
2316
2313
2321
2304
2296
2304
2272
2272
2266
2224
2208
2216
2208
2216
2216
2204
2204
2204
2224
2229
2227
2218
2203
2198
2186
2176
2149
2153
2125
2124
2113
2107
2116
2112
2089
2089
2084
2085
2088
2082
2088
2047
2052
2044
2036
2040
2024
2020
2000
1992
2000
2004
1993
1978
1977
1960
1946
1940
1940
1952
1937
1932
1925
1924
1912
1914
1904
1891
1869
1864
1856
1842
1830
1820
1818
1792
1796
1786
1784
1776
1776
1760
1760
1761
1760
1747
1744
1738
1733
1728
1718
1712
1717
1703
1704
1710
1717
1716
1710
1733
1713
1720
1716
1712
1709
1688
1676
1680
1680
1648
1648
1648
1656
1653
1644
1664
1656
1656
1664
1672
1684
1681
1692
1690
1696
1691
1692
1682
1668
1657
1653
1657
1653
1636
1632
1628
1570
1618
1637
1637
1624
1640
1552
1630
1632
1624
1620
1612
1610
1616
1588
1594
1586
1588
1577
1592
1585
1600
1590
1617
1602
1612
1608
1588
1587
1582
1572
1574
1562
1556
1592
1552
1548
1548
1558
1552
1552
1560
1564
1580
1573
1574
1576
1584
1562
1565
1557
1553
1562
1541
1523
1523
1536
1520
1528
1522
1526
1537
1532
1540
1536
1532
1540
1534
1532
1537
1525
1532
1513
1510
1516
1505
1504
1504
1501
1516
1499
1498
1508
1516
1508
1504
1521
1514
1508
1497
1505
1479
1477
1469
1468
1473
1456
1456
1472
1470
1480
1490
1488
1500
1492
1500
1500
1506
1493
1496
1488
1484
1468
1456
1448
1435
1435
1431
1428
1433
1433
1433
1431
1441
1446
1448
1448
1451
1452
1444
1454
1440
1442
1432
1416
1408
1407
1402
1408
1404
1403
1412
1408
1414
1417
1416
1424
1420
1432
1416
1410
1400
1386
1376
1370
1376
1357
1357
1354
1362
1374
1368
1382
1376
1380
1376
1389
1404
1382
1372
1364
1376
1361
1358
1371
1352
1346
1355
1348
1337
1336
1339
1324
1324
1324
1331
1338
1325
1329
1321
1323
1325
1316
1328
1328
1318
1330
1333
1308
1314
1325
1324
1324
1330
1320
1328
1345
1320
1344
1329
1318
1309
1312
1301
1293
1296
1280
1284
1276
1280
1280
1280
1281
1276
1284
1296
1298
1308
1317
1306
1324
1308
1312
1296
1284
1286
1280
1283
1269
1261
1265
1272
1271
1269
1266
1268
1271
1269
1262
1259
1264
1246
1245
1237
1235
1242
1229
1240
1238
1244
1256
1248
1252
1252
1258
1260
1256
1254
1264
1260
1261
1251
1239
1242
1244
1226
1229
1210
1206
1204
1220
1213
1229
1224
1233
1248
1243
1248
1252
1254
1248
1252
1233
1228
1224
1165
1204
1220
1208
1204
1206
1206
1218
1236
1245
1249
1259
1288
1281
1294
1298
1300
1297
1292
1288
1285
1281
1268
1265
1244
1245
1244
1245
1300
1240
1248
1245
1238
1236
1232
1233
1216
1206
1197
1192
1185
1188
1178
1178
1180
1184
1189
1186
1196
1206
1204
1208
1206
1211
1208
1203
1190
1185
1188
1180
1177
1173
1168
1164
1160
1157
1156
1158
1161
1166
1177
1184
1196
1200
1209
1197
1192
1193
1190
1186
1187
1190
1176
1176
1185
1176
1182
1184
1176
1188
1202
1210
1208
1204
1208
1200
1176
1168
1158
1116
1079
1064
1038
1024
1012
1017
1012
1042
1060
1080
1097
1113
1136
1172
1218
1280
1344
1424
1530
1644
1773
1898
2016
2152
2270
2362
2448
2512
2540
2546
2520
2508
2416
2312
2194
2096
2000
1925
1874
1833
1837
1828
1862
1906
1956
2010
2059
2106
2129
2152
2160
2136
2120
2074
2004
1944
1885
1826
1768
1706
1656
1616
1570
1525
1485
1448
1408
1362
1346
1307
1288
1252
1232
1216
1192
1168
1152
1136
1128
1112
1110
1105
1093
1089
1090
1100
1109
1120
1122
1116
1122
1113
1112
1112
1112
1093
1080
1072
1062
1052
1053
1047
1043
1040
1042
1048
1050
1056
1062
1072
1088
1098
1091
1099
1104
1107
1108
1091
1120
1096
1100
1101
1093
1084
1088
1086
1081
1065
1074
1068
1077
1078
1083
1088
1098
1097
1098
1098
1095
1084
1090
1084
1072
1076
1080
1070
1073
1074
1083
1084
1106
1108
1108
1118
1117
1118
1126
1122
1116
1098
1093
1095
1102
1105
1090
1105
1098
1104
1107
1120
1118
1130
1124
1112
1112
1118
1096
1100
1098
1084
1082
1078
1096
1096
1090
1096
1100
1106
1112
1118
1122
1116
1110
1116
1122
1117
1116
1113
1106
1105
1104
1095
1100
1107
1101
1109
1114
1112
1115
1120
1128
1141
1131
1140
1157
1152
1154
1152
1133
1132
1129
1128
1120
1101
1104
1098
1100
1102
1109
1114
1124
1130
1127
1130
1136
1137
1129
1120
1123
1110
1116
1114
1104
1102
1096
1108
1122
1120
1120
1128
1125
1130
1136
1132
1140
1120
1112
1112
1110
1108
1102
1105
1100
1098
1102
1104
1106
1112
1117
1132
1136
1138
1146
1152
1158
1148
1154
1155
1170
1172
1164
1165
1174
1168
1176
1186
1188
1177
1181
1188
1194
1205
1217
1221
1229
1217
1216
1224
1216
1220
1207
1223
1212
1216
1209
1216
1216
1222
1224
1232
1244
1256
1266
1269
1266
1274
1276
1274
1282
1264
1260
1264
1257
1250
1253
1252
1254
1264
1269
1266
1276
1280
1286
1293
1292
1300
1291
1292
1280
1288
1286
1289
1292
1308
1304
1310
1305
1312
1310
1317
1320
1322
1328
1326
1328
1323
1319
1320
1314
1307
1321
1314
1318
1316
1322
1321
1331
1332
1339
1356
1360
1361
1364
1366
1376
1378
1377
1381
1373
1376
1360
1360
1362
1360
1355
1357
1362
1368
1374
1388
1389
1394
1393
1387
1245
1386
1389
1385
1378
1381
1376
1373
1377
1377
1384
1389
1404
1396
1407
1416
1421
1432
1440
1440
1444
1432
1427
1422
1419
1416
1409
1408
1404
1402
1403
1408
1412
1410
1421
1435
1440
1444
1458
1454
1459
1464
1462
1456
1452
1450
1448
1440
1432
1442
1424
1432
1428
1452
1444
1451
1458
1473
1484
1489
1489
1496
1492
1494
1495
1493
1498
1488
1489
1484
1499
1481
1479
1484
1484
1489
1500
1496
1500
1512
1494
1520
1508
1520
1500
1498
1496
1499
1506
1505
1506
1513
1521
1520
1536
1544
1554
1548
1558
1556
1555
1556
1552
1545
1527
1524
1514
1512
1510
1501
1512
1512
1517
1516
1531
1541
1546
1556
1562
1569
1568
1573
1577
1570
1568
1555
1564
1561
1557
1562
1560
1584
1584
1582
1584
1600
1600
1600
1602
1624
1604
1604
1600
1604
1592
1592
1596
1592
1597
1600
1608
1600
1610
1617
1614
1619
1627
1638
1632
1638
1634
1644
1636
1632
1634
1628
1632
1638
1625
1617
1626
1629
1640
1636
1644
1650
1492
1660
1664
1684
1676
1680
1671
1672
1680
1681
1696
1682
1696
1684
1686
1697
1710
1708
1730
1737
1750
1748
1764
1780
1787
1782
1788
1785
1776
1784
1794
1796
1796
1809
1800
1812
1808
1816
1824
1819
1824
1832
1821
1824
1824
1816
1808
1809
1811
1797
1792
1784
1784
1785
1781
1781
1784
1781
1800
1792
1802
1784
1794
1790
1788
1794
1793
1776
1772
1782
1771
1778
1771
1782
1768
1769
1781
1783
1800
1795
1816
1820
1840
1832
1828
1837
1838
1833
1833
1826
1824
1814
1804
1808
1804
1812
1800
1800
1808
1810
1837
1834
1850
1840
1843
1832
1833
1832
1814
1805
1792
1774
1747
1717
1706
1683
1673
1668
1671
1683
1704
1720
1742
1762
1772
1804
1848
1893
1968
2047
2144
2260
2384
2560
2714
2869
3002
3136
3256
3346
3380
3328
3268
3209
3153
3112
3088
3056
3097
3136
3170
3206
3212
3224
3232
3248
3168
3164
3168
3168
3176
3180
3168
3168
3164
3236
3233
3236
3232
3232
3244
3232
3233
3232
3224
3224
3220
3206
3168
3116
3056
2977
2906
2836
2774
2713
2650
2613
2536
2514
2500
2468
2468
2464
2464
2448
2440
2468
2457
2456
2432
2426
2400
2376
2352
2324
2290
2266
2240
2200
2179
2156
2133
2112
2098
2080
2048
2032
2016
2002
1962
1952
1938
1916
1900
1901
1856
1844
1820
1808
1800
1765
1760
1739
1720
1715
1710
1708
1690
1690
1696
1667
1680
1669
1656
1654
1656
1634
1636
1616
1610
1600
1592
1586
1573
1574
1580
1574
1568
1562
1570
1578
1578
1568
1574
1572
1571
1568
1570
1570
1560
1568
1574
1561
1561
1562
1562
1580
1568
1568
1571
1576
1584
1579
1576
1584
1584
1572
1572
1574
1568
1572
1564
1572
1576
1562
1584
1568
1572
1561
1572
1575
1576
1584
1590
1600
1601
1613
1602
1592
1576
1608
1609
1610
1613
1619
1617
1620
1616
1642
1644
1652
1658
1660
1657
1664
1664
1658
1649
1664
1642
1649
1636
1637
1648
1633
1650
1652
1656
1655
1664
1664
1670
1682
1682
1683
1686
1669
1656
1644
1654
1656
1640
1640
1644
1633
1634
1642
1648
1653
1660
1664
1672
1680
1684
1686
1680
1691
1678
1668
1673
1669
1656
1664
1664
1659
1665
1673
1680
1708
1690
1700
1714
1718
1733
1736
1724
1736
1720
1724
1724
1716
1718
1724
1728
1745
1744
1753
1762
1778
1785
1800
1801
1808
1813
1818
1812
1816
1824
1817
1814
1817
1804
1800
1800
1808
1804
1812
1832
1824
1833
1856
1872
1869
1880
1873
1877
1880
1872
1869
1867
1862
1860
1858
1861
1861
1861
1870
1873
1879
1874
1900
1916
1904
1896
1896
1919
1896
1908
1904
1898
1900
1892
1904
1908
1901
1904
1904
1908
1914
1924
1930
1940
1952
1952
1928
1962
1952
1956
1952
1949
1952
1946
1945
1936
1936
1918
1916
1924
1940
1944
1948
1962
1960
1976
1984
1989
1986
1984
1976
1974
1972
1972
1969
1968
1974
1984
1986
1994
1996
2000
2001
2010
2022
2002
2016
2004
2008
1976
1980
1972
1968
1972
1978
1970
1976
1969
2000
1997
2019
2016
2030
2034
2040
2054
2048
2048
2058
2048
2050
2048
2048
2056
2048
2050
2048
2053
2057
2064
2100
2056
2047
2047
2060
2068
2064
2058
2058
2052
2072
2068
2058
2074
2064
2052
2056
2058
2059
2072
2088
2102
2098
2106
2112
2118
2121
2116
2112
2108
2100
2098
2096
2069
2068
2072
2072
2072
2076
2074
2084
2088
2104
2121
2129
2129
2130
2128
2120
2118
2118
2114
2118
2113
2112
2112
2112
2114
2121
2124
2132
2130
2148
2156
2160
2136
2140
2136
2136
2128
2136
2122
2124
2116
2146
2137
2145
2146
2148
2165
2162
2176
2187
2188
2204
2209
2202
2209
2201
2195
2192
2188
2182
2172
2170
2160
2169
2136
2144
2160
2160
2180
2184
2184
2201
2188
2232
2242
2208
2208
2208
2202
2193
2193
2194
2196
2200
2216
2212
2240
2235
2244
2243
2267
2258
2258
2256
2264
2261
2220
2210
2208
2204
2202
2200
2192
2192
2200
2228
2240
2251
2261
2275
2276
2288
2284
2292
2292
2288
2292
2288
2284
2289
2282
2281
2278
2276
2283
2280
2284
2288
2256
2260
2270
2280
2284
2290
2292
2296
2296
2336
2338
2346
2338
2368
2385
2381
2400
2408
2404
2421
2424
2443
2450
2454
2464
2464
2473
2472
2461
2459
2454
2457
2404
2400
2400
2404
2410
2420
2428
2440
2456
2500
2536
2528
2533
2532
2538
2531
2532
2540
2532
2528
2517
2514
2518
2516
2512
2528
2530
2540
2549
2566
2572
2587
2556
2558
2564
2556
2558
2554
2556
2568
2546
2592
2600
2608
2611
2619
2625
2627
2636
2650
2656
2676
2688
2688
2700
2688
2688
2680
2682
2678
2688
2688
2693
2696
2648
2656
2660
2660
2666
2680
2656
2648
2640
2660
2644
2624
2596
2592
2573
2576
2592
2592
2601
2617
2632
2660
2688
2736
2800
2884
2984
3084
3210
3338
3332
3304
3208
3204
3196
3184
3184
3184
3176
3176
3184
3232
3238
3238
3232
3240
3241
3235
3236
3237
3232
3233
3272
3232
3235
3237
3224
3242
3226
3226
3232
3218
3225
3233
3156
3164
3160
3162
3160
3160
3160
3168
3168
3248
3248
3256
3257
3256
3244
3248
3252
3256
3256
3252
3264
3254
3248
3242
3216
3178
3112
3044
2968
2906
2848
2784
2696
2658
2640
2618
2596
2600
2592
2592
2584
2624
2617
2603
2588
2577
2560
2531
2505
2480
2441
2416
2400
2372
2348
2327
2305
2288
2264
2253
2240
2233
2208
2203
2160
2136
2120
2106
2096
2064
2032
2020
1996
2000
1974
1952
1930
1909
1900
1878
1872
1857
1846
1835
1828
1828
1808
1812
1792
1782
1769
1753
1738
1736
1720
1712
1688
1856
1668
1672
1664
1666
1673
1676
1680
1684
1684
1682
1681
1675
1668
1658
1653
1643
1645
1644
1644
1645
1645
1657
1654
1657
1666
1664
1672
1657
1664
1656
1652
1648
1648
1648
1636
1638
1642
1642
1645
1648
1651
1654
1665
1682
1685
1692
1699
1704
1702
1706
1693
1686
1674
1680
1667
1665
1664
1664
1668
1664
1664
1668
1665
1670
1672
1688
1688
1688
1690
1692
1684
1688
1696
1697
1697
1696
1680
1688
1680
1677
1682
1698
1688
1689
1692
1702
1705
1699
1704
1696
1708
1690
1688
1680
1665
1658
1656
1650
1648
1636
1640
1648
1648
1652
1660
1656
1660
1674
1672
1673
1680
1683
1682
1680
1680
1680
1677
1668
1682
1673
1677
1693
1698
1700
1708
1716
1712
1722
1720
1730
1728
1721
1720
1720
1708
1721
1712
1716
1723
1728
1729
1724
1736
1754
1752
1763
1780
1788
1787
1792
1786
1776
1772
1770
1774
1772
1762
1760
1752
1752
1748
1752
1760
1762
1764
1776
1784
1796
1800
1802
1799
1792
1780
1768
1768
1754
1754
1760
1756
1760
1757
1760
1769
1780
1792
1797
1804
1812
1816
1808
1804
1802
1800
1796
1790
1791
1781
1788
1780
1812
1800
1812
1818
1821
1830
1830
1848
1848
1846
1845
1845
1845
1842
1836
1841
1840
1847
1856
1856
1858
1861
1862
1852
1860
1864
1868
1880
1888
1876
1878
1877
1896
1892
1884
1884
1885
1882
1880
1880
1881
1888
1898
1892
1898
1901
1916
1920
1924
1926
1932
1922
1928
1922
1915
1898
1900
1892
1904
1896
1900
1746
1908
1913
1936
1940
1945
1954
1964
1956
1968
1956
1956
1953
1956
1944
1946
1952
1952
1948
1948
1956
1954
1928
1962
1972
1972
1960
1960
1960
1968
1968
1956
1960
1953
1948
1960
1961
1953
1958
1972
1956
1962
1968
1974
1979
1977
1992
1988
1992
1989
1989
2008
1993
1987
1989
1990
1989
1985
1960
1964
1964
1964
1970
1980
1984
1988
1994
2016
2016
2016
2012
2009
2006
2004
2002
2008
2001
1997
2012
2002
1998
2012
2009
2016
2016
2026
2036
2048
2048
2040
2020
2020
2024
2024
2024
2018
2010
2018
2008
2032
2032
2038
2038
2041
2048
2048
2060
2064
2069
2074
2068
2067
2068
2054
2056
2048
2048
2042
2048
2058
2064
2072
2056
2056
2060
2068
2080
2072
2072
2072
2060
2072
2067
2064
2064
2061
2061
2064
2069
2073
2076
2084
2084
2092
2101
2116
2117
2113
2112
2120
2112
2121
2112
2096
2068
2064
2064
2068
2068
2080
2080
2080
2088
2122
2132
2130
2139
2138
2138
2125
2130
2130
2117
2122
2124
2116
2113
2113
2125
2134
2139
2140
2148
2162
2170
2179
2164
2168
2180
2192
2192
2208
2208
2208
2204
2244
2250
2260
2254
2264
2272
2272
2280
2288
2298
2296
2296
2293
2280
2284
2281
2278
2274
2262
2272
2268
2268
2275
2240
2237
2248
2256
2252
2264
2256
2264
2264
2296
2312
2304
2304
2297
2304
2296
2288
2284
2280
2276
2280
2288
2285
2284
2285
2292
2304
2317
2325
2324
2317
2321
2288
2282
2272
2276
2276
2264
2264
2260
2260
2300
2296
2304
2304
2314
2312
2320
2329
2328
2328
2328
2328
2325
2321
2320
2312
2294
2275
2264
2246
2220
2208
2180
2136
2128
2113
2116
2120
2144
2148
2164
2168
2204
2224
2252
2304
2348
2416
2500
2610
2720
2849
2976
3120
3258
3402
3462
3414
3376
3360
3332
3330
3298
3296
3276
3216
3204
3200
3196
3208
3212
3200
3200
3208
3272
3285
3272
3280
3280
3283
3285
3280
3285
3280
3282
3286
3280
3280
3280
3288
3296
3280
3286
3285
3284
3288
3276
3192
3204
3008
3196
3192
3180
3168
3128
3071
3072
3014
2952
2892
2844
2796
2763
2736
2728
2713
2715
2714
2712
2720
2712
2704
2688
2680
2657
2632
2624
2584
2561
2500
2472
2448
2428
2416
2400
2384
2372
2354
2384
2368
2352
2338
2322
2304
2288
2272
2248
2227
2208
2194
2176
2160
2140
2132
2120
2120
2112
2104
2096
2081
2088
2038
2024
2016
1988
1972
1964
1944
1932
1914
1928
1908
1888
1885
1877
1881
1872
1888
1868
1876
1860
1844
1849
1836
1830
1830
1818
1804
1808
1786
1781
1784
1770
1768
1776
1776
1780
1778
1772
1776
1776
1776
1776
1776
1770
1750
1747
1752
1742
1734
1733
1740
1744
1741
1752
1756
1778
1767
1788
1801
1800
1801
1800
1798
1794
1772
1776
1772
1766
1760
1762
1768
1766
1772
1780
1792
1796
1803
1804
1812
1803
1810
1814
1804
1793
1792
1794
1788
1785
1782
1772
1774
1777
1781
1786
1796
1792
1800
1790
1804
1800
1796
1800
1796
1796
1778
1788
1772
1776
1761
1760
1754
1755
1756
1761
1765
1770
1768
1766
1756
1760
1766
1762
1741
1733
1748
1728
1732
1728
1706
1720
1716
1728
1724
1732
1736
1738
1744
1760
1772
1764
1770
1768
1764
1756
1763
1752
1745
1739
1744
1753
1744
1747
1757
1767
1771
1782
1792
1798
1804
1808
1796
1796
1800
1790
1776
1788
1784
1784
1780
1796
1795
1788
1802
1808
1808
1806
1812
1816
1816
1819
1820
1808
1811
1808
1805
1815
1803
1806
1816
1816
1820
1832
1816
1824
1828
1834
1840
1840
1834
1836
1832
1842
1846
1848
1844
1832
1832
1828
1838
1829
1834
1842
1846
1856
1856
1858
1868
1877
1875
1877
1872
1880
1872
1867
1848
1877
1840
1832
1832
1832
1828
1836
1842
1856
1872
1868
1876
1882
1896
1893
1896
1893
1888
1889
1892
1882
1881
1877
1884
1874
1877
1873
1882
1884
1882
1898
1888
1896
1888
1896
1898
1888
1872
1872
1866
1880
1880
1864
1867
1874
1880
1878
1888
1892
1894
1898
1912
1912
1916
1922
1925
1920
1920
1916
1907
1905
1898
1888
1866
1856
1864
1860
1868
1876
1874
1896
1904
1928
1936
1930
1941
1946
1952
1948
1932
1944
1921
1923
1899
1904
1900
1882
1889
1884
1892
1899
1906
1915
1920
1922
1908
1912
1904
1904
1897
1898
1896
1892
1904
1912
1908
1910
1920
1921
1925
1929
1929
1938
1936
1933
1942
1928
1921
1920
1912
1905
1898
1905
1904
1907
1910
1905
1896
1900
1901
1908
1917
1918
1924
1936
1921
1940
1942
1937
1933
1922
1926
1920
1912
1906
1909
1913
1920
1915
1922
1933
1933
1945
1952
1953
1948
1942
1944
1936
1918
1918
1912
1912
1912
1914
1906
1914
1904
1936
1930
1944
1952
1960
1962
1956
1954
1957
1960
1944
1937
1925
1931
1936
1926
1929
1929
1936
1929
1943
1952
1954
1932
1936
1936
1952
1940
1940
1944
1940
1928
1936
1944
1936
1937
1937
1936
1937
1928
1948
1939
1945
1938
1948
1952
1956
1947
1957
1939
1937
1948
1937
1930
1932
1912
1908
1908
1908
1912
1908
1912
1924
1928
1952
1952
1962
1969
1965
1962
1968
1961
1971
1979
1976
1976
1988
1993
2016
2020
2026
2033
2048
2052
2058
2064
2065
2036
2036
2024
2012
2014
2000
1944
1976
1968
1984
1985
1980
1988
1984
1995
1996
2008
2016
2009
2029
2019
2017
2017
2004
1994
1984
1972
1964
1952
1947
1952
1946
1932
1928
1936
1936
1948
1944
1952
1956
1964
1976
1975
1972
1968
1966
1954
1956
1946
1940
1944
1952
1953
1952
1944
1957
1962
1965
1970
1973
1979
1980
1969
1972
1948
1944
1936
1932
1948
1944
1938
1936
1936
1948
1948
1936
1926
1901
1896
1868
1849
1833
1802
1787
1786
1792
1794
1808
1824
1844
1867
1907
1944
2000
2082
2157
2224
2336
2452
2576
2706
2836
2960
3071
3188
3336
3411
3416
3392
3352
3332
3304
3266
3220
3184
3147
3120
3096
3084
3088
3089
3112
3152
3200
3236
3280
3296
3301
3216
3208
3198
3204
3199
3188
3180
3168
3152
3184
3160
3128
3089
3048
2996
2946
2888
2836
2780
2732
2688
2647
2610
2576
2561
2528
2508
2500
2476
2468
2453
2436
2378
2356
2328
2308
2290
2264
2236
2212
2204
2200
2181
2160
2136
2120
2096
2074
2060
2049
2034
2024
2005
1990
1984
1952
1936
1920
1896
1884
1861
1843
1830
1817
1788
1791
1788
1784
1784
1778
1776
1778
1776
1772
1766
1752
1754
1740
1736
1717
1704
1704
1705
1692
1697
1693
1698
1696
1700
1701
1697
1701
1702
1696
1693
1688
1674
1674
1666
1672
1666
1650
1650
1652
1648
1656
1650
1659
1664
1664
1668
1668
1669
1670
1669
1665
1666
1658
1659
1658
1648
1648
1641
1646
1649
1649
1652
1652
1648
1652
1656
1662
1660
1672
1668
1657
1654
1658
1653
1653
1655
1656
1651
1658
1664
1674
1672
1672
1683
1684
1690
1696
1696
1696
1689
1694
1681
1685
1682
1680
1666
1660
1672
1664
1672
1676
1672
1684
1680
1688
1703
1700
1696
1696
1688
1676
1676
1681
1673
1665
1665
1672
1664
1664
1664
1666
1664
1668
1666
1666
1672
1670
1660
1662
1652
1648
1648
1632
1632
1616
1610
1616
1613
1603
1607
1616
1622
1624
1632
1632
1644
1643
1650
1646
1634
1629
1624
1613
1600
1595
1587
1580
1592
1592
1584
1588
1594
1608
1617
1624
1632
1648
1652
1656
1651
1664
1657
1657
1656
1656
1649
1654
1651
1648
1649
1653
1650
1654
1656
1655
1657
1664
1660
1657
1665
1664
1649
1644
1660
1641
1636
1634
1636
1644
1648
1648
1665
1665
1673
1675
1689
1684
1688
1689
1690
1677
1669
1660
1668
1645
1648
1641
1640
1644
1654
1657
1673
1676
1672
1668
1682
1680
1682
1672
1666
1672
1664
1676
1664
1665
1673
1672
1676
1684
1680
1691
1688
1696
1707
1702
1715
1713
1722
1728
1722
1717
1715
1713
1712
1705
1692
1704
1692
1692
1688
1682
1680
1672
1680
1692
1690
1698
1700
1702
1705
1708
1714
1724
1728
1734
1748
1752
1772
1794
1800
1821
1840
1859
1872
1884
1904
1904
1892
1908
1905
1913
1920
1924
1936
1940
1944
1960
1954
1949
1939
1922
1915
1872
1842
1810
1786
1752
1728
1688
1669
1658
1632
1626
1640
1665
1696
1738
1792
1846
1880
1941
1994
2068
2154
2258
2352
2476
2610
2800
2968
3136
3306
3481
3480
3436
3400
3376
3352
3350
3336
3317
3316
3308
3296
3308
3301
3296
3284
3291
3288
3290
3220
3208
3202
3208
3200
3208
3200
3208
3198
3444
3269
3276
3276
3274
3280
3280
3274
3273
3272
3280
3272
3280
3272
3266
3272
3291
3276
3274
3286
3272
3280
3268
3196
3194
3176
3172
3071
2922
2728
2516
2303
2120
1936
1780
1664
1562
1510
1473
1472
1461
1488
1502
1514
1536
1528
1517
1505
1484
1456
1401
1360
1312
1265
1200
1181
1142
1100
1070
1048
1021
1017
993
982
948
945
938
934
924
913
905
891
874
867
856
848
824
817
804
794
790
787
781
776
770
771
772
808
808
784
776
768
772
760
737
712
712
701
693
688
677
673
669
672
674
664
652
656
643
637
636
616
600
593
570
576
557
551
553
576
576
584
582
568
569
567
564
516
512
493
491
470
450
439
424
408
402
404
396
393
405
405
413
419
433
445
446
453
453
458
448
492
480
472
454
458
455
449
454
408
427
430
446
460
472
491
512
530
545
556
568
581
596
609
621
640
646
670
693
720
738
747
770
824
846
866
893
922
944
962
973
972
996
1005
1024
1051
1069
1088
1106
1146
1172
1195
1225
1248
1280
1309
1340
1357
1384
1399
1420
1424
1446
1448
1451
1456
1458
1468
1476
1488
1496
1512
1528
1548
1568
1578
1596
1608
1605
1620
1620
1622
1620
1632
1629
1626
1624
1629
1632
1633
1641
1641
1641
1648
1658
1653
1657
1652
1648
1648
1656
1649
1648
1632
1636
1632
1632
1632
1640
1641
1652
1660
1668
1669
1683
1701
1718
1708
1723
1721
1729
1732
1715
1709
1704
1698
1688
1674
1688
1664
1668
1668
1668
1684
1688
1684
1688
1696
1716
1723
1723
1715
1714
1722
1734
1729
1724
1715
1716
1710
1704
1706
1707
1701
1700
1707
1724
1725
1735
1737
1739
1730
1730
1732
1732
1728
1740
1736
1736
1738
1748
1755
1765
1761
1760
1762
1770
1781
1773
1780
1778
1782
1771
1784
1780
1773
1769
1769
1788
1782
1779
1776
1768
1756
1756
1768
1768
1760
1756
1748
1776
1769
1780
1792
1788
1786
1792
1793
1804
1792
1795
1796
1801
1808
1820
1821
1818
1806
1803
1804
1793
1796
1798
1796
1792
1780
1784
1782
1791
1792
1800
1800
1804
1810
1828
1835
1837
1846
1840
1842
1840
1840
1836
1826
1827
1833
1836
1828
1821
1828
1830
1834
1834
1841
1856
1864
1868
1856
1864
1856
1866
1860
1860
1856
1856
1850
1865
1861
1862
1852
1856
1849
1856
1856
1860
1865
1870
1869
1865
1867
1868
1864
1861
1860
1852
1856
1856
1862
1862
1840
1836
1828
1840
1840
1853
1854
1852
1864
1884
1880
1884
1890
1892
1882
1874
1872
1859
1860
1858
1860
1863
1870
1874
1881
1883
1888
1904
1804
1912
1912
1915
1890
1896
1886
1880
1880
1880
1873
1880
1881
1896
1904
1912
1924
1923
1933
1932
1928
1912
1920
1906
1898
1896
1894
1972
1898
1890
1896
1899
1901
1905
1909
1912
1904
1908
1910
1912
1921
1916
1920
1919
1914
1924
1920
1913
1913
1916
1908
1908
1920
1928
1920
1921
1928
1938
1937
1949
1956
1958
1960
1952
1944
1937
1929
1920
1905
1898
1890
1904
1892
1904
1896
1904
1913
1928
1933
1952
1956
1961
1964
1974
1973
1966
1968
1968
1966
1955
1953
1952
1944
1953
1952
1953
1956
1958
1963
1961
1952
1948
1946
1944
1956
1956
1946
1952
1940
1968
1968
1968
1976
1973
1976
1990
1992
1992
1996
1992
1979
1978
1972
1979
1968
1961
1966
1964
1960
1968
1962
1958
1940
1940
1941
1948
1956
1960
1968
1972
1976
2000
1989
1985
1988
1974
1975
1972
1964
1964
1962
1956
1965
1968
1984
1976
1974
1996
1994
1994
2004
2009
2012
2009
1994
1984
1988
1988
1980
1968
1956
1948
1944
1952
1956
1960
1968
1974
1980
1992
2000
2008
2025
2022
2020
2022
2017
2013
2011
1994
1989
1984
1984
1970
1977
1980
1970
1956
1968
1976
1994
1988
1992
1994
1996
2020
2018
2005
2002
2000
1994
1993
1988
1992
1992
2000
2006
2013
2025
2034
2030
2048
2048
2033
2032
2026
2016
2008
1970
1964
1960
1960
1956
1952
1960
1968
1972
1996
2000
1996
2005
2008
2010
2016
2010
2010
2009
2020
2012
2006
2013
2008
2006
2003
1992
1994
1993
2001
1996
2013
1988
2002
1996
2004
2004
2000
1986
1976
1978
1985
1993
1994
1992
1994
1995
2000
2000
2008
2005
2013
2021
2035
2050
2068
2072
2088
2088
2090
2112
2100
2106
2112
2088
2084
2096
2096
2104
2104
2108
2104
2100
2120
2122
2108
2099
2093
2086
2085
2080
2074
2076
2072
2060
2068
2060
2064
2075
2076
2084
2088
2085
2085
2070
2068
2032
2020
2004
2001
1992
1988
1984
1994
1982
2004
2005
2004
2001
2009
2009
2016
2018
2021
2024
2016
2008
2017
2016
2004
2006
2006
2012
2010
2012
1997
2008
2009
1984
1980
1992
1992
1988
1988
1988
1988
1992
2012
2016
1994
1984
1965
1953
1930
1912
1891
1875
1866
1868
1866
1872
1897
1920
1944
1952
1976
1990
2032
2068
2133
2168
2252
2356
2440
2568
2680
2800
2924
3024
3184
3266
3332
3360
3368
3336
3304
3248
3168
3088
3008
2932
2886
2860
2840
2856
2885
2916
2969
3024
3080
3136
3185
3152
3172
3176
3168
3140
3120
3070
3044
3004
3016
2970
2933
2906
2866
2842
2802
2768
2744
2708
2664
2640
2597
2560
2531
2496
2450
2420
2374
2340
2310
2282
2258
2210
2192
2176
2164
2152
2152
2140
2144
2132
2136
2118
2097
2074
2048
2028
2002
1989
1970
1949
1941
1916
1901
1892
1864
1852
1840
1835
1813
1821
1812
1808
1800
1780
1768
1760
1748
1738
1744
1734
1724
1730
1730
1716
1720
1720
1717
1714
1720
1722
1704
1704
1706
1692
1684
1684
1670
1669
1669
1668
1677
1664
1668
1668
1681
1661
1672
1680
1673
1680
1674
1668
1668
1660
1666
1664
1656
1655
1664
1652
1656
1650
1651
1652
1654
1664
1656
1673
1672
1675
1685
1686
1697
1696
1684
1674
1668
1648
1628
1624
1613
1552
1608
1612
1616
1624
1640
1648
1657
1667
1668
1674
1667
1664
1664
1657
1643
1633
1632
1626
1621
1620
1629
1628
1628
1640
1646
1652
1648
1648
1658
1660
1656
1652
1654
1650
1640
1644
1644
1656
1645
1646
1644
1653
1649
1656
1672
1675
1678
1684
1696
1691
1692
1682
1677
1660
1652
1640
1641
1636
1636
1628
1800
1636
1648
1652
1662
1669
1672
1680
1704
1698
1701
1700
1704
1688
1687
1686
1684
1677
1681
1688
1676
1686
1680
1689
1697
1712
1700
1709
1706
1708
1706
1700
1696
1696
1692
1696
1692
1692
1700
1701
1700
1713
1718
1722
1732
1744
1736
1760
1763
1765
1766
1766
1766
1764
1760
1744
1744
1747
1736
1734
1732
1737
1747
1750
1756
1768
1776
1785
1788
1789
1796
1790
1804
1796
1795
1779
1778
1772
1780
1776
1778
1784
1788
1804
1796
1809
1820
1814
1801
1796
1780
1770
1778
1768
1773
1752
1754
1757
1760
1752
1768
1764
1768
1776
1788
1804
1812
1816
1821
1821
1824
1832
1828
1824
1832
1824
1826
1828
1816
1810
1816
1805
1808
1813
1812
1805
1816
1804
1818
1818
1816
1820
1818
1816
1816
1818
1840
1836
1836
1838
1840
1843
1859
1851
1860
1856
1852
1856
1860
1861
1869
1873
1865
1867
1873
1862
1864
1862
1862
1844
1850
1856
1848
1858
1864
1850
1860
1858
1868
1868
1859
1856
1856
1852
1849
1845
1838
1830
1835
1833
1837
1844
1846
1851
1859
1861
1873
1870
1874
1866
1858
1840
1834
1834
1829
1824
1817
1824
1836
1828
1840
1850
1861
1868
1872
1881
1884
1890
1896
1884
1867
1875
1862
1856
1847
1850
1841
1840
1836
1835
1848
1848
1850
1840
1848
1852
1872
1872
1868
1876
1872
1872
1876
1859
1857
1848
1848
1840
1837
1840
1842
1843
1856
1862
1864
1866
1864
1864
1864
1859
1860
1860
1856
1862
1857
1832
1824
1828
1818
1828
1828
1660
1828
1832
1860
1864
1872
1888
1893
1904
1920
1925
1931
1936
1943
1948
1945
1946
1960
1960
1968
1968
1969
1964
1972
1980
1988
1960
1956
1952
1940
1925
1912
1908
1890
1884
1889
1880
1868
1876
1872
1870
1872
1878
1883
1892
1901
1904
1908
1910
1914
1905
1898
1892
1884
1882
1870
1876
1874
1864
1864
1873
1856
1852
1850
1850
1860
1864
1880
1884
1893
1893
1892
1884
1889
1890
1888
1888
1877
1882
1882
1872
1874
1865
1865
1866
1869
1872
1874
1884
1878
1860
1864
1860
1856
1852
1846
1848
1836
1825
1826
1808
1792
1768
1746
1730
1710
1698
1692
1697
1716
1720
1741
1763
1792
1817
1858
1920
1973
2054
2144
2248
2358
2444
2576
2712
2848
2976
3068
3152
3216
3240
3308
3281
3216
3128
3032
2928
2832
2752
2692
2658
2648
2656
2690
2736
2793
2861
2924
2984
3040
3090
3099
3104
3080
2992
2948
2900
2864
2808
2756
2712
2676
2640
2664
2640
2624
2592
2569
2544
2504
2483
2432
2385
2352
2312
2268
2216
2182
2154
2120
2108
2089
2075
2064
2056
2052
2020
2016
2010
1992
1986
1968
1956
1928
1904
1904
1889
1862
1850
1835
1817
1817
1816
1798
1803
1792
1786
1782
1774
1776
1754
1746
1748
1731
1721
1728
1712
1707
1696
1692
1704
1704
1700
1704
1700
1708
1708
1714
1714
1713
1709
1705
1709
1696
1690
1685
1684
1682
1674
1677
1677
1666
1668
1672
1676
1685
1684
1683
1682
1688
1674
1672
1672
1670
1664
1664
1654
1656
1656
1658
1651
1666
1668
1670
1669
1681
1696
1696
1696
1708
1707
1708
1712
1704
1709
1701
1688
1688
1684
1685
1684
1682
1676
1680
1694
1704
1709
1704
1712
1704
1704
1700
1698
1687
1691
1682
1681
1692
1682
1696
1685
1710
1706
1712
1721
1730
1729
1756
1757
1760
1764
1746
1748
1748
1728
1712
1708
1696
1688
1704
1696
1692
1692
1720
1713
1732
1735
1736
1744
1741
1737
1729
1728
1728
1716
1712
1707
1698
1706
1700
1687
1686
1672
1677
1666
1674
1660
1664
1664
1657
1656
1668
1656
1644
1644
1644
1636
1650
1643
1648
1638
1640
1653
1654
1657
1670
1665
1681
1681
1688
1688
1691
1681
1681
1674
1669
1669
1659
1648
1640
1644
1640
1649
1660
1656
1663
1680
1690
1704
1722
1728
1736
1730
1744
1734
1728
1728
1728
1720
1719
1712
1713
1722
1716
1714
1722
1723
1733
1734
1754
1736
1738
1740
1736
1716
1716
1700
1714
1701
1712
1713
1710
1706
1720
1710
1722
1730
1730
1744
1733
1742
1729
1732
1728
1723
1723
1728
1728
1712
1713
1716
1728
1713
1724
1732
1738
1744
1756
1748
1748
1760
1762
1752
1752
1748
1748
1739
1737
1736
1734
1734
1739
1744
1749
1757
1765
1770
1782
1782
1800
1793
1809
1794
1795
1784
1772
1768
1769
1760
1760
1764
1762
1760
1776
1773
1792
1802
1808
1814
1818
1820
1816
1816
1816
1808
1798
1792
1792
1782
1781
1787
1784
1784
1794
1803
1804
1800
1808
1808
1812
1808
1808
1812
1808
1810
1820
1817
1828
1818
1818
1811
1809
1808
1803
1811
1808
1808
1809
1808
1816
1816
1808
1805
1800
1800
1798
1797
1792
1788
1780
1778
1776
1784
1796
1792
1802
1794
1828
1825
1820
1826
1816
1817
1814
1802
1800
1796
1792
1801
1796
1792
1788
1794
1804
1812
1802
1808
1821
1824
1826
1812
1808
1808
1808
1790
1796
1794
1804
1794
1808
1798
1794
1796
1808
1808
1812
1814
1814
1811
1816
1817
1805
1798
1786
1792
1784
1774
1768
1766
1760
1748
1769
1761
1772
1784
1808
1824
1828
1846
1848
1848
1876
1868
1874
1873
1873
1877
1872
1874
1888
1890
1888
1890
1892
1885
1890
1891
1888
1885
1881
1872
1864
1849
1856
1838
1866
1820
1820
1816
1824
1824
1820
1824
1832
1830
1837
1826
1824
1829
1824
1829
1817
1802
1802
1792
1792
1779
1771
1764
1763
1753
1757
1762
1756
1757
1776
1769
1772
1781
1784
1792
1788
1786
1790
1780
1784
1785
1784
1776
1716
1765
1866
1764
1766
1764
1773
1776
1782
1784
1779
1782
1780
1776
1773
1765
1753
1749
1736
1708
1690
1680
1656
1636
1628
1604
1600
1600
1601
1610
1621
1632
1642
1657
1677
1720
1760
1832
1914
2008
2124
2240
2373
2518
2664
2793
2916
3013
3088
3136
3168
3080
3040
2972
2888
2800
2708
2624
2556
2504
2520
2504
2510
2533
2572
2624
2672
2736
2788
2834
2864
2866
2872
2848
2817
2772
2726
2666
2616
2570
2514
2480
2432
2354
2324
2288
2258
2220
2186
2160
2128
2088
2068
2022
1986
1947
1912
1876
1849
1812
1792
1765
1744
1736
1725
1720
1714
1720
1721
1720
1710
1706
1688
1668
1648
1620
1592
1584
1569
1552
1538
1528
1528
1522
1520
1523
1520
1525
1528
1524
1526
1525
1536
1532
1507
1497
1482
1472
1467
1464
1461
1452
1445
1448
1444
1448
1446
1444
1453
1453
1458
1454
1452
1456
1468
1448
1446
1437
1429
1437
1432
1434
1419
1425
1420
1420
1416
1421
1424
1430
1428
1430
1430
1429
1429
1418
1427
1412
1416
1416
1406
1407
1410
1420
1414
1412
1424
1420
1430
1425
1426
1438
1448
1443
1440
1440
1425
1414
1408
1390
1384
1381
1384
1382
1384
1384
1394
1400
1417
1419
1422
1436
1440
1448
1444
1440
1436
1372
1424
1418
1400
1392
1412
1396
1381
1385
1396
1401
1409
1418
1416
1426
1419
1421
1408
1418
1412
1412
1400
1400
1402
1400
1395
1400
1392
1392
1390
1388
1392
1384
1390
1380
1378
1373
1368
1362
1356
1352
1349
1334
1328
1321
1320
1312
1304
1304
1302
1303
1309
1312
1320
1320
1323
1312
1304
1302
1296
1298
1300
1288
1278
1272
1268
1274
1260
1262
1271
1283
1280
1284
1296
1298
1314
1304
1308
1301
1297
1296
1285
1272
1268
1265
1254
1258
1251
1253
1267
1282
1288
1300
1316
1321
1312
1310
1308
1320
1290
1282
1286
1274
1269
1264
1271
1268
1262
1253
1258
1266
1282
1282
1280
1288
1288
1302
1301
1300
1309
1302
1290
1298
1279
1268
1266
1277
1270
1274
1268
1272
1268
1284
1291
1289
1286
1274
1280
1281
1274
1257
1245
1254
1244
1252
1245
1254
1248
1261
1260
1261
1252
1249
1250
1252
1256
1252
1248
1249
1261
1252
1256
1260
1248
1248
1241
1243
1258
1244
1245
1249
1264
1267
1257
1268
1274
1274
1275
1272
1269
1258
1266
1253
1241
1237
1242
1250
1249
1256
1252
1265
1270
1252
1252
1262
1250
1252
1244
1246
1244
1237
1239
1234
1237
1232
1230
1232
1228
1226
1232
1221
1234
1224
1238
1236
1248
1248
1244
1249
1250
1242
1248
1244
1240
1228
1220
1220
1216
1219
1210
1208
1223
1216
1228
1229
1224
1226
1225
1210
1218
1206
1205
1196
1195
1185
1188
1182
1184
1192
1180
1200
1210
1214
1212
1224
1218
1220
1220
1218
1205
1195
1192
1188
1180
1169
1180
1160
1161
1156
1152
1146
1146
1161
1156
1175
1163
1158
1156
1153
1154
1156
1160
1176
1168
1168
1176
1176
1178
1181
1177
1184
1164
1170
1176
1168
1168
1160
1160
1154
1157
1152
1138
1136
1129
1130
1044
1117
1118
1115
1120
1109
1135
1146
1156
1178
1194
1204
1212
1220
1219
1217
1236
1234
1237
1220
1228
1232
1232
1230
1240
1242
1244
1238
1248
1227
1225
1206
1206
1189
1180
1169
1164
1159
1148
1148
1155
1160
1156
1162
1166
1172
1180
1184
1192
1181
1157
1152
1140
1137
1128
1126
1129
1120
1120
1129
1120
1116
1118
1112
1112
1100
1098
1096
1107
1112
1116
1114
1118
1136
1150
1138
1136
1133
1128
1132
1136
1140
1108
1112
1116
1122
1116
1123
1133
1136
1132
1126
1126
1130
1128
1121
1116
1112
1112
1098
1090
1074
1056
1036
1018
1022
1008
994
976
980
980
988
1004
1018
1017
1030
1059
1089
1133
1193
1261
1352
1462
1574
1710
1837
1987
2117
2248
2361
2458
2517
2545
2560
2522
2468
2378
2252
2132
2034
1937
1856
1800
1750
1736
1728
1752
1784
1824
1865
1916
1952
1978
1997
1984
1971
1952
1905
1870
1821
1760
1709
1652
1602
1557
1521
1472
1442
1392
1357
1312
1268
1232
1190
1169
1124
1108
1077
1034
1024
1014
1009
1008
1006
1019
1021
1024
1025
1032
1024
1018
1015
1013
1011
995
995
981
974
982
979
976
994
1002
1002
1010
1011
1023
1036
1030
1037
1018
1017
1015
1002
1011
1000
1001
998
997
984
990
981
1004
994
992
1005
1012
1010
1036
1034
1040
1040
1044
1056
1064
1052
1050
1032
1062
1045
1046
1032
1026
1024
1016
1017
1012
1013
1004
1012
1005
1008
1010
1000
1008
1005
1002
1011
1005
1016
1013
1024
1024
1036
1041
1070
1070
1080
1089
1084
1096
1086
1088
1084
1072
1065
1072
1056
1058
1062
1062
1064
1064
1069
1084
1089
1101
1114
1120
1123
1129
1129
1116
1120
1105
1104
1092
1112
1106
1104
1116
1116
1116
1113
1128
1140
1128
1128
1134
1140
1145
1152
1142
1138
1129
1131
1126
1124
1130
1126
1120
1116
1121
1122
1133
1128
1131
1138
1138
1158
1164
1160
1160
1160
1154
1156
1145
1144
1122
1120
1106
1104
1105
1097
1101
1112
1110
1114
1118
1108
1110
1102
1104
1102
1090
1077
1068
1072
1060
1062
1066
1072
1082
1080
1080
916
1090
1088
1098
1106
1096
1093
1094
1096
1093
1081
1088
1082
1090
1094
1094
1094
1098
1096
1104
1108
1112
1117
1137
1143
1137
1138
1133
1152
1150
1148
1146
1130
1136
1146
1146
1148
1138
1144
1157
1165
1168
1169
1188
1188
1180
1165
1174
1164
1147
1140
1130
1136
1126
1120
1115
1116
1123
1125
1132
1160
1164
1184
1185
1192
1200
1194
1192
1188
1170
1152
1149
1145
1145
1146
1138
1148
1154
1152
1162
1170
1190
1196
1213
1224
1224
1236
1234
1238
1226
1224
1218
1226
1225
1220
1232
1213
1208
1208
1212
1208
1204
1206
1217
1217
1219
1217
1220
1228
1212
1225
1218
1225
1229
1227
1232
1226
1237
1228
1225
1229
1229
1234
1241
1248
1258
1256
1253
1252
1252
1240
1240
1232
1220
1210
1218
1222
1216
1211
1228
1224
1234
1248
1241
1252
1252
1259
1254
1259
1252
1248
1248
1249
1245
1240
1240
1250
1250
1256
1266
1269
1280
1280
1288
1288
1288
1286
1286
1293
1276
1271
1266
1253
1256
1240
1245
1249
1259
1255
1265
1272
1281
1281
1282
1306
1312
1306
1310
1312
1304
1304
1308
1298
1292
1290
1300
1313
1284
1294
1281
1292
1288
1289
1290
1308
1306
1308
1306
1324
1321
1305
1314
1304
1300
1309
1291
1302
1280
1277
1282
1296
1296
1301
1304
1308
1316
1312
1325
1328
1322
1316
1318
1315
1325
1328
1322
1323
1331
1328
1337
1322
1336
1325
1320
1324
1320
1316
1314
1306
1317
1308
1304
1316
1325
1328
1356
1356
1369
1404
1402
1436
1445
1450
1460
1474
1477
1488
1489
1490
1497
1485
1477
1469
1460
1445
1429
1417
1410
1401
1397
1390
1384
1408
1397
1412
1416
1418
1428
1444
1440
1442
1434
1426
1416
1408
1402
1398
1386
1376
1381
1365
1384
1385
1394
1402
1412
1415
1421
1424
1421
1418
1414
1408
1402
1400
1404
1410
1410
1412
1420
1429
1432
1436
1440
1442
1444
1448
1451
1437
1441
1432
1429
1429
1425
1422
1412
1412
1418
1411
1412
1419
1417
1428
1428
1434
1444
1436
1432
1298
1400
1377
1346
1328
1304
1288
1279
1284
1284
1299
1328
1344
1370
1414
1445
1506
1564
1640
1730
1813
1923
2033
2144
2272
2403
2506
2596
2672
2714
2744
2746
2680
2624
2559
2492
2404
2336
2268
2220
2192
2200
2212
2224
2240
2288
2324
2368
2408
2445
2469
2481
2488
2472
2443
2424
2382
2336
2304
2256
2201
2164
2118
2080
2021
1984
1952
1912
1872
1837
1797
1760
1730
1704
1668
1648
1624
1592
1574
1550
1536
1510
1501
1483
1472
1459
1444
1434
1426
1411
1412
1413
1414
1420
1428
1442
1445
1450
1452
1448
1458
1458
1454
1428
1428
1416
1397
1389
1376
1376
1363
1362
1362
1374
1381
1381
1402
1404
1413
1421
1425
1425
1430
1427
1425
1419
1416
1424
1416
1420
1407
1421
1410
1412
1424
1430
1440
1432
1444
1448
1460
1460
1468
1462
1468
1457
1454
1458
1452
1448
1451
1450
1403
1460
1475
1475
1480
1486
1488
1488
1494
1490
1498
1500
1508
1521
1517
1514
1520
1529
1530
1525
1528
1532
1537
1542
1544
1554
1560
1556
1569
1562
1560
1556
1552
1556
1552
1552
1558
1565
1568
1578
1584
1576
1588
1592
1604
1608
1620
1624
1624
1624
1632
1624
1630
1617
1624
1616
1624
1621
1626
1632
1640
1653
1654
1667
1672
1676
1680
1677
1683
1672
1670
1666
1644
1638
1640
1632
1626
1624
1622
1622
1632
1644
1655
1666
1672
1673
1688
1684
1681
1673
1664
1664
1654
1650
1636
1639
1632
1625
1622
1620
1614
1618
1620
1630
1628
1640
1644
1640
1652
1656
1656
1658
1670
1680
1668
1680
1682
1681
1688
1691
1698
1699
1706
1716
1720
1729
1734
1729
1738
1740
1745
1744
1748
1748
1744
1761
1745
1752
1758
1768
1768
1772
1784
1786
1794
1818
1824
1826
1825
1827
1832
1828
1824
1825
1804
1802
1800
1797
1796
1801
1808
1810
1819
1826
1836
1845
1846
1864
1848
1856
1852
1841
1848
1844
1840
1840
1844
1849
1856
1857
1865
1860
1859
1865
1866
1875
1857
1880
1884
1888
1885
1888
1894
1891
1888
1896
1904
1902
1912
1912
1904
1912
1924
1944
1952
1952
1968
1960
1968
1976
1971
1966
1957
1952
1952
1949
1940
1944
1940
1945
1960
1968
1980
1988
2001
2010
2016
2033
2022
2025
2038
2021
2004
2008
2004
2000
1992
1992
1988
2000
1997
2026
2021
2048
2060
2068
2073
2081
2088
2084
2088
2089
2084
2080
2072
2076
2072
2073
2080
2085
2086
2092
2101
2108
2084
2084
2090
2100
2100
2098
2092
2096
2084
2112
2112
2105
2105
2092
2102
2106
2104
2112
2120
2123
2135
2144
2144
2153
2147
2146
2144
2145
2152
2144
2146
2140
2132
2136
2128
2136
2136
2144
2149
2164
2164
2192
2201
2210
2213
2204
2208
2200
2204
2205
2208
2192
2208
2204
2212
2214
2233
2241
2256
2254
2272
2288
2292
2296
2270
2273
2272
2276
2274
2272
2270
2272
2272
2296
2308
2305
2313
2308
2328
2336
2346
2357
2368
2392
2393
2396
2405
2414
2404
2410
2408
2408
2416
2424
2432
2436
2408
2420
2428
2440
2448
2464
2464
2468
2460
2512
2515
2533
2544
2560
2577
2588
2601
2617
2635
2646
2656
2680
2692
2712
2720
2737
2738
2768
2762
2764
2764
2794
2720
2720
2724
2724
2712
2728
2728
2736
2740
2792
2828
2822
2832
2848
2848
2860
2864
2857
2857
2850
2852
2848
2848
2840
2836
2842
2836
2848
2853
2864
2870
2880
2832
2840
2844
2858
2850
2852
2836
2852
2836
2904
2905
2908
2898
2904
2912
2916
2922
2928
2928
2929
2940
2936
2938
2934
2932
2928
2924
2917
2912
2914
2906
2905
2848
3012
2848
2864
2872
2864
2864
2860
2856
2896
2888
2860
2848
2837
2820
3017
2816
2818
2821
2832
2828
2825
2832
2849
2872
2930
2984
3064
3144
3264
3348
3360
3256
3244
3236
3224
3224
3216
3216
3212
3200
3272
3272
3280
3269
3284
3282
3274
3280
3281
3280
3280
3280
3276
3277
3274
3274
3288
3287
3284
3280
3286
3280
3296
3208
3216
3208
3208
3208
3216
3204
3208
3208
3280
3277
3288
3282
3282
3300
3281
3296
3289
3288
3284
3277
3280
3273
3276
3264
3253
3204
3144
3080
3016
2956
2896
2792
2752
2724
2704
2688
2682
2672
2664
2668
2704
2700
2704
2692
2688
2672
2658
2645
2628
2605
2576
2561
2530
2516
2497
2476
2472
2464
2452
2448
2440
2440
2432
2384
2372
2360
2344
2324
2306
2292
2276
2257
2272
2260
2244
2232
2221
2211
2200
2194
2200
2194
2187
2187
2176
2160
2152
2138
2130
2112
2098
2073
2062
2057
2048
2012
2000
1992
1996
2000
1994
1994
1981
1988
2000
2006
2001
1984
1986
1988
1977
1964
1954
1948
1936
1929
1922
1924
1912
1914
1920
1913
1914
1920
1931
1944
1936
1924
1924
1940
1936
1936
1928
1920
1919
1912
1920
1922
1922
1920
1924
1930
1934
1942
1945
1948
1962
1956
1960
1962
1956
1962
1955
1960
1956
1949
1945
1952
1942
1924
1928
1928
1932
1940
1952
1946
1940
1936
1946
1938
1933
1928
1930
1921
1920
1912
1928
1920
1925
1920
1921
1922
1924
1920
1924
1922
1928
1936
1936
1920
1916
1888
1877
1876
1876
1866
1868
1712
1868
1868
1888
1896
1906
1909
1921
1928
1934
1937
1940
1946
1934
1933
1922
1922
1913
1912
1921
1920
1930
1929
1933
1942
1956
1940
1952
1956
1969
1978
1976
1970
1972
1970
1988
1984
1989
1985
1984
1979
1984
1984
1989
1989
1998
2008
2016
2034
2034
2048
2048
2057
2050
2048
2052
2048
2040
2018
2018
2026
2016
2024
2034
2032
2036
2040
2072
2080
2080
2085
2084
2084
2080
2086
2081
2066
2073
2080
2084
2082
2085
2098
2088
2097
2100
2106
2114
2112
2128
2092
2100
2096
2098
2096
2100
2096
2092
2098
2116
2123
2124
2133
2133
2148
2154
2166
2176
2193
2197
2208
2202
2213
2221
2216
2216
2208
2204
2200
2192
2192
2189
2162
2162
2170
2184
2184
2188
2200
2208
2218
2248
2250
2257
2260
2260
2260
2254
2256
2256
2252
2253
2256
2257
2258
2264
2268
2283
2276
2282
2286
2274
2288
2280
2252
2252
2260
2260
2260
2264
2272
2274
2276
2316
2315
2316
2316
2331
2329
2344
2346
2342
2337
2340
2336
2338
2336
2345
2330
2344
2341
2348
2352
2353
2360
2372
2336
2340
2352
2352
2344
2356
2346
2344
2344
2372
2377
2368
2368
2368
2368
2353
2360
2354
2360
2362
2376
2378
2385
2395
2389
2394
2392
2381
2385
2376
2373
2374
2336
2336
2336
2336
2336
2340
2344
2360
2364
2408
2417
2417
2416
2400
2384
2377
2368
2360
2354
2344
2344
2358
2352
2361
2357
2372
2371
2368
2372
2388
2381
2386
2352
2352
2348
2346
2344
2370
2328
2328
2316
2340
2346
2332
2338
2342
2342
2348
2356
2360
2354
2352
2356
2346
2352
2348
2342
2338
2348
2344
2344
2344
2336
2352
2306
2312
2316
2320
2320
2320
2312
2312
2314
2344
2349
2336
2336
2320
2320
2314
2314
2304
2296
2289
2308
2304
2304
2310
2325
2324
2328
2337
2338
2338
2336
2328
2290
2274
2268
2264
2268
2248
2248
2256
2242
2272
2272
2280
2285
2290
2305
2313
2338
2346
2348
2352
2352
2357
2358
2349
2349
2352
2354
2362
2352
2361
2368
2372
2336
2344
2242
2340
2336
2344
2332
2336
2320
2344
2337
2341
2337
2326
2336
2324
2322
2330
2328
2336
2336
2340
2338
2344
2337
2344
2332
2322
2320
2308
2296
2294
2256
2256
2252
2256
2248
2260
2252
2256
2262
2296
2293
2288
2289
2280
2290
2288
2277
2282
2281
2272
2276
2272
2264
2265
2258
2264
2265
2266
2265
2268
2265
2264
2236
2232
2232
2236
2224
2224
2224
2224
2212
2228
2216
2216
2192
2193
2176
2150
2132
2140
2115
2129
2114
2120
2124
2128
2128
2144
2156
2176
2194
2256
2315
2400
2452
2559
2684
2814
2952
3092
3220
3336
3336
3376
3340
3336
3328
3312
3296
3296
3292
3296
3284
3276
3280
3288
3280
3273
3276
3287
3288
3276
3281
3280
3274
3280
3208
3204
3208
3198
3204
3208
3200
3196
3208
3268
3276
3268
3280
3280
3269
3254
3210
3152
3081
3008
2930
2860
2788
2728
2688
2640
2616
2584
2580
2576
2568
2562
2512
2504
2504
2492
2474
2448
2428
2400
2380
2392
2362
2346
2324
2296
2276
2252
2232
2224
2209
2200
2188
2176
2166
2157
2144
2132
2112
2099
2074
2057
2034
2016
1972
1968
1940
1941
1919
1904
1901
1901
1900
1908
1908
1914
1913
1900
1896
1892
1867
1856
1838
1836
1824
1821
1810
1816
1802
1803
1808
1813
1816
1819
1824
1824
1809
1804
1802
1791
1776
1776
1770
1776
1768
1784
1782
1782
1794
1802
1808
1808
1808
1799
1800
1801
1798
1795
1792
1780
1769
1773
1772
1768
1764
1760
1760
1760
1752
1760
1765
1774
1786
1802
1800
1804
1808
1824
1828
1824
1825
1818
1828
1813
1811
1812
1809
1804
1812
1814
1818
1820
1825
1832
1844
1845
1850
1858
1868
1868
1856
1890
1844
1849
1848
1842
1836
1840
1836
1856
1848
1850
1849
1849
1858
1849
1856
1869
1861
1856
1860
1858
1846
1846
1837
1838
1830
1826
1830
1825
1837
1834
1830
1832
1844
1844
1840
1848
1836
1832
1832
1824
1817
1810
1816
1810
1808
1803
1801
1805
1810
1818
1820
1829
1834
1845
1844
1848
1856
1861
1856
1861
1864
1848
1834
1836
1824
1828
1828
1820
1820
1826
1840
1852
1859
1868
1874
1880
1899
1892
1898
1904
1906
1902
1904
1898
1888
1882
1879
1876
1861
1856
1860
1879
1872
1884
1872
1872
1884
1888
1884
1880
1880
1868
1876
1888
1894
1893
1897
1904
1892
1901
1904
1910
1920
1920
1925
1936
1932
1928
1924
1924
1921
1904
1911
1912
1909
1905
1900
1904
1904
1906
1918
1928
1928
1932
1940
1956
1952
1942
1946
1938
1947
1938
1936
1928
1936
1937
1939
1944
1952
1954
1954
1965
1968
1984
1981
1984
1990
1989
1970
1972
1968
1976
1969
1970
1968
1964
1958
1988
1984
1986
1987
1986
1994
1994
2002
2001
2008
2012
2016
2023
2020
2021
2024
2024
2028
2030
2036
2028
2048
2036
2024
2024
2024
2020
2032
2024
2024
2010
2008
2026
2021
2033
2026
2020
2032
2028
2032
2032
2048
2050
2058
2061
2070
2080
2080
2076
2080
2076
2070
2067
2068
2071
2040
2036
2047
2036
2044
2036
2036
2044
2056
2072
2092
2100
2102
2112
2112
2112
2104
2097
2088
2080
2066
2072
2066
2069
2069
2075
2077
2080
2076
2084
2081
2098
2080
2074
2080
2080
2084
2080
2042
2080
2084
2112
2100
2108
2106
2112
2112
2104
2112
2101
2120
2120
2116
2112
2104
2096
2004
2084
2080
2080
2072
2080
2084
2090
2068
2082
2084
2088
2096
2101
2108
2120
2104
2128
2132
2132
2116
2117
2104
2104
2099
2096
2096
2094
2100
2102
2106
2112
2116
2124
2128
2137
2140
2140
2148
2138
2112
2112
2100
2096
2096
2096
2096
2080
2092
2112
2112
2112
2118
2122
2138
2136
2145
2146
2147
2153
2148
2154
2138
2140
2134
2128
2118
2112
2112
2105
2112
2104
2088
2092
2100
2106
2100
2116
2108
2117
2116
2128
2128
2125
2128
2117
2114
2112
2112
2108
2125
2120
2121
2132
2148
2146
2147
2144
2146
2137
2136
2126
2104
2112
2080
2072
2068
2072
2076
2080
2080
2084
2084
2104
2113
2117
2128
2117
2128
2121
2136
2138
2140
2150
2157
2170
2170
2166
2176
2184
2192
2208
2196
2210
2214
2224
2200
2200
2186
2184
2180
2160
2148
2140
2140
2148
2156
2138
2141
2144
2142
2137
2152
2149
2152
2152
2150
2152
2154
2145
2137
2144
2136
2125
2112
2112
2097
2100
2080
2076
2084
2076
2080
2084
2092
2112
2096
2120
2121
2116
2112
2104
2112
2090
2088
2089
2080
2076
2080
2088
2092
2081
2091
2088
2082
2088
2080
2090
2090
2083
2064
2064
2072
2064
2076
2074
2072
2076
2076
2092
2089
2080
2080
2064
2056
2032
2020
1996
1973
1957
1936
1926
1924
1925
1933
1944
1960
1970
1989
2019
2080
2136
2172
2256
2356
2474
2594
2716
2844
2960
3071
3236
3316
3384
3409
3395
3360
3344
3304
3248
3189
3136
3088
3046
3018
3008
3016
3024
3042
3072
3112
3144
3180
3216
3168
3176
3176
3176
3160
3146
3120
3104
3070
3104
3076
3033
3000
2964
2916
2870
2832
2772
2731
2676
2628
2588
2544
2512
2480
2448
2435
2420
2404
2394
2396
2384
2338
2324
2312
2296
2260
2244
2216
2192
2176
2184
2160
2148
2141
2121
2114
2105
2096
2089
2080
2074
2064
2051
2033
2028
2006
1996
1976
1964
1952
1940
1925
1908
1880
1874
1908
1864
1864
1876
1868
1864
1865
1880
1880
1873
1872
1862
1856
1848
1848
1833
1830
1825
1821
1824
1813
1812
1809
1806
1800
1801
1803
1798
1804
1802
1790
1788
1789
1780
1780
1778
1768
1760
1753
1768
1766
1760
1773
1784
1784
1796
1796
1792
1800
1794
1797
1785
1777
1766
1776
1761
1752
1756
1753
1760
1756
1756
1764
1770
1796
1796
1800
1812
1816
1814
1814
1812
1800
1792
1784
1778
1776
1770
1776
1767
1773
1776
1780
1778
1784
1796
1804
1811
1820
1820
1817
1824
1820
1824
1796
1808
1791
1786
1796
1788
1790
1784
1784
1810
1815
1816
1832
1826
1830
1832
1834
1832
1828
1825
1824
1810
1810
1801
1798
1795
1801
1800
1798
1801
1801
1804
1780
1800
1784
1776
1768
1780
1764
1752
1744
1744
1745
1732
1730
1730
1722
1724
1713
1712
1721
1721
1717
1724
1732
1728
1734
1728
1732
1736
1731
1733
1736
1741
1730
1736
1730
1736
1730
1750
1758
1760
1768
1780
1782
1804
1786
1786
1772
1769
1760
1748
1737
1733
1728
1728
1724
1728
1736
1737
1747
1760
1763
1782
1785
1785
1776
1781
1764
1768
1760
1754
1744
1740
1738
1744
1754
1747
1748
1755
1748
1754
1754
1754
1760
1760
1760
1756
1760
1751
1751
1751
1749
1746
1744
1751
1748
1757
1744
1744
1753
1762
1754
1762
1766
1768
1772
1772
1774
1776
1768
1757
1760
1755
1754
1752
1754
1758
1772
1761
1764
1776
1780
1777
1794
1785
1780
1782
1777
1776
1756
1756
1764
1756
1756
1762
1762
1766
1768
1784
1792
1797
1800
1816
1809
1808
1824
1808
1818
1810
1809
1796
1793
1784
1783
1781
1779
1795
1784
1792
1803
1796
1786
1796
1796
1794
1785
1792
1790
1794
1790
1796
1800
1794
1797
1800
1792
1810
1812
1816
1821
1835
1829
1826
1829
1821
1817
1826
1818
1820
1820
1817
1821
1816
1800
1792
1796
1800
1636
1804
1804
1810
1809
1824
1824
1818
1825
1816
1810
1809
1805
1800
1808
1812
1809
1810
1812
1824
1824
1824
1834
1832
1842
1844
1840
1841
1824
1820
1816
1812
1808
1800
1796
1801
1804
1810
1818
1814
1816
1811
1826
1830
1829
1827
1837
1836
1837
1837
1843
1844
1836
1829
1832
1830
1820
1821
1820
1821
1804
1810
1808
1810
1816
1820
1816
1812
1808
1824
1816
1808
1813
1824
1813
1810
1818
1813
1805
1816
1811
1817
1841
1829
1830
1828
1837
1840
1832
1830
1820
1828
1808
1808
1812
1810
1810
1808
1800
1791
1796
1808
1812
1812
1813
1814
1808
1820
1809
1808
1814
1810
1809
1816
1812
1804
1808
1795
1800
1794
1802
1814
1810
1819
1812
1816
1816
1812
1808
1804
1804
1788
1788
1794
1792
1794
1784
1777
1786
1798
1792
1795
1797
1810
1814
1806
1825
1818
1830
1830
1828
1832
1828
1829
1816
1808
1784
1780
1776
1776
1770
1776
1772
1772
1784
1792
1797
1808
1806
1808
1808
1811
1808
1808
1798
1798
1792
1796
1800
1808
1798
1805
1804
1811
1805
1812
1809
1816
1796
1796
1796
1788
1788
1784
1776
1788
1788
1816
1820
1829
1834
1861
1856
1866
1881
1890
1893
1901
1914
1914
1920
1920
1913
1901
1896
1890
1892
1874
1875
1872
1849
1848
1840
1840
1840
1840
1824
1836
1836
1840
1840
1841
1837
1833
1824
1825
1824
1820
1828
1825
1821
1819
1832
1824
1832
1834
1834
1832
1833
1820
1820
1816
1794
1800
1791
1784
1792
1784
1780
1776
1780
1800
1796
1806
1808
1814
1816
1813
1820
1816
1824
1825
1813
1824
1819
1805
1801
1802
1801
1798
1801
1812
1809
1809
1808
1816
1810
1824
1808
1808
1802
1791
1778
1764
1738
1717
1693
1680
1680
1670
1681
1684
1701
1720
1733
1739
1792
1800
1845
1900
1964
2053
2157
2263
2377
2506
2594
2712
2815
2900
2992
3044
3068
3071
3064
3072
3024
2944
2852
2777
2706
2656
2612
2582
2576
2568
2592
2608
2642
2678
2716
2761
2792
2796
2816
2816
2800
2784
2700
2672
2632
2592
2552
2512
2472
2428
2392
2372
2336
2292
2242
2201
2163
2106
2074
2048
2029
1990
1968
1939
1920
1888
1876
1869
1850
1832
1825
1811
1810
1809
1788
1786
1776
1772
1774
1776
1765
1756
1756
1760
1750
1746
1744
1732
1717
1712
1696
1686
1677
1676
1670
1673
1671
1674
1676
1681
1684
1693
1681
1686
1682
1678
1669
1660
1660
1660
1648
1650
1648
1658
1652
1664
1670
1674
1682
1682
1670
1668
1668
1664
1668
1652
1664
1664
1652
1656
1652
1656
1658
1664
1664
1660
1669
1674
1666
1680
1688
1682
1684
1696
1688
1682
1688
1676
1681
1673
1668
1690
1676
1680
1681
1678
1682
1688
1693
1701
1704
1712
1708
1712
1721
1705
1710
1701
1705
1709
1700
1708
1692
1708
1704
1712
1722
1714
1722
1738
1744
1746
1761
1760
1755
1756
1764
1762
1761
1761
1754
1761
1763
1768
1765
1768
1772
1776
1773
1776
1785
1774
1770
1768
1770
1760
1764
1770
1756
1752
1754
1754
1770
1769
1776
1783
1782
1786
1802
1813
1810
1801
1804
1801
1782
1798
1792
1784
1776
1772
1758
1760
1748
1742
1729
1728
1727
1732
1724
1722
1716
1712
1716
1722
1714
1702
1704
1696
1696
1705
1696
1685
1691
1697
1710
1728
1729
1728
1733
1733
1736
1738
1737
1740
1736
1736
1724
1720
1712
1724
1720
1708
1712
1720
1716
1728
1736
1740
1752
1760
1768
1781
1778
1786
1784
1784
1777
1773
1761
1754
1752
1748
1748
1749
1752
1760
1772
1778
1780
1790
1791
1796
1805
1810
1808
1808
1796
1792
1785
1771
1756
1760
1765
1760
1760
1769
1768
1786
1799
1801
1809
1816
1818
1820
1814
1808
1804
1792
1793
1779
1764
1770
1776
1785
1784
1800
1800
1812
1820
1844
1856
1848
1857
1857
1848
1844
1844
1826
1835
1834
1817
1824
1824
1824
1825
1824
1828
1842
1836
1851
1852
1857
1850
1850
1860
1848
1842
1856
1844
1840
1844
1850
1856
1856
1852
1865
1867
1872
1884
1893
1893
1905
1896
1900
1898
1892
1890
1878
1877
1892
1876
1870
1868
1866
1860
1866
1872
1880
1880
1900
1900
1914
1908
1920
1924
1936
1928
1914
1920
1910
1908
1920
1909
1907
1906
1908
1910
1920
1921
1928
1953
1936
1941
1944
1937
1948
1936
1924
1936
1928
1936
1948
1928
1928
1936
1936
1940
1952
1947
1952
1952
1952
1956
1961
1961
1963
1960
1959
1959
1969
1961
1968
1977
1969
1969
1980
1985
1984
1960
1968
1982
1989
1992
1985
1984
1984
1972
1992
1997
1992
1997
1995
1989
1988
1992
2006
2008
2010
2016
2022
2022
2024
2020
2026
2037
2033
2024
2025
2017
2010
1996
2002
2008
2008
2008
2002
2012
2020
2016
2050
2048
2051
2060
2049
2061
2064
2064
2064
2056
2053
2053
2048
2040
2029
2040
2026
2029
2029
2024
2040
2036
2036
2012
2012
2020
2033
2034
2028
2040
2032
2032
2048
2052
2054
2048
2058
2058
2052
2058
2056
2058
2053
2050
2048
2048
2040
2032
2040
2028
2021
2026
2029
2029
2034
2020
2024
2036
2047
2056
2064
2064
2076
2068
2096
2092
2086
2081
2072
2068
2059
2056
2048
2048
2050
2035
2048
2041
2052
2048
2057
2070
2064
2080
2082
2082
2084
2047
2047
2047
2046
2004
2044
2044
2046
2054
2072
2083
2084
2083
2084
2086
2090
2096
2096
2096
2088
2088
2080
2081
2073
2061
2069
2060
2059
2057
2059
2066
2065
2047
2047
2047
2064
2072
2072
2080
2080
2084
2104
2102
2112
2100
2112
2107
2128
2114
2122
2134
2133
2144
2160
2168
2169
2176
2180
2180
2189
2187
2168
2166
2144
2108
2264
2082
2080
2076
2064
2060
2060
2065
2080
2096
2105
2101
2104
2114
2117
2112
2112
2096
2084
2080
2064
2058
2064
2048
2060
2056
2062
2052
2066
2072
2070
2040
2047
2047
2041
2034
2040
2032
2024
2012
2032
2026
2028
2012
2017
2020
2021
2024
2032
2032
2032
2036
2037
2036
2032
2022
2030
2003
1991
1980
1974
1984
1984
1962
1972
1982
1986
1996
2008
1988
1992
1986
1984
1960
1936
1912
1899
1881
1858
1861
1848
1850
1859
1883
1888
1910
1925
1972
2009
2080
2152
2235
2348
2464
2584
2656
2772
2884
2976
3048
3104
3128
3136
3120
3146
3097
3018
2938
2856
2784
2731
2692
2672
2664
2677
2701
2726
2764
2805
2848
2880
2904
2920
2928
2924
2904
2885
2808
2776
2744
2712
2672
2636
2600
2564
2532
2528
2486
2452
2400
2354
2320
2276
2240
2192
2170
2144
2128
2094
2074
2064
2048
2048
2013
2007
1986
1977
1954
1941
1912
1896
1886
1872
1876
1864
1848
1860
1860
1864
1873
1868
1868
1868
1867
1868
1866
1872
1843
1828
1818
1801
1782
1765
1745
1744
1733
1734
1744
1744
1746
1761
1754
1768
1768
1765
1776
1770
1770
1776
1766
1776
1760
1767
1763
1764
1764
1760
1760
1755
1772
1765
1760
1760
1780
1747
1744
1748
1742
1730
1732
1732
1730
1732
1733
1732
1736
1749
1760
1762
1770
1780
1776
1780
1793
1786
1780
1780
1773
1765
1768
1761
1760
1753
1752
1748
1749
1749
1755
1764
1761
1778
1773
1780
1776
1774
1768
1760
1768
1764
1764
1764
1608
1760
1764
1776
1782
1777
1784
1797
1801
1808
1814
1812
1810
1805
1794
1792
1888
1782
1782
1782
1792
1804
1816
1824
1824
1824
1808
1816
1824
1816
1824
1816
1824
1804
1800
1800
1800
1792
1792
1784
1782
1792
1784
1792
1787
1792
1793
1798
1809
1804
1813
1809
1804
1794
1793
1781
1779
1770
1746
1738
1728
1722
1716
1717
1718
1717
1722
1729
1732
1732
1738
1742
1737
1752
1740
1735
1734
1728
1734
1737
1730
1737
1738
1732
1733
1728
1747
1733
1737
1744
1740
1746
1754
1760
1765
1770
1776
1774
1773
1780
1774
1768
1753
1754
1744
1749
1744
1752
1761
1772
1770
1784
1793
1792
1808
1797
1800
1800
1794
1781
1792
1780
1768
1769
1770
1776
1778
1784
1788
1796
1804
1826
1821
1827
1832
1821
1824
1820
1828
1809
1793
1797
1776
1766
1778
1770
1781
1781
1797
1797
1808
1806
1814
1814
1800
1800
1800
1800
1791
1788
1784
1789
1790
1796
1810
1801
1810
1816
1820
1826
1828
1837
1824
1827
1818
1813
1824
1820
1802
1810
1813
1813
1812
1812
1816
1817
1812
1812
1826
1833
1836
1842
1844
1840
1836
1844
1843
1834
1833
1841
1836
1832
1836
1828
1832
1828
1840
1840
1836
1850
1856
1864
1875
1867
1872
1876
1862
1867
1852
1844
1840
1840
1840
1840
1840
1848
1845
1864
1858
1870
1888
1888
1890
1885
1884
1888
1860
1865
1848
1840
1833
1841
1838
1840
1836
1848
1848
1856
1868
1878
1864
1868
1860
1866
1868
1860
1856
1854
1848
1856
1856
1856
1858
1856
1852
1865
1876
1864
1876
1876
1872
1876
1878
1884
1876
1872
1876
1868
1862
1860
1862
1861
1840
1840
1836
1844
1848
1858
1868
1868
1882
1882
1888
1891
1889
1889
1894
1864
1872
1868
1861
1860
1852
1861
1856
1860
1868
1875
1876
1882
1883
1888
1888
1888
1880
1876
1866
1874
1864
1860
1868
1854
1850
1864
1870
1867
1892
1868
1882
1888
1890
1892
1900
1898
1904
1897
1903
1898
1893
1896
1893
1894
1901
1907
1904
1910
1888
1888
1736
1882
1886
1868
1876
1868
1864
1864
1868
1870
1865
1866
1872
1872
1878
1885
1894
1905
1897
1906
1917
1920
1926
1920
1920
1917
1907
1902
1895
1888
1868
1866
1864
1868
1860
1864
1864
1864
1878
1912
1896
1898
1900
1896
1909
1898
1898
1904
1901
1898
1888
1882
1878
1874
1880
1877
1880
1884
1888
1889
1890
1892
1884
1888
1884
1882
1888
1872
1872
1888
1872
1880
1884
1876
1893
1893
1899
1906
1904
1917
1930
1936
1944
1937
1932
1923
1913
1902
1888
1884
1884
1881
1872
1880
1872
1884
1896
1904
1924
1936
1944
1956
1970
1992
2004
2011
2024
2016
2020
2018
2008
2006
1993
1987
1984
1973
1956
1948
1953
1936
1942
1936
1942
1946
1954
1961
1936
1928
1928
1928
1918
1914
1904
1898
1888
1900
1888
1888
1888
1890
1888
1882
1898
1889
1890
1897
1901
1897
1904
1905
1892
1897
1894
1904
1908
1909
1901
1904
1884
1886
1888
1892
1888
1896
1884
1880
1884
1896
1897
1895
1893
1904
1885
1888
1888
1888
1877
1889
1888
1881
1890
1890
1896
1904
1900
1896
1881
1865
1845
1832
1790
1784
1752
1744
1745
1732
1740
1756
1760
1781
1792
1824
1846
1894
1948
2025
2096
2212
2309
2442
2564
2698
2825
2944
3042
3140
3208
3250
3276
3268
3236
3176
3040
2948
2868
2784
2724
2672
2634
2612
2596
2648
2674
2700
2739
2776
2810
2844
2854
2860
2848
2843
2816
2788
2747
2708
2650
2624
2561
2512
2464
2424
2362
2326
2248
2208
2172
2128
2088
2056
2041
2020
1996
1986
1962
1940
1928
1908
1897
1878
1880
1860
1856
1848
1840
1830
1827
1824
1822
1816
1815
1806
1800
1809
1801
1794
1780
1820
1764
1764
1752
1744
1732
1736
1732
1720
1731
1721
1725
1720
1724
1725
1730
1734
1739
1732
1741
1744
1744
1730
1723
1722
1712
1712
1702
1696
1704
1689
1696
1692
1692
1700
1712
1704
1728
1716
1720
1720
1718
1714
1708
1717
1697
1710
1700
1702
1692
1692
1704
1696
1705
1701
1706
1716
1708
1716
1715
1710
1708
1721
1702
1708
1698
1700
1690
1689
1682
1664
1680
1686
1690
1696
1700
1706
1714
1724
1718
1724
1728
1728
1719
1732
1725
1732
1734
1733
1728
1736
1740
1734
1740
1748
1744
1744
1752
1744
1740
1748
1740
1749
1738
1760
1752
1754
1760
1762
1766
1769
1768
1768
1768
1769
1768
1770
1766
1768
1756
1770
1750
1760
1756
1766
1764
1760
1772
1752
1756
1753
1754
1752
1754
1765
1764
1772
1778
1768
1757
1762
1756
1747
1744
1736
1732
1728
1720
1721
1712
1712
1709
1709
1712
1710
1704
1708
1716
1717
1704
1698
1702
1692
1696
1689
1682
1688
1680
1680
1680
1688
1683
1682
1678
1680
1681
1682
1691
1684
1694
1696
1692
1686
1692
1689
1689
1698
1696
1700
1704
1709
1694
1689
1694
1696
1706
1708
1708
1713
1712
1728
1717
1728
1734
1720
1728
1724
1723
1720
1710
1719
1720
1721
1724
1729
1738
1736
1740
1751
1760
1768
1768
1761
1740
1738
1738
1729
1720
1718
1717
1721
1712
1728
1728
1736
1744
1756
1756
1757
1760
1757
1746
1745
1741
1741
1732
1728
1722
1732
1732
1720
1732
1745
1745
1748
1752
1752
1760
1762
1753
1752
1688
1740
1740
1736
1738
1740
1736
1749
1745
1748
1748
1747
1756
1747
1753
1758
1771
1770
1776
1776
1780
1770
1782
1792
1776
1781
1768
1752
1760
1760
1760
1764
1766
1768
1773
1784
1779
1792
1784
1781
1781
1779
1776
1768
1780
1780
1776
1778
1781
1792
1792
1784
1784
1794
1792
1787
1792
1802
1790
1784
1788
1784
1788
1776
1780
1780
1776
1792
1794
1792
1793
1788
1795
1801
1800
1806
1816
1819
1824
1828
1840
1828
1825
1825
1810
1810
1804
1794
1796
1797
1790
1790
1808
1808
1808
1816
1812
1804
1805
1808
1804
1802
1804
1804
1800
1806
1808
1812
1818
1825
1820
1824
1834
1840
1844
1844
1840
1840
1829
1824
1818
1819
1793
1788
1788
1784
1777
1776
1772
1768
1772
1786
1800
1808
1812
1820
1828
1832
1840
1851
1841
1834
1828
1829
1824
1824
1828
1817
1816
1818
1808
1801
1824
1812
1813
1812
1808
1824
1834
1826
1822
1840
1824
1840
1844
1828
1827
1819
1820
1820
1821
1840
1819
1832
1836
1830
1849
1856
1856
1845
1856
1833
1848
1844
1833
1842
1824
1816
1818
1812
1808
1818
1817
1820
1816
1842
1851
1856
1856
1856
1845
1836
1824
1811
1804
1802
1786
1788
1784
1786
1798
1800
1809
1815
1820
1843
1850
1864
1840
1844
1848
1840
1840
1832
1824
1820
1818
1828
1826
1828
1832
1835
1844
1843
1846
1852
1851
1843
1861
1852
1848
1862
1844
1845
1848
1844
1857
1838
1850
1844
1833
1828
1848
1844
1848
1860
1848
1858
1858
1872
1864
1862
1856
1850
1848
1846
1844
1834
1844
1847
1841
1848
1846
1857
1856
1872
1862
1880
1865
1861
1850
1848
1833
1840
1842
1832
1828
1826
1841
1842
1848
1858
1873
1885
1897
1916
1929
1949
1969
1972
1985
1980
1990
1980
1984
1976
1973
1970
1949
1944
1932
1929
1933
1920
1908
1906
1904
1904
1896
1890
1900
1890
1896
1912
1896
1898
1904
1898
1897
1897
1896
1904
1901
1897
1905
1900
1898
1894
1888
1896
1894
1884
1889
1880
1869
1865
1856
1848
1844
1848
1852
1856
1848
1856
1872
1889
1890
1885
1904
1888
1896
1893
1896
1898
1884
1880
1879
1865
1864
1858
1878
1867
1867
1867
1872
1865
1880
1881
1876
1872
1874
1872
1872
1868
1856
1828
1820
1800
1774
1752
1737
1736
1719
1733
1745
1777
1796
1820
1842
1882
1920
1971
2029
2102
2176
2278
2379
2503
2624
2745
2812
2920
3008
3088
3144
3168
3152
3124
3058
3040
2955
2853
2768
2716
2652
2612
2584
2582
2604
2614
2644
2694
2740
2770
2803
2827
2848
2844
2836
2818
2792
2752
2668
2628
2580
2532
2504
2456
2416
2362
2324
2304
2250
2225
2185
2155
2104
2080
2048
2017
2000
1984
1960
1950
1930
1920
1913
1900
1891
1882
1880
1883
1878
1867
1852
1860
1856
1852
1846
1844
1836
1828
1812
1816
1804
1800
1792
1792
1788
1780
1776
1778
1777
1784
1780
1780
1780
1784
1782
1783
1780
1776
1780
1768
1756
1757
1732
1730
1722
1736
1726
1732
1752
1736
1756
1765
1780
1773
1776
1773
1777
1762
1762
1757
1749
1752
1746
1753
1741
1745
1744
1748
1760
1757
1760
1770
1764
1763
1756
1752
1752
1756
1748
1753
1746
1748
1746
1760
1757
1761
1760
1754
1764
1760
1762
1770
1772
1784
1781
1792
1787
1792
1786
1780
1773
1779
1768
1762
1768
1763
1768
1772
1780
1781
1772
1790
1800
1800
1800
1812
1817
1820
1824
1828
1814
1821
1824
1814
1816
1829
1825
1824
1830
1830
1836
1835
1840
1849
1856
1849
1858
1856
1844
1840
1832
1834
1832
1832
1832
1830
1824
1842
1851
1856
1858
1872
1878
1880
1872
1878
1868
1872
1864
1861
1859
1851
1848
1842
1833
1826
1816
1818
1824
1824
1808
1813
1809
1801
1802
1791
1788
1788
1778
1784
1779
1773
1767
1773
1762
1762
1766
1774
1769
1776
1780
1780
1784
1792
1781
1782
1776
1775
1769
1770
1765
1760
1752
1760
1768
1766
1592
1764
1769
1760
1761
1788
1792
1792
1802
1800
1806
1802
1802
1801
1802
1792
1792
1796
1795
1794
1793
1798
1797
1800
1802
1804
1818
1809
1800
1804
1808
1813
1810
1796
1798
1800
1780
1800
1796
1786
1766
1788
1797
1798
1804
1813
1816
1817
1820
1829
1831
1824
1833
1827
1820
1796
1801
1792
1780
1786
1784
1784
1800
1796
1804
1808
1824
1824
1832
1836
1834
1828
1824
1818
1824
1806
1800
1806
1809
1817
1817
1824
1824
1843
1845
1845
1852
1849
1856
1848
1848
1856
1832
1828
1824
1824
1832
1832
1836
1832
1848
1856
1860
1864
1864
1872
1874
1880
1882
1880
1876
1877
1874
1878
1864
1866
1873
1862
1857
1867
1863
1864
1877
1872
1868
1880
1888
1892
1890
1896
1892
1896
1896
1900
1904
1912
1899
1891
1880
1888
1897
1888
1882
1888
1885
1888
1897
1894
1910
1909
1904
1905
1902
1905
1896
1893
1880
1876
1882
1878
1882
1888
1880
1884
1874
1892
1892
1888
1904
1893
1894
1900
1892
1900
1899
1886
1892
1896
1898
1892
1888
1888
1894
1896
1907
1909
1913
1912
1904
1896
1894
1892
1888
1884
1884
1876
1872
1888
1892
1884
1885
1890
1900
1904
1897
1904
1912
1909
1916
1924
1912
1908
1905
1908
1904
1912
1900
1901
1896
1904
1880
1880
1881
1888
1892
1888
1888
1884
1893
1904
1914
1907
1901
1898
1905
1905
1896
1906
1904
1904
1913
1920
1924
1925
1940
1940
1942
1946
1949
1941
1928
1928
1904
1896
1892
1884
1888
1888
1880
1884
1898
1908
1920
1915
1924
1920
1910
1904
1904
1897
1897
1900
1899
1901
1885
1888
1885
1888
1896
1900
1900
1910
1920
1928
1912
1916
1924
1918
1932
1920
1918
1908
1908
1920
1920
1908
1921
1888
1896
1900
1897
1891
1902
1898
1920
1920
1924
1932
1933
1934
1928
1936
1936
1928
1920
1920
1890
1904
1892
1896
1894
1896
1896
1890
1904
1920
1931
1915
1921
1921
1937
1928
1928
1921
1920
1924
1914
1907
1910
1908
1901
1902
1904
1907
1910
1916
1922
1926
1918
1912
1916
1906
1908
1904
1900
1908
1908
1914
1922
1928
1920
1924
1932
1926
1924
1922
1920
1926
1927
1920
1920
1917
1910
1910
1899
1904
1900
1902
1900
1905
1892
1896
1897
1912
1920
1918
1930
1940
1952
1988
1994
2000
2012
2018
2020
2016
2016
2021
2007
2016
2013
2020
2000
2002
2000
2000
1992
2000
1990
2000
1992
1989
1960
1956
1950
1958
1952
1948
1946
1948
1944
1952
1952
1962
1958
1956
1956
1958
1961
1952
1952
1949
1937
1946
1929
1922
1924
1916
1921
1920
1924
1927
1929
1944
1921
1932
1954
1948
1952
1960
1960
1956
1952
1964
1958
1952
1946
1941
1940
1929
1923
1929
1936
1936
1934
1944
1944
1952
1954
1954
1948
1945
1952
1940
1936
1920
1900
1880
1862
1856
1826
1812
1789
1794
1784
1801
1802
1822
1856
1864
1885
1892
1928
1966
2017
2080
2170
2256
2360
2488
2613
2753
2880
2992
3112
3205
3280
3329
3264
3268
3224
3152
3068
2968
2868
2784
2716
2692
2649
2630
2620
2636
2666
2704
2754
2804
2840
2875
2892
2901
2896
2880
2850
2825
2788
2736
2692
2651
2596
2548
2468
2416
2380
2336
2292
2256
2216
2180
2140
2132
2104
2076
2048
2034
2005
1992
1968
1956
1936
1932
1924
1916
1910
1904
1897
1889
1881
1888
1890
1883
1869
1869
1844
1840
1828
1821
1818
1808
1794
1790
1791
1796
1801
1796
1803
1804
1808
1812
1819
1818
1817
1820
1812
1808
1802
1796
1792
1782
1778
1769
1765
1760
1768
1773
1756
1764
1776
1778
1780
1790
1784
1788
1784
1792
1792
1784
1784
1770
1768
1767
1761
1768
1763
1769
1769
1773
1774
1782
1792
1792
1799
1792
1800
1793
1794
1784
1776
1768
1770
1760
1760
1760
1764
1764
1768
1786
1792
1792
1792
1800
1795
1795
1796
1798
1786
1785
1776
1780
1776
1776
1780
1778
1776
1779
1792
1795
1798
1808
1804
1808
1800
1808
1808
1804
1800
1800
1794
1812
1816
1802
1814
1818
1836
1840
1848
1856
1856
1860
1858
1850
1850
1843
1840
1828
1833
1824
1825
1809
1820
1820
1804
1808
1804
1816
1820
1828
1828
1836
1836
1856
1856
1844
1845
1836
1836
1840
1830
1832
1829
1828
1824
1820
1811
1829
1820
1818
1830
1824
1817
1825
1808
1808
1794
1784
1784
1776
1764
1762
1756
1750
1752
1756
1756
1756
1745
1760
1760
1764
1760
1767
1776
1773
1776
1765
1756
1764
1744
1748
1748
1750
1750
1761
1753
1760
1760
1756
1774
1776
1780
1780
1786
1788
1786
1800
1797
1793
1797
1792
1794
1796
1802
1804
1806
1803
1824
1816
1819
1817
1817
1813
1813
1812
1805
1792
1788
1796
1780
1776
1780
1786
1780
1800
1796
1804
1812
1824
1830
1836
1840
1840
1834
1835
1826
1827
1811
1811
1803
1804
1798
1793
1802
1797
1801
1808
1798
1809
1810
1814
1808
1817
1816
1820
1826
1817
1816
1818
1816
1824
1828
1824
1826
1824
1827
1824
1826
1832
1828
1832
1948
1843
1848
1841
1834
1821
1821
1808
1812
1804
1800
1808
1796
1808
1810
1824
1832
1836
1844
1852
1861
1880
1875
1873
1870
1865
1860
1856
1850
1850
1834
1843
1840
1840
1842
1856
1850
1865
1862
1873
1883
1877
1880
1888
1872
1872
1872
1868
1812
1856
1856
1844
1848
1857
1857
1864
1881
1877
1884
1888
1894
1894
1892
1888
1893
1888
1875
1868
1865
1861
1860
1864
1849
1856
1856
1856
1840
1844
1848
1846
1854
1852
1858
1860
1872
1888
1885
1889
1888
1884
1883
1877
1882
1872
1868
1862
1858
1872
1863
1864
1864
1866
1875
1881
1876
1880
1872
1880
1856
2028
1848
1852
1850
1848
1856
1848
1848
1866
1873
1876
1883
1883
1896
1892
1896
1896
1882
1874
1876
1862
1856
1851
1845
1856
1849
1847
1856
1857
1866
1872
1864
1876
1884
1892
1888
1888
1880
1874
1868
1872
1868
1857
1858
1862
1849
1856
1864
1864
1869
1869
1876
1880
1889
1889
1883
1883
1880
1880
1867
1872
1861
1861
1848
1840
1844
1840
1840
1845
1848
1858
1864
1884
1888
1888
1888
1888
1881
1878
1872
1858
1866
1849
1850
1841
1852
1845
1861
1866
1872
1878
1867
1878
1872
1874
1856
1850
1848
1842
1841
1840
1832
1844
1761
1856
1856
1859
1859
1866
1865
1867
1862
1861
1864
1857
1858
1861
1860
1856
1860
1850
1847
1844
1836
1826
1828
1829
1813
1818
1824
1832
1836
1836
1832
1844
1840
1848
1852
1840
1841
1838
1832
1831
1825
1824
1824
1813
1824
1824
1824
1835
1832
1835
1826
1834
1824
1824
1829
1830
1808
1816
1808
1808
1796
1808
1792
1796
1791
1810
1812
1816
1818
1817
1813
1814
1816
1813
1808
1798
1804
1792
1792
1801
1808
1808
1824
1835
1846
1858
1882
1893
1896
1900
1908
1912
1916
1906
1904
1900
1880
1888
1864
1852
1838
1824
1816
1808
1798
1795
1792
1792
1803
1809
1816
1817
1812
1810
1802
1802
1803
1776
1777
1761
1746
1738
1736
1720
1720
1720
1716
1726
1722
1740
1746
1762
1749
1760
1753
1752
1752
1760
1741
1732
1733
1713
1715
1708
1710
1700
1694
1696
1701
1712
1716
1712
1708
1712
1700
1704
1698
1680
1520
1672
1666
1680
1674
1668
1674
1688
1690
1693
1698
1681
1682
1668
1653
1629
1600
1576
1556
1538
1523
1513
1518
1528
1541
1554
1570
1584
1616
1662
1704
1768
1834
1919
2004
2132
2240
2352
2464
2566
2657
2715
2752
2778
2772
2738
2680
2618
2522
2437
2340
2260
2192
2157
2133
2136
2128
2155
2154
2200
2234
2284
2324
2360
2372
2370
2364
2372
2356
2324
2281
2245
2200
2149
2101
2052
2013
1961
1925
1894
1856
1820
1774
1740
1701
1657
1625
1585
1546
1515
1493
1469
1458
1432
1424
1416
1406
1396
1408
1394
1401
1395
1396
1395
1399
1403
1393
1396
1388
1376
1377
1373
1366
1370
1365
1345
1340
1338
1330
1328
1321
1312
1324
1316
1306
1302
1306
1298
1297
1296
1296
1288
1287
1296
1285
1289
1282
1270
1267
1261
1257
1258
1239
1248
1251
1250
1253
1253
1261
1265
1271
1265
1273
1273
1276
1272
1258
1256
1237
1236
1216
1212
1204
1184
1185
1192
1184
1180
1192
1194
1200
1208
1212
1211
1220
1221
1222
1220
1204
1207
1190
1180
1181
1174
1168
1161
1180
1176
1184
1176
1180
1188
1186
1184
1188
1184
1169
1176
1164
1162
1162
1158
1154
1160
1156
1153
1154
1154
1016
1160
1166
1168
1176
1164
1162
1147
1142
1141
1152
1144
1136
1128
1121
1116
1125
1126
1132
1108
1112
1117
1125
1121
1121
1127
1122
1126
1120
1120
1112
1108
1099
1090
1073
1068
1061
1050
1048
1044
1048
1052
1057
1058
1058
1056
1040
1053
1034
1030
1018
992
985
978
976
973
955
946
946
942
934
928
928
921
928
924
928
918
914
905
891
888
881
875
892
888
884
882
884
876
877
876
858
864
870
866
874
869
878
869
852
843
832
817
812
808
802
811
812
806
808
817
821
830
838
841
878
876
880
880
872
870
862
849
824
805
805
794
794
796
792
792
794
788
804
801
800
798
805
798
790
793
787
798
770
765
753
758
784
782
948
772
777
784
790
785
750
760
752
748
752
743
740
738
741
721
722
719
724
726
716
715
720
729
729
727
729
728
730
721
746
749
734
728
728
721
718
722
690
684
689
696
700
692
704
699
704
696
691
695
683
684
676
670
665
666
660
660
657
660
657
661
794
704
713
714
714
704
710
713
670
670
664
660
661
652
644
635
632
629
622
625
622
630
626
626
625
623
624
619
617
609
606
605
637
632
638
630
640
638
633
640
601
614
615
622
616
613
616
594
592
577
570
570
552
546
544
544
542
546
546
544
548
558
556
560
596
592
593
585
586
592
586
580
538
538
534
529
521
520
521
522
516
525
517
502
516
512
513
507
504
500
501
491
494
494
488
488
524
532
528
526
526
524
530
530
485
485
488
480
472
471
468
463
457
461
462
460
462
463
462
468
471
477
477
484
483
478
469
471
516
502
497
500
490
488
478
480
430
436
442
453
456
461
464
465
467
478
476
480
475
470
465
460
455
449
448
454
453
456
459
470
513
513
522
531
533
534
529
524
478
474
472
465
462
461
464
469
455
461
459
470
479
482
483
531
483
481
487
477
468
480
468
477
516
520
517
522
523
528
539
537
504
512
516
520
513
517
520
509
505
506
506
506
501
507
506
512
516
522
530
532
555
554
574
576
630
628
634
651
653
662
672
678
653
659
664
679
686
688
711
728
725
729
736
740
734
732
723
714
704
697
559
680
678
667
669
668
704
715
720
724
744
746
756
764
736
738
723
726
708
699
686
682
674
674
674
670
672
684
684
690
708
718
716
736
746
756
744
750
790
792
777
776
778
777
780
775
746
756
765
777
780
791
791
808
813
819
818
819
811
817
806
801
808
814
816
809
822
823
825
826
842
832
819
816
792
777
774
760
740
750
750
757
768
789
804
840
880
945
1024
1117
1233
1353
1492
1634
1781
1926
2056
2176
2268
2336
2388
2404
2352
2312
2236
2144
2044
1944
1852
1772
1708
1672
1652
1648
1664
1680
1716
1763
1788
1818
1846
1862
1856
1844
1824
1785
1748
1722
1674
1638
1600
1555
1528
1478
1444
1407
1352
1306
1260
1214
1154
1124
1094
1062
1042
1024
1014
1024
1024
1032
1048
1048
1062
1074
1088
1085
1101
1100
1100
1104
1101
1094
1092
1092
1084
1096
1116
1114
1128
1137
1148
1157
1164
1180
1197
1186
1194
1197
1200
1205
1220
1208
1210
1218
1210
1209
1208
1224
1227
1242
1252
1260
1256
1272
1280
1287
1285
1300
1308
1306
1308
1308
1316
1314
1318
1340
1337
1336
1344
1352
1362
1382
1388
1397
1404
1408
1419
1417
1420
1414
1420
1421
1427
1436
1442
1440
1448
1454
1472
1482
1504
1529
1552
1569
1596
1601
1554
1620
1632
1640
1649
1650
1644
1656
1650
1664
1665
1668
1670
1672
1681
1691
1697
1716
1720
1734
1738
1753
1750
1760
1762
1765
1752
1764
1772
1770
1772
1764
1772
1772
1788
1808
1814
1824
1835
1842
1843
1856
1864
1872
1868
1882
1884
1885
1892
1896
1891
1905
1896
1896
1912
1921
1920
1928
1924
1928
1938
1946
1957
1964
1964
1968
1970
1984
1992
2000
1993
1990
1996
2009
2002
2010
2017
2025
2032
2040
2032
2052
2052
2052
2041
2050
2054
2048
2064
2056
2032
2036
2040
2064
2047
2056
2064
2076
2084
2120
2128
2128
2140
2148
2149
2168
2176
2182
2178
2194
2202
2210
2213
2230
2243
2256
2272
2276
2288
2297
2306
2320
2292
2302
2302
2312
2320
2330
2344
2356
2364
2402
2420
2435
2448
2460
2472
2482
2496
2512
2520
2528
2532
2540
2544
2546
2560
2560
2562
2579
2573
2584
2593
2608
2564
2580
2604
2608
2612
2624
2624
2624
2626
2672
2680
2688
2689
2694
2700
2720
2724
2729
2752
2758
2784
2784
2801
2810
2825
2826
2835
2841
2840
2844
2848
2848
2792
2792
2800
2800
2796
2808
2820
2815
2824
2888
2908
2914
2925
2933
2937
2944
2944
2946
2956
2954
2954
2952
2960
2961
2960
2985
2992
3000
3008
3020
3025
3041
2992
2996
2996
2994
2996
3000
2988
2984
2984
3032
3041
3049
3046
3049
3058
3060
3080
3084
3090
3108
3120
3120
3128
3136
3124
3124
3124
3126
3128
3120
3136
3128
3064
3080
3080
3088
3092
3096
3104
3104
3114
3184
3192
3190
3200
3192
3184
3184
3177
3190
3179
3192
3179
3189
3176
3184
3184
3185
3192
3202
3200
3200
3204
3208
3130
3124
3136
3132
3132
3124
3136
3132
3140
3200
3222
3225
3227
3236
3248
3242
3252
3248
3256
3249
3250
3244
3244
3252
3234
3240
3236
3240
3232
3232
3237
3240
3176
3168
3168
3172
3168
3164
3160
3152
3152
3208
3212
3208
3200
3208
3200
3210
3204
3216
3212
3208
3205
3212
3212
3200
3202
3204
3209
3205
3200
3186
3188
3184
3128
3116
3116
3112
3116
3116
3112
3112
3112
3176
3184
3188
3188
3185
3192
3184
3200
3176
3170
3180
3168
3172
3176
3168
3168
3161
3157
3158
3152
3153
3160
3154
3090
3090
3088
3082
3080
3080
3071
3071
3071
3136
3139
3144
3152
3148
3161
3160
3145
3136
3141
3130
3120
3115
3104
3104
3092
3076
3082
3077
3072
3074
3073
3080
3024
3024
3028
3032
3024
3028
3024
3016
3016
3064
3073
3061
3064
3064
3049
3048
3040
3034
3040
3028
3029
3048
3042
3048
3056
3057
3062
3057
3072
3072
3056
3043
2976
2970
2960
2944
2942
2938
2924
2920
2918
2964
2976
2976
2976
2982
2981
2997
2986
2992
2993
2993
2984
2986
2971
2964
2956
2944
2936
2938
2936
2928
2922
2922
2864
2872
2880
2888
2896
2904
2908
2916
2920
2968
2980
2980
2976
2977
2976
2980
2976
2976
2976
2978
2978
2989
2982
2988
2992
2992
2992
2980
2970
2952
2944
2921
2864
2848
2836
2832
2836
2828
2828
2832
2824
2880
2888
2890
2890
2892
2884
2882
2876
2864
2852
2840
2832
2826
2806
2816
2806
2806
2808
2794
2805
2802
2800
2805
2754
2760
2760
2760
2752
2746
2744
2736
2728
2776
2768
2765
2765
2784
2774
2769
2760
2760
2752
2752
2744
2755
2745
2736
2736
2732
2741
2733
2736
2731
2724
2733
2680
2672
2668
2660
2644
2636
2616
2596
2580
2596
2580
2573
2561
2565
2576
2576
2594
2608
2624
2649
2688
2744
2816
2912
3008
3116
3242
3360
3362
3336
3328
3300
3216
3204
3208
3196
3192
3192
3180
3188
3176
3232
3250
3250
3255
3251
3248
3248
3248
3240
3250
3249
3244
3248
3256
3254
3249
3249
3252
3244
3248
3242
3248
3248
3172
3176
3160
3168
3164
3176
3160
3164
3160
3192
3152
3072
2992
2904
2820
2736
2676
2612
2566
2545
2524
2513
2524
2532
2544
2560
2576
2588
2597
2596
2592
2592
2544
2534
2504
2504
2368
2468
2448
2432
2420
2456
2453
2449
2453
2456
2456
2453
2450
2448
2441
2432
2432
2417
2410
2409
2402
2400
2392
2392
2400
2405
2394
2401
2372
2376
2376
2378
2370
2368
2360
2352
2348
2384
2369
2369
2362
2361
2361
2352
2348
2350
2340
2341
2341
2347
2344
2349
2344
2338
2342
2336
2332
2332
2325
2328
2300
2292
2284
2288
2288
2276
2272
2276
2272
2304
2306
2320
2316
2320
2314
2320
2314
2305
2310
2310
2304
2314
2305
2316
2320
2329
2336
2340
2341
2344
2345
2344
2296
2288
2280
2276
2268
2266
2268
2268
2272
2304
2325
2324
2330
2337
2345
2347
2352
2358
2357
2363
2359
2353
2340
2341
2336
2332
2336
2326
2321
2324
2320
2320
2296
2284
2292
2292
2303
2308
2308
2316
2312
2340
2342
2340
2337
2320
2306
2296
2296
2282
2276
2272
2265
2260
2261
2262
2261
2262
2264
2260
2260
2258
2252
2253
2208
2202
2188
2186
2172
2174
2168
2164
2168
2186
2188
2186
2204
2196
2208
2193
2194
2188
2178
2179
2166
2156
2146
2138
2140
2136
2130
2136
2138
2134
2134
2137
2108
2112
2112
2120
2116
2108
2112
2112
2104
2121
2128
2122
2120
2120
2113
2125
2120
2120
2118
2128
2122
2122
2124
2112
2105
2116
2105
2098
2080
2092
2084
2082
2047
2047
2056
2056
2056
2056
2047
2056
2064
2084
2080
2080
2081
2072
2061
2057
2058
2053
2048
2048
2038
2041
2033
2032
2028
2032
2034
2033
2041
2037
2040
2040
2022
2016
2032
2026
2028
2024
2018
2020
2018
2028
2033
2040
2048
2048
2048
2038
2040
2051
2048
2048
2041
2048
2048
2048
2035
2025
2012
2006
2004
1993
1994
2000
1968
1976
1994
1992
2004
2000
2004
2004
2012
2021
2016
2013
2012
2003
1998
2006
2001
2000
1989
1996
2003
2005
2020
2030
2024
2036
2050
2034
2032
2028
2024
2016
1988
1982
1976
1976
1970
1980
1972
1976
1980
1996
2009
2009
2016
2017
2016
2017
2012
2008
2000
1994
1990
1852
1969
1961
1960
1956
1949
1952
1956
1957
1960
1954
1940
1956
1952
1960
1964
1954
1952
1952
1952
1968
1966
1962
1964
1957
1948
1955
1957
1954
1958
1954
1960
1964
1968
1989
1948
1948
1936
1933
1921
1913
1900
1906
1884
1880
1880
1890
1892
1904
1904
1896
1904
1912
1913
1916
1916
1917
1915
1913
1920
1916
1916
1921
1912
1914
1920
1900
1910
1900
1898
1888
1892
1888
1890
1880
1876
1861
1856
1864
1848
1864
1856
1864
1856
1858
1865
1864
1861
1865
1872
1869
1876
1883
1872
1868
1866
1856
1856
1848
1845
1845
1843
1842
1852
1837
1842
1846
1828
1832
1824
1828
1826
1832
1840
1832
1826
1840
1828
1834
1820
1818
1818
1821
1824
1828
1830
1829
1825
1836
1830
1826
1825
1837
1833
1840
1836
1828
1834
1817
1812
1810
1791
1808
1804
1794
1792
1791
1791
1800
1794
1784
1784
1783
1782
1772
1768
1768
1764
1756
1757
1748
1746
1746
1745
1738
1745
1752
1750
1752
1754
1757
1752
1754
1762
1762
1760
1768
1748
1760
1748
1754
1745
1740
1748
1744
1735
1740
1736
1738
1740
1744
1741
1754
1753
1756
1757
1755
1754
1748
1744
1744
1750
1744
1737
1744
1758
1768
1768
1780
1784
1798
1800
1816
1824
1831
1828
1829
1820
1824
1824
1813
1805
1798
1792
1781
1782
1787
1784
1776
1779
1764
1761
1769
1756
1752
1748
1736
1726
1729
1728
1724
1716
1708
1708
1708
1697
1699
1696
1691
1706
1697
1705
1696
1700
1703
1706
1704
1704
1690
1698
1696
1680
1686
1673
1670
1675
1668
1662
1680
1680
1684
1680
1696
1693
1684
1685
1688
1692
1689
1680
1678
1674
1668
1677
1669
1666
1668
1668
1672
1680
1670
1668
1664
1648
1628
1605
1577
1549
1528
1500
1486
1482
1480
1486
1501
1517
1526
1552
1572
1613
1660
1723
1785
1877
1988
2088
2217
2345
2490
2617
2732
2841
2921
3000
3040
3034
3013
2952
2880
2774
2661
2512
2408
2336
2272
2212
2184
2168
2174
2200
2256
2297
2344
2387
2425
2444
2460
2466
2468
2432
2412
2368
2324
2266
2218
2164
2100
2052
2005
1944
1892
1845
1792
1740
1700
1672
1636
1613
1609
1576
1573
1568
1556
1557
1546
1544
1547
1553
1541
1544
1538
1525
1518
1506
1490
1486
1483
1473
1457
1460
1456
1459
1459
1458
1464
1453
1454
1462
1454
1450
1448
1450
1448
1448
1448
1441
1452
1453
1452
1448
1451
1458
1454
1450
1449
1448
1449
1446
1443
1437
1440
1434
1438
1428
1424
1420
1422
1428
1432
1420
1424
1436
1444
1444
1440
1444
1440
1432
1426
1428
1422
1413
1410
1408
1401
1404
1396
1393
1388
1398
1401
1396
1408
1410
1408
1411
1408
1413
1408
1404
1397
1400
1400
1392
1402
1404
1407
1410
1404
1408
1408
1416
1416
1418
1426
1416
1417
1416
1414
1416
1411
1408
1413
1410
1418
1411
1425
1431
1432
1436
1434
1450
1460
1466
1472
1470
1469
1456
1457
1472
1468
1451
1446
1450
1448
1444
1440
1437
1440
1440
1432
1450
1450
1461
1474
1466
1465
1480
1476
1472
1467
1472
1464
1472
1461
1466
1458
1456
1450
1453
1456
1458
1456
1461
1458
1462
1452
1456
1448
1441
1428
1428
1422
1414
1410
1408
1408
1408
1401
1404
1404
1413
1414
1408
1411
1412
1409
1400
1400
1328
1362
1349
1346
1338
1332
1320
1324
1333
1340
1344
1344
1351
1360
1360
1364
1373
1366
1370
1368
1367
1363
1358
1368
1365
1363
1371
1367
1374
1376
1374
1372
1376
1378
1384
1389
1386
1378
1381
1376
1384
1389
1380
1368
1366
1360
1356
1357
1356
1357
1376
1377
1384
1381
1388
1389
1392
1395
1397
1400
1406
1586
1404
1406
1394
1400
1396
1402
1402
1404
1398
1416
1408
1411
1413
1408
1401
1398
1393
1394
1384
1385
1382
1385
1389
1392
1389
1392
1396
1404
1426
1410
1416
1428
1424
1436
1434
1424
1424
1428
1424
1432
1413
1418
1416
1428
1423
1420
1429
1433
1445
1442
1445
1453
1459
1469
1468
1473
1472
1468
1473
1477
1468
1466
1470
1469
1461
1464
1472
1456
1456
1466
1468
1457
1457
1464
1464
1478
1474
1472
1468
1466
1472
1472
1468
1472
1472
1478
1482
1495
1488
1492
1496
1508
1525
1515
1522
1524
1524
1532
1530
1524
1524
1524
1528
1520
1506
1509
1506
1504
1504
1510
1512
1517
1525
1529
1538
1539
1541
1536
1528
1530
1530
1523
1520
1506
1514
1521
1520
1524
1540
1549
1552
1560
1560
1580
1584
1578
1589
1584
1578
1579
1586
1584
1573
1568
1573
1570
1571
1571
1576
1585
1600
1590
1588
1600
1607
1593
1600
1593
1584
1586
1585
1580
1578
1580
1568
1576
1578
1592
1586
1597
1601
1602
1604
1606
1616
1618
1617
1624
1621
1617
1620
1617
1610
1610
1618
1612
1620
1633
1632
1636
1636
1648
1656
1648
1648
1642
1640
1632
1626
1624
1616
1617
1609
1612
1618
1624
1624
1633
1643
1659
1666
1672
1677
1696
1702
1700
1706
1704
1704
1698
1700
1692
1692
1700
1696
1696
1706
1696
1698
1712
1712
1720
1728
1716
1716
1712
1713
1713
1712
1709
1716
1714
1697
1709
1714
1720
1732
1736
1746
1762
1764
1777
1776
1792
1776
1784
1784
1789
1776
1772
1602
1752
1753
1760
1752
1752
1745
1745
1756
1760
1768
1776
1787
1797
1804
1817
1825
1833
1843
1852
1866
1869
1876
1884
1890
1904
1888
1898
1904
1912
1920
1932
1936
1938
1938
1952
1956
1940
1933
1924
1932
1912
1902
1897
1892
1888
1883
1885
1880
1888
1895
1897
1905
1908
1908
1920
1904
1896
1880
1874
1846
1834
1828
1816
1812
1802
1802
1825
1824
1829
1848
1858
1862
1874
1884
1893
1896
1897
1898
1896
1877
1890
1894
1888
1893
1895
1892
1902
1916
1904
1882
1884
1884
1896
1892
1904
1896
1884
1896
1908
1908
1914
1909
1909
1906
1904
1904
1893
1892
1883
1873
1864
1840
1828
1810
1778
1774
1750
1747
1751
1752
1766
1772
1790
1812
1840
1888
1936
2000
2086
2180
2304
2424
2536
2664
2787
2908
3008
3082
3156
3186
3210
3189
3147
3075
2976
2880
2762
2660
2576
2508
2453
2425
2412
2396
2420
2456
2500
2548
2592
2620
2658
2672
2712
2704
2680
2644
2609
2560
2504
2456
2406
2368
2320
2281
2248
2204
2172
2129
2099
2060
2032
1987
1960
1930
1906
1876
1854
1840
1832
1832
1824
1816
1828
1818
1832
1834
1832
1829
1821
1840
1816
1812
1818
1809
1805
1803
1810
1796
1804
1804
1811
1797
1798
1808
1805
1796
1784
1772
1756
1748
1744
1732
1732
1718
1716
1716
1720
1723
1731
1731
1745
1755
1760
1764
1785
1787
1795
1784
1792
1788
1792
1785
1768
1772
1766
1756
1760
1741
1738
1740
1746
1752
1752
1749
1768
1752
1756
1768
1769
1770
1760
1762
1769
1757
1764
1761
1753
1760
1745
1750
1752
1760
1764
1764
1773
1776
1780
1781
1778
1776
1772
1760
1768
1760
1761
1768
1776
1776
1785
1800
1808
1821
1824
1816
1818
1813
1813
1810
1800
1792
1783
1772
1776
1779
1780
1786
1782
1792
1799
1800
1800
1808
1808
1800
1802
1800
1800
1796
1792
1788
1791
1784
1792
1802
1788
1792
1798
1802
1810
1820
1830
1830
1837
1835
1843
1840
1837
1835
1836
1829
1824
1824
1820
1808
1808
1796
1794
1972
1790
1796
1785
1788
1788
1788
1800
1798
1798
1800
1801
1801
1808
1797
1802
1800
1798
1794
1792
1808
1792
1798
1787
1780
1776
1784
1781
1785
1776
1776
1770
1772
1766
1768
1768
1765
1768
1768
1777
1785
1787
1781
1784
1787
1787
1792
1792
1792
1792
1800
1797
1801
1805
1809
1816
1826
1828
1832
1837
1832
1837
1816
1816
1817
1810
1816
1818
1816
1818
1808
1824
1820
1816
1818
1826
1820
1821
1828
1825
1825
1835
1830
1827
1826
1830
1826
1824
1811
1808
1802
1796
1805
1795
1781
1796
1786
1786
1780
1782
1780
1774
1776
1784
1792
1785
1797
1794
1792
1794
1792
1796
1798
1808
1810
1804
1805
1813
1808
1810
1811
1811
1816
1816
1820
1828
1828
1825
1833
1834
1846
1852
1848
1840
1840
1836
1834
1818
1816
1801
1812
1810
1819
1812
1819
1835
1828
1834
1840
1856
1836
1837
1837
1832
1832
1830
1830
1819
1816
1816
1808
1818
1816
1824
1832
1829
1840
1856
1846
1858
1856
1846
1846
1840
1840
1834
1829
1835
1824
1829
1836
1829
1922
1848
1851
1845
1862
1858
1864
1872
1854
1848
1848
1836
1824
1824
1824
1816
1808
1817
1821
1832
1828
1832
1836
1840
1842
1842
1843
1845
1837
1841
1825
1826
1828
1816
1810
1800
1796
1794
1800
1798
1798
1788
1797
1800
1786
1808
1814
1820
1808
1826
1817
1821
1813
1809
1800
1808
1804
1808
1814
1825
1826
1829
1840
1846
1850
1853
1864
1850
1856
1842
1830
1832
1813
1810
1812
1808
1816
1808
1801
1808
1804
1820
1824
1830
1824
1829
1828
1824
1824
1816
1814
1818
1817
1811
1816
1820
1819
1819
1826
1825
1833
1840
1840
1836
1832
1876
1846
1846
1842
1836
1828
1824
1808
1816
1802
1798
1800
1802
1801
1804
1809
1814
1819
1824
1832
1828
1830
1835
1840
1826
1828
1814
1813
1824
1808
1808
1800
1800
1806
1816
1808
1824
1824
1828
1840
1864
1869
1888
1889
1898
1905
1907
1905
1913
1916
1915
1914
1912
1915
1908
1914
1914
1911
1910
1912
1914
1912
1905
1888
1876
1864
1850
1844
1840
1824
1812
1809
1824
1818
1826
1824
1826
1826
1821
1828
1820
1824
1809
1803
1792
1781
1780
1763
1753
1736
1747
1747
1748
1761
1754
1764
1765
1764
1768
1768
1772
1760
1764
1748
1760
1753
1734
1732
1724
1717
1716
1714
1707
1709
1706
1704
1706
1709
1717
1720
1719
1728
1718
1720
1713
1714
1699
1680
1676
1666
1644
1628
1610
1590
1570
1552
1552
1541
1544
1544
1561
1587
1592
1604
1621
1632
1650
1680
1714
1776
1833
1908
2005
2120
2230
2352
2477
2604
2706
2736
2800
2824
2836
2808
2760
2672
2564
2440
2344
2234
2144
2066
2024
2005
2017
2048
2081
2146
2212
2275
2344
2376
2405
2416
2412
2392
2357
2316
2266
2196
2144
2044
2000
1944
1906
1856
1820
1788
1757
1728
1700
1670
1650
1616
1578
1556
1536
1522
1497
1484
1480
1477
1468
1472
1468
1460
1467
1460
1458
1453
1450
1449
1440
1440
1440
1432
1436
1418
1414
1418
1412
1409
1401
1381
1373
1366
1370
1369
1376
1378
1385
1380
1376
1371
1368
1379
1368
1360
1360
1356
1355
1352
1351
1352
1363
1360
1368
1360
1376
1376
1364
1324
1365
1353
1340
1336
1332
1336
1331
1325
1319
1317
1317
1315
1318
1318
1323
1328
1338
1333
1338
1339
1326
1328
1317
1312
1305
1308
1306
1308
1306
1314
1310
1312
1304
1308
1288
1302
1289
1299
1298
1297
1299
1307
1298
1284
1289
1284
1275
1275
1270
1271
1266
1269
1271
1282
1290
1282
1288
1300
1297
1300
1298
1296
1293
1288
1286
1278
1268
1264
1266
1270
1280
1272
1268
1268
1280
1268
1272
1272
1280
1272
1262
1272
1267
1252
1249
1258
1241
1254
1243
1256
1256
1261
1266
1276
1276
1279
1277
1260
1258
1250
1243
1241
1250
1236
1230
1227
1229
1226
1219
1225
1230
1234
1232
1233
1221
1216
1205
1196
1188
1178
1173
1190
1182
1182
1176
1176
1178
1161
1168
1162
1152
1146
1152
1155
1152
1160
1171
1170
1177
1182
1192
1184
1185
1181
1182
1179
1176
1168
1170
1156
1152
1146
1152
1165
1176
1172
1182
1184
1194
1204
1209
1216
1208
1200
1211
1208
1205
1201
1194
1194
1192
1197
1190
1189
1192
1192
1188
1192
1194
1187
1186
1184
1186
1186
1178
1188
1184
1190
1192
1194
1204
1200
1206
1216
1216
1213
1211
1205
1203
1202
1196
1189
1172
1172
1169
1164
1165
1158
1152
1156
1152
1147
1152
1157
1149
1158
1148
1173
1174
1176
1180
1180
1188
1180
1184
1182
1176
1174
1165
1170
1170
1161
1160
1166
1164
1166
1172
1169
1168
1173
1170
1172
1174
1179
1170
1168
1164
1173
1163
1184
1180
1180
1194
1188
1192
1194
1202
1200
1189
1182
1184
1178
1170
1172
1170
1168
1172
1163
1160
1160
1163
1176
1178
1184
1185
1185
1200
1204
1205
1208
1214
1225
1216
1210
1200
1185
1178
1178
1160
1156
1136
1139
1138
1149
1144
1169
1170
1180
1174
1184
1173
1180
1164
1166
1164
1177
1158
1156
1152
1147
1157
1152
1155
1176
1173
1184
1188
1186
1186
1192
1194
1192
1178
1169
1168
1174
1157
1160
1163
1156
1149
1156
1155
1147
1144
1152
1161
1145
1149
1152
1149
1147
1147
1147
1149
1168
1168
1112
1162
1160
1164
1168
1168
1176
1168
1173
1178
1187
1187
1196
1199
1198
1192
1188
1178
1173
1175
1170
1159
1159
1156
1173
1172
1181
1176
1192
1200
1222
1232
1220
1220
1213
1209
1202
1192
1186
1172
1166
1164
1170
1173
1193
1197
1201
1216
1218
1229
1224
1240
1238
1242
1249
1238
1224
1222
1214
1216
1216
1208
1218
1218
1226
1226
1233
1242
1244
1250
1260
1248
1258
1253
1255
1253
1250
1237
1238
1221
1231
1217
1217
1216
1217
1216
1218
1228
1229
1243
1242
1251
1257
1267
1273
1274
1278
1274
1273
1276
1272
1284
1273
1260
1271
1280
1285
1296
1317
1320
1340
1350
1371
1371
1389
1400
1394
1395
1403
1405
1399
1395
1398
1394
1388
1372
1360
1350
1338
1336
1322
1328
1332
1352
1350
1349
1352
1353
1355
1368
1349
1350
1349
1340
1335
1317
1324
1312
1313
1316
1320
1318
1328
1321
1330
1332
1338
1338
1344
1337
1344
1344
1344
1341
1343
1337
1338
1328
1325
1332
1334
1339
1352
1357
1360
1365
1370
1371
1377
1372
1373
1380
1380
1378
1384
1385
1382
1392
1390
1392
1402
1413
1412
1413
1412
1400
1394
1364
1356
1312
1292
1261
1253
1236
1243
1244
1261
1276
1296
1326
1357
1405
1453
1530
1607
1709
1821
1955
2084
2224
2376
2518
2600
2716
2808
2880
2920
2936
2920
2872
2808
2756
2645
2541
2436
2329
2236
2166
2120
2088
2082
2091
2144
2168
2208
2248
2288
2308
2324
2324
2317
2304
2276
2240
2164
2120
2064
2020
1968
1908
1860
1812
1760
1716
1668
1620
1585
1550
1528
1508
1494
1483
1489
1480
1484
1475
1483
1488
1482
1484
1488
1488
1502
1500
1496
1499
1500
1501
1494
1492
1484
1484
1484
1488
1482
1480
1484
1485
1496
1496
1495
1507
1512
1506
1507
1512
1522
1526
1520
1528
1536
1536
1536
1541
1546
1540
1546
1546
1548
1552
1548
1554
1380
1534
1540
1548
1554
1552
1570
1580
1581
1590
1589
1589
1590
1588
1577
1576
1575
1572
1572
1570
1584
1580
1592
1614
1608
1600
1612
1619
1616
1624
1620
1635
1632
1636
1640
1640
1632
1642
1636
1626
1626
1628
1635
1641
1636
1656
1653
1664
1686
1673
1680
1689
1691
1689
1696
1700
1688
1690
1691
1692
1688
1680
1680
1692
1704
1708
1712
1716
1728
1748
1744
1758
1760
1773
1770
1764
1760
1760
1754
1762
1757
1760
1762
1756
1766
1764
1769
1782
1776
1780
1794
1792
1788
1784
1784
1784
1784
1786
1780
1798
1800
1804
1817
1825
1824
1824
1825
1828
1837
1845
1840
1840
1837
1840
1844
1848
1840
1846
1840
1837
1844
1836
1834
1836
1824
1816
1828
1824
1834
1829
1826
1836
1844
1852
1844
1853
1848
1847
1844
1856
1848
1843
1852
1858
1846
1856
1873
1866
1880
1883
1874
1884
1896
1904
1904
1909
1898
1896
1902
1905
1900
1904
1904
1898
1908
1912
1916
1921
1933
1944
1952
1953
1965
1968
1970
1971
1980
1966
1976
1964
1976
1963
1973
1974
1968
1971
1984
1984
1976
1992
1992
1994
2000
2010
2008
2004
1992
2016
2009
2007
2000
2001
2000
1996
2009
2016
2021
2032
2040
2052
2053
2070
2070
2072
2080
2080
2081
2076
2080
2066
2044
2034
2036
2028
2032
2040
2032
2037
2047
2084
2088
2097
2112
2129
2116
2114
2128
2123
2121
2124
2128
2129
2136
2140
2144
2145
2149
2149
2154
2160
2164
2162
2144
2148
2144
2154
2148
2153
2152
2154
2160
2184
2185
2181
2192
2185
2202
2196
2216
2213
2212
2222
2236
2235
2240
2236
2245
2250
2244
2259
2256
2260
2272
2261
