1658
1617
1602
1616
1657
1716
1778
1832
1884
1972
2037
2080
2105
2105
2104
2092
2061
2027
1988
1938
1886
1856
1816
1772
1745
1730
1728
1709
1712
1719
1728
1744
1712
1732
1738
1748
1732
1740
1730
1712
1700
1704
1709
1696
1686
1672
1676
1672
1680
1677
1682
1686
1700
1705
1712
1728
1724
1713
1707
1698
1678
1673
1654
1645
1600
1600
1593
1588
1584
1600
1594
1592
1600
1622
1653
1648
1641
1638
1623
1610
1606
1574
1568
1547
1540
1529
1526
1537
1526
1536
1536
1548
1556
1557
1553
1553
1512
1504
1496
1465
1460
1442
1421
1410
1396
1412
1414
1422
1413
1421
1430
1438
1452
1450
1458
1448
1449
1453
1432
1416
1410
1388
1372
1358
1351
1354
1356
1355
1332
1344
1360
1384
1384
1402
1416
1424
1424
1440
1452
1446
1444
1435
1432
1434
1433
1440
1446
1450
1472
1478
1506
1529
1542
1568
1586
1604
1621
1624
1624
1620
1596
1604
1612
1616
1624
1642
1658
1676
1692
1752
1781
1801
1826
1848
1873
1901
1920
1937
1946
1948
1954
1958
1964
1969
1994
1997
2016
2032
2048
2075
2092
2114
2080
2112
2128
2132
2132
2144
2128
2136
2116
2164
2164
2160
2160
2164
2176
2184
2186
2197
2216
2228
2241
2267
2268
2288
2289
2284
2278
2272
2257
2248
2244
2241
2168
2176
2176
2176
2176
2196
2208
2212
2208
2256
2294
2305
2309
2304
2307
2290
2288
2273
2267
2256
2256
2253
2257
2256
2264
2266
2276
2293
2304
2313
2320
2326
2264
2280
2268
2257
2240
2252
2240
2226
2224
2248
2289
2274
2292
2296
2304
2316
2320
2339
2344
2352
2348
2348
2336
2324
2325
2305
2304
2297
2304
2304
2284
2304
2240
2248
2256
2274
2284
2296
2312
2316
2312
2348
2360
2368
2337
2330
2321
2312
2306
2309
2315
2312
2326
2323
2338
2345
2357
2368
2380
2384
2384
2376
2376
2388
2292
2288
2276
2272
2252
2260
2258
2256
2260
2308
2329
2355
2360
2369
2386
2393
2401
2400
2387
2387
2372
2364
2358
2345
2347
2342
2352
2348
2355
2360
2368
2376
2336
2336
2352
2356
2352
2360
2352
2340
2330
2360
2385
2373
2370
2359
2360
2362
2368
2369
2372
2384
2405
2413
2432
2434
2434
2435
2433
2422
2408
2392
2384
2372
2292
2300
2296
2292
2290
2308
2313
2320
2328
2384
2416
2423
2432
2422
2419
2412
2396
2373
2371
2360
2353
2352
2352
2344
2342
2352
2353
2361
2373
2386
2392
2409
2344
2346
2340
2336
2316
2320
2308
2292
2292
2328
2342
2348
2345
2346
2362
2360
2384
2397
2400
2408
2426
2432
2412
2405
2390
2384
2368
2368
2356
2348
2354
2348
2280
2290
2296
2312
2313
2344
2340
2348
2320
2394
2437
2409
2406
2400
2379
2379
2369
2356
2364
2354
2357
2362
2373
2373
2389
2393
2411
2419
2422
2428
2432
2417
2344
2344
2408
2324
2304
2312
2296
2296
2288
2344
2371
2380
2396
2402
2413
2418
2417
2432
2418
2410
2400
2395
2388
2381
2368
2357
2360
2353
2368
2368
2376
2385
2328
2346
2344
2354
2354
2360
2356
2344
2328
2368
2380
2379
2368
2362
2364
2360
2368
2368
2372
2384
2401
2405
2413
2419
2421
2425
2409
2402
2402
2388
2380
2374
2304
2308
2314
2316
2296
2320
2320
2316
2332
2372
2417
2414
2421
2416
2417
2409
2396
2387
2381
2370
2362
2368
2350
2361
2368
2352
2384
2384
2388
2404
2409
2424
2352
2368
2352
2352
2340
2340
2320
2312
2296
2337
2368
2357
2357
2356
2362
2368
2376
2384
2394
2394
2405
2400
2393
2380
2378
2378
2357
2356
2352
2349
2344
2353
2288
2302
2312
2308
2320
2336
2336
2336
2328
2368
2380
2368
2347
2347
2336
2337
2320
2317
2321
2324
2338
2348
2356
2378
2400
2418
2444
2465
2473
2481
2488
2480
2416
2416
2392
2394
2368
2380
2368
2364
2360
2388
2427
2422
2435
2433
2442
2448
2442
2452
2436
2426
2426
2404
2392
2387
2378
2368
2357
2363
2352
2358
2346
2360
2296
2308
2324
2328
2324
2336
2328
2324
2312
2344
2360
2353
2350
2352
2340
2340
2356
2341
2345
2353
2361
2373
2384
2393
2396
2386
2384
2378
2369
2357
2356
2344
2265
2288
2268
2272
2266
2288
2296
2300
2304
2360
2387
2396
2397
2387
2384
2368
2354
2324
2320
2289
2272
2258
2256
2259
2277
2292
2316
2340
2372
2405
2436
2480
2458
2514
2564
2624
2672
2754
2812
2944
2944
3064
3157
3200
3237
3253
3248
3224
3168
3100
3008
2921
2808
2714
2620
2541
2486
2436
2412
2393
2392
2400
2433
2464
2432
2488
2528
2564
2592
2640
2664
2680
2688
2752
2776
2768
2763
2740
2710
2688
2657
2619
2600
2563
2530
2501
2473
2445
2424
2405
2389
2380
2368
2358
2344
2325
2248
2241
2228
2216
2180
2216
2208
2208
2208
2256
2285
2288
2308
2313
2331
2336
2337
2336
2324
2324
2306
2304
2293
2283
2268
2261
2256
2259
2261
2264
2273
2288
2232
2256
2264
2266
2272
2276
2264
2256
2234
2260
2274
2264
2265
2264
2253
2253
2272
2280
2286
2304
2312
2318
2345
2350
2360
2362
2359
2348
2336
2320
2308
2307
2232
2236
2240
2232
2220
2244
2244
2256
2260
2320
2349
2363
2373
2373
2368
2363
2358
2350
2341
2330
2324
2325
2317
2315
2326
2332
2339
2356
2361
2384
2390
2396
2336
2344
2344
2336
2328
2328
2320
2300
2288
2328
2348
2344
2348
2353
2356
2368
2380
2388
2390
2408
2416
2412
2410
2416
2408
2392
2389
2384
2376
2381
2378
2370
2316
2316
2324
2332
2324
2344
2348
2352
2352
2384
2412
2402
2392
2384
2377
2370
2361
2362
2358
2362
2361
2372
2376
2389
2400
2416
2420
2440
2439
2436
2424
2432
2352
2348
2324
2314
2304
2320
2312
2300
2292
2344
2376
2372
2380
2388
2388
2391
2400
2395
2389
2381
2368
2353
2337
2330
2330
2317
2312
2312
2313
2320
2320
2326
2274
2296
2296
2312
2312
2320
2320
2304
2298
2322
2342
2324
2321
2311
2307
2304
2304
2309
2320
2316
2337
2345
2361
2368
2369
2380
2372
2376
2360
2356
2352
2336
2264
2276
2264
2250
2264
2272
2282
2280
2280
2328
2368
2376
2386
2384
2384
2373
2368
2361
2344
2338
2340
2328
2331
2326
2331
2338
2337
2362
2373
2371
2392
2404
2344
2352
2348
2340
2328
2332
2320
2314
2292
2340
2360
2354
2360
2368
2380
2388
2404
2413
2425
2445
2451
2448
2449
2443
2432
2421
2404
2400
2393
2384
2384
2374
2320
2336
2352
2388
2400
2432
2448
2468
2480
2544
2594
2588
2600
2597
2598
2594
2586
2601
2600
2604
2610
2627
2641
2656
2692
2696
2722
2729
2741
2738
2722
2714
2624
2608
2584
2556
2528
2536
2500
2496
2488
2544
2580
2610
2656
2704
2744
2801
2848
2907
2948
3018
3072
3137
3216
3302
3396
3488
3593
3702
3808
3920
4036
4095
4095
4095
4095
4095
4095
4095
4095
4095
4095
4095
4095
4095
4095
4095
4095
4095
4095
4095
4095
4095
4095
4095
4095
4095
4095
4095
4095
4095
4095
4095
4095
4095
4084
3876
3592
3344
3044
2784
2528
2312
2144
2048
1989
1929
1915
1929
1952
2002
2048
2094
2154
2193
2226
2264
2276
2289
2280
2273
2264
2241
2224
2204
2184
2160
2080
2056
2032
2016
1992
1988
1968
1952
1940
1984
1992
1994
2000
2003
2010
2012
2030
2040
2048
2048
2048
2039
2029
2016
1997
1992
1973
1955
1944
1937
1940
1934
1884
1892
1890
1912
1912
1924
1945
1960
1940
1986
2003
1994
1984
1973
1964
1954
1944
1933
1952
1922
1924
1920
1922
1924
1937
1946
1948
1962
1964
1963
1952
1952
1892
1880
1876
1860
1848
1840
1833
1828
1816
1840
1852
1861
1872
1869
1869
1875
1869
1869
1860
1851
1837
1819
1808
1797
1779
1765
1748
1760
1755
1748
1768
1772
1736
1752
1760
1768
1768
1780
1772
1776
1756
1772
1767
1756
1746
1736
1732
1731
1731
1736
1747
1756
1768
1792
1808
1826
1832
1838
1838
1842
1843
1846
1842
1833
1796
1808
1804
1812
1816
1844
1856
1860
1776
1936
1963
1980
1996
2012
2017
2032
2037
2048
2042
2057
2068
2070
2086
2097
2118
2141
2153
2168
2189
2214
2246
2264
2236
2264
2280
2280
2288
2312
2304
2324
2320
2368
2400
2419
2425
2440
2461
2477
2477
2506
2517
2548
2560
2560
2564
2560
2561
2547
2538
2540
2528
2517
2520
2520
2452
2468
2472
2484
2496
2704
2536
2544
2552
2604
2640
2636
2632
2634
2624
2610
2608
2598
2592
2578
2592
2588
2592
2605
2605
2612
2624
2637
2656
2660
2658
2661
2580
2580
2580
2560
2556
2562
2552
2544
2532
2592
2626
2640
2652
2664
2680
2690
2700
2704
2708
2700
2688
2678
2669
2657
2648
2640
2644
2640
2656
2658
2656
2680
2608
2624
2632
2648
2648
2664
2656
2640
2644
2672
2688
2680
2666
2669
2672
2677
2674
2672
2677
2688
2699
2720
2738
2741
2752
2758
2758
2754
2744
2732
2714
2704
2628
2628
2616
2616
2608
2626
2624
2628
2628
2688
2720
2736
2744
2752
2753
2752
2732
2723
2721
2708
2706
2705
2704
2692
2691
2696
2712
2715
2730
2747
2754
2768
2704
2720
2712
2720
2696
2704
2682
2672
2644
2688
2722
2716
2720
2724
2732
2739
2756
2773
2788
2802
2820
2816
2802
2804
2794
2784
2786
2763
2762
2752
2748
2746
2668
2672
2680
2688
2692
2712
2720
2740
2724
2802
2818
2819
2824
2816
2795
2784
2786
2772
2773
2777
2773
2784
2784
2792
2804
2816
2820
2828
2837
2851
2837
2840
2760
2752
2740
2736
2720
2728
2716
2712
2712
2764
2800
2804
2824
2834
2841
2857
2866
2880
2874
2880
2873
2876
2860
2853
2852
2834
2834
2828
2828
2836
2824
2840
2756
2776
2786
2808
2800
2824
2826
2816
2804
2848
2868
2864
2852
2850
2834
2837
2832
2834
2844
2851
2864
2874
2888
2894
2908
2918
2928
2928
2917
2908
2897
2889
2792
2792
2800
2800
2788
2808
2788
2808
2800
2864
2912
2913
2921
2934
2938
2938
2944
2925
2914
2904
2904
2893
2881
2884
2885
2884
2892
2896
2901
2913
2916
2932
2852
2856
2864
2856
2784
2848
2824
2816
2800
2848
2880
2869
2872
2875
2881
2896
2898
2914
2912
2944
2938
2944
2948
2947
2924
2912
2912
2899
2888
2885
2874
2875
2788
2808
2812
2820
2824
2852
2864
2872
2872
2936
2973
2965
2950
2944
2932
2922
2912
2904
2889
2888
2880
2880
2880
2880
2896
2896
2908
2917
2939
2944
2944
2949
2848
3032
2832
2818
2804
2808
2800
2794
2780
2832
2868
2868
2882
2892
2904
2902
2921
2928
2924
2922
2921
2912
2891
2880
2880
2869
2864
2864
2856
2865
2868
2872
2800
2824
2848
2860
2860
2888
2896
2890
2884
2928
2961
2957
2960
2949
2945
2944
2944
2946
2954
2955
2956
2952
2969
2964
2964
2960
2965
2968
2949
2936
2920
2908
2820
2818
2804
2804
2786
2796
2792
2792
2784
2828
2868
2872
2880
2880
2880
2880
2872
2864
2848
2849
2829
2822
2824
2818
2816
2825
2822
2829
2841
2848
2853
2856
2784
2808
2800
2808
2784
2792
2770
2768
2744
2772
2808
2792
2794
2792
2796
2787
2792
2809
2805
2829
2828
2832
2852
2837
2822
2809
2794
2778
2752
2736
2720
2716
2636
2632
2640
2656
2664
2720
2736
2760
2776
2856
2909
2928
2960
2994
3034
3073
3136
3192
3258
3328
3408
3462
3520
3552
3572
3557
3532
3488
3412
3316
3224
3105
2896
2804
2720
2660
2628
2632
2648
2664
2704
2784
2874
2920
2968
3020
3052
3090
3104
3120
3112
3108
3092
3076
3056
3040
3024
3009
3000
2981
2976
2950
2937
2928
2824
2824
2800
2786
2768
2760
2728
2704
2668
2700
2696
2674
2668
2632
2624
2624
2616
2613
2624
2611
2620
2632
2642
2660
2667
2666
2662
2660
2652
2641
2626
2609
2528
2516
2512
2512
2496
2516
2512
2520
2516
2584
2618
2624
2636
2640
2640
2640
2628
2624
2601
2600
2584
2582
2573
2560
2561
2563
2570
2568
2580
2580
2594
2604
2540
2558
2560
2549
2538
2548
2528
2521
2504
2544
2568
2560
2560
2560
2566
2565
2570
2578
2600
2612
2620
2614
2616
2624
2613
2605
2596
2586
2584
2564
2560
2540
2472
2480
2476
2480
2476
2508
2504
2508
2520
2553
2592
2592
2583
2570
2561
2541
2540
2604
2521
2509
2508
2508
2509
2513
2506
2517
2529
2529
2550
2549
2560
2561
2476
2480
2480
2472
2456
2464
2464
2452
2448
2496
2518
2528
2532
2537
2540
2560
2552
2560
2552
2552
2540
2529
2522
2514
2508
2497
2497
2480
2482
2480
2476
2480
2420
2440
2442
2460
2452
2472
2496
2476
2474
2504
2504
2498
2474
2466
2457
2442
2440
2444
2440
2441
2449
2452
2466
2472
2483
2496
2489
2484
2480
2469
2456
2435
2344
2344
2328
2320
2320
2330
2312
2316
2314
2360
2400
2412
2427
2435
2438
2432
2424
2420
2400
2390
2380
2368
2348
2342
2342
2336
2338
2340
2345
2363
2381
2390
2336
2352
2360
2368
2356
2352
2336
2324
2305
2344
2352
2350
2344
2338
2337
2344
2345
2354
2357
2368
2377
2389
2392
2390
2384
2380
2368
2357
2346
2340
2344
2332
2266
2280
2276
2282
2288
2308
2308
2320
2320
2369
2390
2389
2380
2368
2359
2341
2341
2325
2313
2316
2304
2310
2316
2314
2323
2336
2342
2349
2358
2360
2354
2352
2288
2284
2276
2266
2256
2256
2256
2242
2224
2266
2308
2313
2316
2324
2337
2353
2358
2361
2384
2361
2358
2357
2346
2338
2317
2324
2305
2304
2304
2288
2296
2289
2240
2256
2256
2268
2272
2292
2288
2296
2292
2312
2331
2328
2312
2304
2292
2289
2282
2276
2276
2293
2291
2304
2306
2320
2328
2338
2340
2352
2339
2339
2321
2306
2242
2250
2232
2216
2216
2308
2216
2216
2224
2266
2298
2304
2320
2320
2320
2325
2312
2310
2304
2284
2266
2261
2253
2240
2235
2226
2224
2236
2241
2250
2264
2288
2229
2256
2244
2256
2256
2250
2232
2224
2228
2241
2280
2284
2280
2285
2304
2304
2328
2346
2360
2363
2386
2388
2400
2389
2384
2368
2356
2341
2317
2304
2280
2281
2208
2210
2184
2208
2202
2224
2228
2244
2248
2304
2336
2333
2328
2317
2293
2282
2272
2242
2232
2214
2213
2212
2217
2208
2222
2232
2234
2252
2273
2272
2289
2288
2220
2212
2208
2200
2180
2180
2168
2162
2148
2192
2211
2216
2224
2232
2232
2249
2264
2269
2272
2273
2273
2256
2242
2229
2221
2204
2203
2192
2186
2184
2184
2178
2120
2136
2136
2148
2152
2146
2132
2120
2092
2100
2112
2096
2080
2070
2077
2094
2118
2132
2157
2198
2240
2294
2349
2420
2499
2581
2618
2753
2836
2914
2988
3045
3000
3034
3040
3020
2960
2912
2820
2712
2592
2520
2449
2352
2278
2225
2188
2168
2154
2164
2176
2209
2240
2283
2328
2372
2401
2436
2464
2484
2499
2512
2522
2528
2464
2464
2452
2440
2408
2400
2368
2320
2280
2288
2258
2232
2197
2176
2160
2144
2128
2122
2112
2108
2106
2104
2112
2104
2091
2084
2080
2080
2061
2056
2052
2048
1988
1992
1992
1996
2000
2008
2010
2032
2024
2064
2085
2090
2086
2080
2069
2064
2050
2036
2033
2034
2016
2016
2026
2027
2028
2030
2051
2054
2072
2084
2092
2096
2042
2044
2032
2032
2008
2004
1993
1988
1976
2010
2027
2028
2030
2050
2058
2074
2085
2090
2102
2104
2102
2096
2074
2060
2052
2040
2040
2026
2029
2026
2018
2020
1984
1988
1996
2008
1984
2032
2046
2036
2026
2064
2076
2064
2050
2048
2034
2038
2024
2025
2027
2028
2034
2048
2061
2075
2077
2089
2096
2107
2098
2102
2100
2080
2016
2024
2008
2004
2000
2008
2016
2016
2016
2060
2094
2104
2115
2121
2128
2126
2124
2113
2102
2090
2082
2059
2054
2054
2040
2048
2048
2052
2053
2061
2086
2086
2032
2144
2068
2064
2052
2060
2038
2032
2010
2018
2034
2023
2016
2005
2004
1993
1994
2009
2006
2008
2016
2006
2022
2013
2004
1990
1978
1972
1968
1948
1942
1934
1872
1872
1877
1868
1868
1880
1884
1896
1896
1940
1973
1941
1970
1961
1947
1934
1920
1908
1895
1896
1889
1892
1891
1890
1898
1913
1917
1925
1945
1952
1944
1952
1900
1906
1892
1884
1873
1872
1848
1848
1824
1856
1876
1881
1883
1894
1901
1920
1928
1932
1934
1940
1939
1936
1926
1922
1909
1896
1893
1888
1872
1883
1881
1876
1834
1842
1844
1860
1868
1880
1880
1888
1880
1904
1908
1890
1878
1869
1856
1847
1838
1844
1832
1851
1856
1860
1872
1882
1884
1896
1911
1909
1910
1904
1904
1888
1840
1836
1833
1824
1816
1828
1824
1828
1832
1872
1900
1920
1929
1943
1958
1956
1952
1956
1944
1934
1924
1920
1913
1902
1908
1906
1904
1908
1916
1923
1928
1945
1896
1920
1928
1936
1936
1932
1936
1924
1904
1922
1946
1937
1945
1937
1945
1940
1952
1959
1961
1965
1976
1990
2005
1986
1986
1984
1968
1959
1945
1947
1941
1924
1874
1882
1882
1888
1892
1920
1922
1936
1944
1988
2009
2018
2008
2009
1984
1965
1956
1938
1925
1920
1908
1920
1916
1930
1928
1939
1953
1965
1980
1985
1995
1998
1944
1948
1936
1928
1904
1904
1892
1884
1864
1896
1913
1920
1922
1936
1939
1947
1946
1958
1974
1980
1980
1989
1978
1979
1976
1973
1981
1984
1984
1990
2000
1873
1964
1988
1992
2004
2024
2032
2036
2032
2016
2036
2040
2034
2013
2000
1988
1981
1976
1984
1978
1984
1984
2001
2020
2021
2035
2049
2060
2052
2050
2037
2029
2004
1932
1924
1898
1888
1872
1872
1858
1876
1860
1904
1936
1956
1973
1980
1994
2001
2006
2004
2009
1993
1985
1976
1971
1961
1957
1945
1946
1944
1945
1949
1960
1973
1928
1946
1944
1962
1952
1953
1936
1932
1916
1936
1949
1937
1949
1933
1931
1936
1940
1952
1952
1949
1954
1952
1948
1940
1938
1913
1908
1898
1900
1902
1906
1913
1874
1904
1928
1970
2010
2080
2144
2226
2308
2452
2568
2660
2728
2804
2850
2873
2872
2848
2800
2724
2635
2532
2413
2290
2184
2090
2024
1980
1945
1943
1944
1961
1936
1984
2012
2040
2082
2128
2152
2184
2208
2264
2304
2316
2337
2343
2349
2354
2352
2352
2340
2325
2290
2256
2220
2179
2128
2092
2057
2009
1973
1955
1929
1914
1858
1860
1860
1860
1868
1888
1888
1890
1882
1914
1937
1926
1923
1913
1914
1914
1909
1911
1913
1901
1912
1914
1920
1927
1940
1948
1954
1956
1953
1941
1944
1920
1868
1864
1856
1856
1840
1856
1844
1848
1844
1888
1904
1917
1920
1933
1944
1945
1952
1938
1941
1927
1920
1913
1904
1892
1897
1900
1890
1893
1892
1901
1912
1915
1880
1904
1914
1921
1916
1928
1920
1912
1888
1908
1913
1915
1902
1904
1908
1917
1932
1938
1941
1956
1969
1978
2005
2001
2006
1997
1989
1984
1968
1954
1952
1940
1890
1892
1896
1892
1897
1912
1920
1928
1940
1978
2012
2012
2021
2016
2009
2000
1987
1984
1979
1977
1963
1978
1980
1984
1992
2001
2016
2026
2039
2052
2065
2068
2008
2012
2000
1984
1968
1985
1952
1940
1932
1974
1977
1989
1984
1992
2010
2025
2048
2048
2065
2066
2065
2069
2064
2051
2036
2024
2011
2000
1996
1988
1986
1972
1936
1936
1952
1948
1958
1968
1970
1968
1936
1972
1986
1965
1955
1933
1924
1920
1908
1906
1911
1920
1912
1920
1921
1936
1944
1964
1961
1966
1964
1959
1960
1952
1896
1872
1761
1864
1848
1856
1850
1852
1860
1900
1926
1936
1946
1963
1984
1984
1988
1985
1984
1963
1954
1933
1925
1909
1906
1904
1900
1892
1913
1915
1924
1945
1904
1920
1936
1940
1936
1944
1940
1916
1906
1928
1944
1928
1923
1928
1928
1934
1936
1944
1949
1965
1965
1981
1988
2000
1992
1998
1984
1984
1964
1953
1946
1940
1888
1892
1892
1888
1880
1904
1912
1916
1912
1948
1985
1984
1997
1986
1986
1987
1962
1960
1952
1945
1939
1936
1933
1933
1938
1944
1952
1968
1989
1990
2001
2016
1968
1969
1956
1952
1940
1930
1932
1912
1897
1928
1943
1941
1941
1945
1962
1961
1978
1989
2000
2008
2016
2021
2016
2017
2000
1996
1992
1985
1984
1992
1984
1976
1924
1948
1944
1952
1948
1970
1972
1986
1980
2016
2027
2017
2012
2001
1989
1989
1988
1984
1985
1993
2008
2012
2020
2032
2054
2059
2061
2080
2083
2070
2064
2056
1988
1976
1968
1956
1938
1946
1938
1944
1936
1988
2012
2013
2032
2036
2048
2056
2056
2054
2050
2040
2036
2030
2019
2013
2016
2008
2004
2008
2002
2016
2012
2019
1980
2000
2004
2020
2008
2016
2016
2000
1984
1996
2004
2001
1996
1986
1992
1992
1997
2009
2020
2040
2050
2065
2071
2083
2074
2073
2069
2056
2040
2020
2008
1989
1936
1938
1932
1936
1924
1952
1952
1968
1980
2020
2050
2061
2072
2088
2080
2077
2082
2081
2077
2090
2088
2096
2108
2114
2133
2137
2152
2168
2177
2184
2188
2189
2124
2120
2112
2100
2080
2072
2044
2124
2016
2048
2065
2064
2068
2080
2086
2101
2116
2120
2136
2137
2144
2136
2124
2118
2097
2085
2068
2053
2048
2040
2048
2032
1988
2018
2016
2024
2018
2048
2056
2068
2068
2104
2120
2113
2104
2099
2090
2077
2074
2080
2083
2064
2077
2088
2092
2104
2122
2128
2138
2141
2148
2156
2146
2137
2072
2060
2052
2044
2018
2036
2036
2036
2032
2080
2097
2102
2105
2105
2104
2103
2104
2089
2085
2076
2080
2083
2028
2088
2108
2121
2152
2187
2230
2296
2373
2448
2480
2572
2672
2748
2818
2900
2928
2936
2912
2920
2893
2816
2707
2595
2470
2368
2259
2179
2124
2096
2090
2089
2117
2137
2170
2212
2260
2295
2336
2368
2400
2412
2354
2376
2388
2400
2400
2418
2416
2424
2416
2456
2467
2453
2432
2405
2389
2340
2290
2250
2209
2176
2138
2112
2086
2080
2068
2065
2064
2068
2076
2086
2096
2112
2068
2068
2066
2064
2056
2060
2040
2036
2024
2065
2077
2069
2075
2084
2082
2097
2098
2117
2120
2130
2131
2125
2118
2112
2101
2092
2084
2077
2070
2068
2068
2084
2022
2044
2041
2060
2058
2072
2080
2088
2088
2114
2133
2130
2120
2112
2100
2097
2090
2090
2090
2083
2094
2096
2133
2128
2128
2137
2150
2157
2166
2160
2157
2148
2088
2080
2076
2065
2052
2064
2047
2064
2048
2088
2121
2128
2140
2152
2160
2165
2170
2171
2168
2176
2160
2148
2136
2128
2125
2121
2116
2122
2129
2136
2146
2157
2128
2140
2156
2176
2168
2184
2176
2176
2168
2196
2210
2204
2197
2196
2194
2193
2188
2187
2200
2201
2210
2217
2232
2229
2233
2240
2236
2232
2233
2218
2208
2196
2128
2128
2132
2128
2132
2136
2152
2164
2160
2212
2244
2248
2256
2256
2250
2240
2224
2219
2193
2194
2178
2166
2164
2160
2160
2157
2158
2165
2169
2176
2176
2176
2128
2120
2112
2096
2080
2074
2056
2037
2018
2048
2061
2049
2048
2051
2053
2059
2070
2082
2096
2106
2120
2112
2116
2101
2096
2074
2066
2038
2040
2020
2018
2021
1970
1992
1988
2000
2008
2024
2024
2050
2052
2098
2097
2096
2080
2069
2064
2048
2039
2032
2032
2030
2030
2034
2039
2048
2060
2081
2090
2099
2100
2113
2100
2101
2040
2036
2025
2024
2012
2016
2005
2008
2000
2036
2080
2086
2082
2100
2112
2113
2116
2117
2117
2107
2096
2088
2077
2073
2072
2067
2066
2073
2072
2080
2080
2090
2040
2068
2068
2084
2080
2100
2090
2084
2066
2098
2106
2102
2097
2092
2090
2092
2092
2120
2106
2121
2128
2137
2149
2157
2160
2162
2161
2150
2147
2144
2128
2123
2064
2064
2066
2064
2066
2076
2080
2096
2096
2148
2192
2200
2218
2210
2213
2213
2200
2197
2184
2176
2171
2165
2156
2160
2156
2156
2158
2171
2176
2185
2192
2208
2152
2164
2160
2156
2148
2144
2132
2124
2120
2145
2171
2170
2176
2178
2182
2200
2208
2221
2230
2240
2251
2244
2245
2236
2225
2220
2203
2188
2189
2178
2184
2177
2122
2144
2148
2156
2164
2192
2196
2204
2208
2248
2272
2260
2256
2242
2231
2217
2212
2204
2197
2196
2203
2213
2218
2233
2250
2273
2290
2306
2325
2330
2336
2344
2284
2292
2292
2288
2292
2292
2312
2312
2320
2376
2421
2436
2464
2480
2508
2477
2537
2537
2529
2515
2496
2467
2436
2405
2372
2331
2304
2276
2253
2235
2220
2212
2160
2196
2208
2248
2264
2312
2344
2380
2402
2482
2530
2569
2632
2680
2748
2820
2912
3001
3099
3204
3328
3441
3560
3690
3809
3936
4069
4095
4095
4095
4095
4095
4095
4095
4095
4095
4095
4095
4095
4095
4095
4095
4095
4095
4095
4095
4095
4095
4095
4095
4095
4095
4095
4095
4095
4095
4095
3985
3728
3442
3161
2889
2632
2412
2168
2052
1944
1850
1794
1780
1776
1794
1816
1876
1933
1964
1992
2016
2022
2033
2032
2032
2027
2002
1984
1962
1936
1904
1870
1844
1820
1801
1786
1784
1776
1773
1728
1732
1753
1764
1770
1896
1800
1816
1812
1844
1856
1852
1838
1824
1805
1796
1778
1768
1760
1757
1746
1753
1757
1757
1773
1776
1781
1792
1800
1792
1786
1792
1720
1716
1708
1696
1680
1682
1661
1660
1650
1669
1689
1696
1704
1706
1712
1724
1720
1713
1704
1699
1674
1664
1644
1627
1617
1604
1601
1596
1585
1579
1578
1586
1545
1554
1560
1564
1558
1560
1548
1528
1520
1524
1530
1517
1504
1497
1480
1481
1484
1475
1485
1489
1497
1515
1521
1520
1524
1522
1508
1486
1475
1456
1438
1440
1384
1386
1376
1376
1370
1385
1398
1404
1416
1460
1486
1494
1499
1510
1511
1524
1504
1504
1504
1493
1494
1506
1495
1511
1522
1537
1546
1563
1586
1610
1632
1654
1640
1653
1668
1672
1668
1682
1682
1696
1680
1730
1756
1766
1784
1801
1830
1842
1872
1906
1928
1956
1986
2001
2006
2012
2024
2037
2026
2030
2040
2048
2057
2080
2032
2056
2080
2104
2120
2144
2160
2180
2184
2240
2260
2267
2260
2260
2260
2250
2252
2251
2256
2264
2264
2272
2284
2293
2308
2330
2341
2354
2354
2368
2368
2356
2296
2300
2281
2284
2264
2268
2260
2260
2260
2304
2324
2344
2344
2353
2360
2369
2373
2376
2372
2370
2360
2354
2348
2340
2330
2329
2324
2336
2344
2344
2337
2352
2292
2314
2324
2328
2336
2340
2340
2336
2328
2356
2376
2370
2357
2352
2347
2344
2336
2341
2341
2345
2356
2364
2384
2401
2409
2414
2420
2417
2413
2412
2390
2380
2308
2298
2304
2304
2282
2300
2298
2300
2300
2348
2392
2389
2404
2413
2418
2412
2405
2416
2401
2390
2387
2381
2372
2384
2378
2386
2384
2393
2411
2413
2420
2428
2368
2380
2376
2368
2290
2356
2338
2332
2320
2360
2377
2372
2381
2378
2384
2388
2396
2404
2413
2424
2434
2460
2452
2460
2440
2434
2428
2420
2406
2397
2406
2388
2324
2337
2336
2336
2336
2360
2368
2376
2384
2416
2450
2448
2437
2424
2418
2410
2396
2380
2384
2376
2381
2380
2386
2389
2408
2417
2434
2445
2457
2456
2456
2451
2380
2552
2372
2364
2356
2356
2352
2344
2338
2384
2408
2416
2417
2425
2440
2452
2449
2450
2449
2448
2438
2432
2416
2402
2400
2396
2393
2392
2390
2402
2408
2417
2360
2376
2392
2392
2392
2404
2404
2400
2372
2416
2432
2424
2412
2404
2406
2401
2400
2405
2416
2416
2432
2437
2443
2444
2450
2450
2442
2436
2432
2421
2416
2405
2336
2336
2336
2338
2336
2352
2434
2360
2360
2416
2456
2456
2474
2480
2469
2465
2466
2449
2440
2426
2432
2416
2410
2393
2390
2386
2392
2395
2405
2422
2424
2433
2378
2393
2392
2400
2388
2384
2368
2356
2336
2380
2392
2392
2391
2405
2408
2418
2432
2432
2456
2460
2474
2474
2488
2480
2469
2456
2448
2436
2416
2411
2404
2400
2328
2352
2340
2360
2354
2376
2384
2394
2392
2436
2456
2458
2452
2441
2433
2418
2412
2412
2400
2392
2397
2396
2403
2412
2420
2434
2445
2465
2469
2465
2464
2460
2388
2372
2356
2348
2320
2338
2324
2312
2304
2344
2371
2380
2391
2404
2420
2435
2450
2457
2456
2464
2455
2440
2425
2406
2392
2376
2372
2364
2356
2361
2368
2362
2316
2322
2336
2352
2346
2370
2376
2368
2352
2384
2403
2400
2384
2384
2377
2374
2384
2376
2388
2390
2413
2418
2433
2448
2456
2464
2458
2456
2444
2432
2424
2402
2324
2324
2308
2300
2352
2304
2304
2316
2316
2372
2405
2422
2443
2457
2448
2443
2448
2432
2424
2407
2400
2384
2378
2368
2368
2368
2373
2377
2385
2403
2410
2419
2368
2392
2400
2392
2372
2376
2360
2346
2324
2360
2385
2386
2382
2373
2381
2380
2386
2397
2400
2413
2427
2432
2440
2432
2432
2419
2408
2396
2386
2373
2373
2368
2304
2304
2304
2320
2320
2352
2376
2402
2412
2465
2512
2514
2516
2513
2512
2496
2500
2489
2481
2473
2457
2464
2464
2460
2460
2472
2473
2482
2480
2482
2488
2484
2408
2416
2400
2400
2368
2368
2356
2348
2344
2380
2401
2412
2416
2420
2433
2432
2440
2449
2442
2438
2433
2434
2412
2405
2396
2390
2390
2385
2390
2390
2393
2389
2336
2356
2360
2368
2360
2384
2384
2368
2352
2392
2402
2392
2388
2372
2371
2372
2376
2373
2379
2389
2404
2412
2420
2432
2436
2442
2436
2432
2416
2403
2394
2370
2292
2276
2272
2264
2248
2272
2280
2292
2308
2372
2419
2443
2475
2498
2537
2560
2600
2640
2679
2740
2792
2856
2924
2992
3046
3091
3120
3144
3145
3122
3076
3008
2848
2760
2664
2570
2464
2400
2356
2320
2304
2356
2406
2440
2468
2512
2560
2608
2644
2690
2722
2744
2748
2756
2756
2758
2740
2720
2704
2683
2664
2642
2624
2602
2516
2504
2496
2472
2452
2456
2432
2426
2392
2420
2424
2410
2384
2352
2333
2309
2304
2280
2269
2260
2260
2260
2253
2273
2285
2289
2306
2320
2336
2342
2352
2345
2272
2274
2260
2240
2228
2224
2209
2204
2184
2232
2264
2267
2282
2289
2304
2310
2320
2320
2322
2324
2317
2304
2291
2288
2276
2264
2258
2258
2253
2260
2248
2266
2204
2220
2234
2232
2244
2258
2260
2248
2236
2280
2288
2284
2277
2265
2274
2260
2256
2260
2266
2272
2276
2288
2296
2307
2315
2321
2324
2320
2316
2315
2304
2290
2226
2218
2216
2212
2218
2312
2232
2236
2244
2296
2322
2336
2352
2361
2364
2352
2348
2340
2331
2313
2297
2293
2281
2280
2273
2273
2273
2285
2296
2309
2320
2332
2288
2304
2304
2308
2312
2300
2280
2280
2256
2296
2312
2304
2296
2306
2292
2304
2309
2312
2326
2340
2337
2344
2349
2345
2350
2338
2331
2313
2304
2294
2284
2276
2208
2216
2344
2220
2216
2240
2240
2250
2250
2294
2316
2312
2304
2294
2288
2285
2274
2256
2250
2236
2232
2220
2229
2240
2233
2240
2244
2246
2259
2264
2261
2248
2180
2184
2164
2148
2128
2128
2116
2108
2100
2128
2144
2152
2157
2165
2176
2179
2192
2196
2202
2208
2196
2184
2176
2169
2160
2150
2136
2140
2139
2133
2132
2132
2080
2096
2112
2106
2116
2122
2128
2116
2104
2124
2133
2132
2124
2120
2112
2106
2100
2112
2105
2116
2130
2144
2148
2160
2168
2180
2186
2184
2192
2176
2160
2150
2080
2074
2064
2058
2048
2056
2052
2056
2064
2112
2144
2153
2169
2171
2176
2176
2182
2179
2166
2153
2136
2136
2117
2106
2106
2098
2097
2112
2115
2144
2140
2152
2105
2120
2128
2128
2120
2128
2116
2100
2088
2104
2112
2120
2112
2104
2112
2117
2124
2138
2145
2160
2166
2176
2187
2176
2176
2176
2176
2163
2157
2152
2144
2144
2088
2096
2100
2104
2104
2129
2144
2152
2148
2192
2224
2224
2213
2205
2196
2182
2178
2170
2155
2154
2154
2153
2156
2160
2176
2181
2193
2210
2224
2232
2234
2241
2170
2172
2160
2148
2140
2136
2124
2120
2112
2152
2177
2184
2195
2204
2218
2230
2248
2249
2246
2244
2234
2222
2218
2198
2192
2185
2169
2164
2166
2176
2168
2176
2120
2136
2152
2170
2152
2184
2184
2188
2178
2216
2224
2216
2204
2194
2181
2177
2176
2176
2176
2176
2186
2198
2213
2224
2234
2233
2241
2249
2248
2244
2228
2218
2154
2152
2144
2144
2132
2144
2132
2264
2132
2176
2216
2226
2232
2228
2233
2244
2232
2225
2212
2205
2188
2180
2184
2176
2182
2176
2176
2180
2205
2214
2220
2241
2184
2292
2196
2202
2192
2196
2176
2164
2140
2164
2188
2176
2176
2176
2176
2168
2193
2209
2222
2248
2272
2288
2314
2321
2332
2328
2322
2317
2313
2305
2304
2308
2228
2240
2232
2228
2228
2248
2240
2240
2244
2296
2304
2304
2304
2292
2279
2276
2262
2252
2244
2228
2230
2224
2216
2220
2221
2234
2234
2244
2264
2264
2272
2273
2208
2209
2200
2192
2178
2184
2168
2168
2160
2184
2210
2218
2230
2240
2246
2251
2264
2277
2281
2284
2278
2275
2268
2256
2240
2232
2230
2225
2228
2234
2240
2242
2188
2204
2224
2224
2232
2256
2244
2240
2240
2256
2272
2264
2246
2235
2227
2214
2210
2208
2200
2200
2216
2211
2227
2254
2268
2304
2313
2341
2353
2368
2390
2436
2404
2464
2520
2592
2668
2760
2836
2916
2980
3104
3181
3192
3200
3152
3088
3008
2896
2777
2648
2525
2421
2344
2281
2248
2235
2234
2260
2281
2336
2392
2452
2512
2496
2554
2592
2620
2628
2656
2640
2632
2616
2641
2665
2633
2624
2600
2576
2560
2532
2502
2485
2467
2432
2416
2390
2364
2337
2313
2285
2269
2250
2234
2220
2215
2160
2152
2170
2177
2168
2192
2200
2212
2216
2264
2288
2285
2288
2276
2252
2249
2246
2228
2220
2211
2200
2210
2210
2212
2217
2224
2240
2250
2267
2268
2276
2288
2224
2224
2216
2212
2192
2208
2184
2180
2176
2212
2236
2229
2234
2240
2256
2269
2274
2289
2294
2304
2304
2304
2296
2280
2268
2264
2256
2241
2245
2249
2256
2256
2192
2216
2224
2240
2240
2272
2272
2272
2272
2296
2317
2309
2304
2288
2277
2269
2264
2261
2262
2266
2269
2278
2283
2296
2314
2316
2317
2328
2331
2329
2330
2329
2256
2260
2264
2250
2244
2264
2266
2272
2274
2336
2368
2375
2396
2412
2418
2424
2413
2410
2396
2385
2371
2363
2356
2346
2340
2343
2344
2352
2349
2369
2380
2394
2340
2364
2360
2368
2368
2356
2352
2330
2316
2344
2356
2352
2344
2336
2339
2344
2348
2354
2368
2382
2376
2388
2384
2382
2372
2368
2341
2328
2308
2297
2282
2272
2192
2192
2192
2184
2176
2204
2196
2208
2208
2252
2279
2268
2280
2266
2244
2225
2211
2200
2186
2176
2164
2161
2163
2160
2162
2172
2184
2187
2200
2208
2208
2208
2144
2144
2140
2128
2106
2105
2108
2100
2082
2120
2145
2165
2167
2182
2180
2197
2208
2204
2220
2214
2209
2211
2192
2182
2181
2168
2158
2160
2148
2152
2149
2156
2112
2122
2128
2144
2152
2168
2176
2176
2156
2192
2209
2193
2184
2176
2165
2160
2157
2157
2160
2176
2184
2180
2201
2205
2212
2216
2221
2221
2216
2208
2198
2184
2116
2114
2112
2098
2082
2104
2090
2096
2096
2144
2164
2176
2196
2197
2209
2210
2208
2210
2198
2192
2192
2176
2176
2165
2160
2160
2168
2208
2169
2180
2192
2200
2152
2162
2170
2168
2170
2180
2160
2152
2136
2168
2186
2176
2176
2176
2176
2185
2192
2204
2216
2229
2244
2258
2260
2280
2274
2268
2260
2256
2240
2224
2218
2216
2152
2156
2148
2160
2164
2176
2168
2184
2192
2240
2265
2278
2273
2269
2267
2252
2248
2240
2229
2229
2228
2221
2225
2233
2231
2236
2259
2259
2272
2280
2290
2290
2224
2216
2216
2204
2188
2208
2172
2177
2152
2196
2226
2224
2232
2249
2266
2273
2284
2285
2294
2297
2313
2296
2291
2280
2274
2261
2250
2250
2245
2244
2240
2250
2196
2208
2210
2232
2240
2256
2256
2264
2228
2280
2296
2284
2274
2262
2256
2253
2251
2242
2240
2259
2251
2256
2266
2280
2289
2296
2305
2309
2308
2304
2316
2288
2218
2212
2288
2208
2192
2194
2200
2200
2192
2248
2278
2291
2304
2314
2316
2328
2336
2326
2312
2304
2291
2284
2280
2260
2266
2266
2266
2264
2260
2277
2289
2292
2248
2256
2264
2272
2260
2272
2264
2256
2232
2264
2280
2268
2264
2266
2256
2262
2268
2281
2285
2296
2313
2330
2340
2333
2338
2328
2324
2316
2304
2284
2280
2264
2200
2208
2210
2208
2208
2224
2240
2248
2256
2304
2336
2341
2352
2339
2340
2328
2316
2307
2293
2281
2278
2273
2272
2276
2280
2288
2296
2312
2316
2323
2328
2332
2272
2272
2272
2258
2240
2248
2224
2226
2216
2248
2266
2280
2272
2285
2296
2310
2330
2337
2357
2363
2373
2385
2390
2384
2377
2376
2376
2376
2370
2376
2384
2400
2336
2344
2348
2352
2354
2384
2368
2368
2354
2392
2401
2388
2370
2360
2345
2336
2325
2322
2321
2317
2331
2328
2338
2340
2340
2346
2354
2360
2352
2348
2349
2337
2268
2268
2256
2258
2248
2256
2256
2248
2244
2296
2328
2345
2353
2370
2368
2381
2380
2374
2368
2362
2348
2337
2331
2326
2320
2320
2316
2313
2322
2333
2336
2353
2288
2320
2320
2324
2320
2324
2312
2300
2284
2304
2321
2309
2304
2294
2291
2292
2278
2284
2278
2276
2296
2288
2297
2309
2325
2344
2354
2364
2369
2388
2404
2436
2408
2456
2520
2592
2656
2764
2840
2928
2996
3108
3200
3216
3212
3192
3136
3048
2961
2840
2731
2624
2533
2450
2402
2374
2345
2344
2369
2396
2432
2472
2522
2572
2536
2586
2600
2624
2632
2652
2656
2720
2644
2688
2720
2716
2704
2697
2693
2673
2656
2632
2600
2576
2528
2496
2453
2409
2376
2345
2316
2304
2292
2285
2280
2278
2224
2256
2244
2252
2256
2280
2280
2292
2276
2312
2337
2328
2312
2297
2296
2280
2282
2272
2272
2272
2272
2280
2294
2309
2317
2329
2336
2347
2352
2342
2340
2336
2256
2256
2244
2244
2200
2228
2224
2224
2224
2272
2304
2312
2325
2336
2336
2338
2347
2347
2338
2336
2321
2312
2317
2304
2296
2304
2304
2304
2304
2312
2325
2328
2280
2300
2304
2304
2304
2312
2304
2296
2272
2292
2312
2307
2304
2304
2315
2316
2314
2329
2344
2336
2349
2368
2374
2378
2385
2388
2377
2374
2374
2362
2361
2368
2296
2304
2304
2306
2304
2320
2328
2340
2338
2384
2420
2424
2432
2437
2425
2420
2416
2409
2405
2396
2392
2388
2400
2400
2404
2408
2424
2433
2437
2451
2460
2465
2400
2404
2402
2396
2384
2376
2368
2362
2348
2384
2408
2410
2416
2420
2432
2435
2448
2452
2461
2468
2458
2456
2437
2437
2416
2414
2394
2384
2376
2370
2362
2362
2292
2302
2308
2312
2312
2332
2336
2328
2314
2338
2357
2336
2321
2292
2282
2264
2256
2249
2243
2245
2236
2245
2257
2261
2281
2294
2297
2305
2304
2297
2289
2283
2201
2208
2192
2184
2176
2184
2176
2184
2168
2208
2235
2253
2256
2260
2268
2280
2275
2267
2256
2250
2240
2225
2224
2216
2204
2200
2208
2205
2213
2217
2234
2236
2188
2208
2212
2224
2218
2228
2216
2216
2196
2224
2240
2221
2214
2212
2218
2217
2220
2232
2230
2243
2250
2260
2265
2272
2272
2265
2266
2253
2249
2237
2228
2220
2164
2172
2168
2168
2176
2193
2192
2204
2216
2272
2296
2297
2307
2306
2304
2289
2276
2262
2249
2245
2230
2231
2224
2225
2224
2229
2250
2276
2284
2292
2305
2320
2264
2260
2264
2258
2244
2248
2240
2242
2232
2276
2306
2325
2332
2360
2380
2409
2432
2456
2481
2502
2517
2525
2528
2525
2533
2530
2520
2522
2532
2540
2548
2560
2488
2500
2504
2512
2506
2520
2512
2500
2488
2512
2523
2496
2487
2471
2467
2474
2488
2517
2549
2592
2632
2681
2736
2803
2884
2956
3046
3129
3220
3304
3385
3464
3436
3524
3600
3680
3752
3872
3960
4064
4095
4095
4095
4095
4095
4095
4095
4095
4095
4095
4095
4095
4095
4095
4095
4095
4095
4095
4095
4095
4095
4095
4095
4095
4095
4095
4095
4095
3952
3704
3396
3088
2780
2544
2315
2093
1926
1808
1723
1685
1676
1715
1746
1803
1863
1936
1977
2022
2054
2080
2074
2080
2056
2029
1996
1969
1888
1872
1840
1820
1812
1810
1792
1816
1808
1856
1878
1882
1886
1888
1874
1877
1876
1856
1827
1813
1797
1792
1773
1770
1768
1777
1776
1770
1776
1783
1800
1792
1736
1744
1732
1720
1704
1696
1690
1668
1668
1684
1697
1697
1684
1696
1708
1704
1724
1729
1736
1741
1744
1732
1730
1718
1696
1688
1672
1653
1641
1624
1633
1622
1584
1600
1592
1604
1600
1632
1630
1632
1624
1657
1672
1659
1656
1629
1616
1603
1592
1575
1572
1564
1576
1565
1580
1589
1584
1593
1602
1614
1606
1612
1594
1582
1538
1528
1510
1500
1496
1496
1482
1480
1476
1504
1520
1525
1537
1544
1556
1546
1547
1555
1556
1552
1537
1536
1529
1521
1521
1521
1532
1531
1550
1564
1576
1592
1576
1593
1604
1624
1636
1650
1650
1660
1648
1668
1684
1682
1697
1707
1710
1718
1744
1760
1777
1796
1828
1841
1866
1878
1906
1901
1922
1929
1939
1936
1946
1954
1912
1940
1956
1956
1978
2002
2008
2034
1952
2112
2156
2168
2178
2196
2198
2200
2194
2198
2186
2190
2188
2177
2180
2186
2181
2202
2203
2225
2230
2253
2272
2282
2232
2244
2248
2248
2234
2242
2234
2232
2216
2252
2284
2278
2284
2295
2296
2304
2322
2329
2336
2344
2348
2346
2332
2330
2320
2310
2290
2280
2278
2269
2276
2272
2208
2224
2226
2244
2244
2428
2280
2284
2276
2336
2346
2340
2336
2325
2315
2305
2304
2296
2296
2298
2306
2311
2323
2328
2344
2355
2368
2376
2368
2368
2368
2352
2280
2280
2276
2264
2256
2272
2260
2260
2256
2305
2340
2352
2358
2368
2377
2389
2392
2394
2389
2380
2372
2360
2352
2340
2329
2324
2317
2313
2320
2323
2328
2344
2298
2314
2324
2340
2336
2360
2360
2340
2320
2348
2368
2354
2357
2344
2345
2345
2345
2360
2363
2373
2384
2396
2400
2403
2410
2408
2396
2400
2386
2369
2368
2357
2290
2292
2288
2292
2290
2304
2304
2312
2320
2368
2397
2408
2416
2414
2410
2416
2404
2400
2388
2370
2364
2372
2359
2363
2360
2368
2377
2381
2400
2408
2424
2436
2376
2376
2384
2376
2352
2362
2346
2330
2324
2356
2376
2376
2376
2370
2385
2392
2402
2416
2423
2432
2442
2441
2443
2432
2427
2416
2408
2395
2394
2384
2377
2387
2321
2336
2344
2352
2356
2380
2400
2400
2396
2440
2472
2469
2464
2439
2438
2428
2420
2408
2411
2420
2401
2408
2406
2422
2432
2434
2450
2458
2458
2458
2456
2456
2376
2368
2360
2354
2336
2344
2328
2336
2336
2376
2402
2412
2424
2437
2458
2464
2476
2476
2477
2472
2467
2453
2453
2440
2432
2433
2422
2424
2422
2432
2436
2442
2384
2400
2400
2412
2408
2424
2412
2412
2400
2420
2437
2427
2424
2432
2412
2421
2417
2432
2424
2445
2456
2464
2475
2483
2488
2500
2496
2496
2482
2468
2456
2448
2372
2368
2361
2368
2360
2376
2370
2376
2384
2436
2484
2482
2490
2501
2502
2496
2474
2477
2464
2454
2442
2437
2432
2434
2428
2432
2435
2442
2452
2460
2472
2477
2412
2424
2416
2412
2328
2400
2386
2368
2352
2388
2412
2404
2400
2410
2412
2424
2436
2448
2461
2466
2473
2476
2472
2464
2464
2445
2438
2420
2417
2413
2412
2416
2360
2360
2370
2376
2376
2408
2412
2416
2420
2472
2491
2482
2476
2473
2452
2458
2441
2433
2422
2432
2432
2435
2433
2443
2444
2450
2458
2474
2470
2469
2464
2456
2376
2564
2360
2356
2352
2344
2340
2344
2336
2372
2405
2406
2424
2432
2445
2464
2464
2464
2470
2458
2449
2444
2444
2432
2425
2423
2420
2416
2416
2416
2420
2432
2368
2384
2392
2408
2400
2416
2416
2408
2392
2440
2445
2440
2426
2412
2416
2400
2402
2401
2418
2412
2422
2427
2441
2448
2458
2454
2454
2450
2448
2439
2432
2424
2354
2360
2356
2360
2352
2368
2353
2364
2368
2408
2452
2464
2466
2465
2457
2458
2456
2436
2432
2432
2416
2416
2411
2404
2416
2412
2424
2432
2441
2451
2460
2472
2416
2424
2424
2416
2400
2400
2380
2364
2352
2372
2396
2390
2384
2394
2400
2408
2418
2440
2445
2464
2468
2472
2474
2472
2468
2455
2446
2434
2424
2416
2400
2406
2336
2344
2344
2352
2352
2376
2377
2392
2392
2444
2469
2456
2454
2444
2442
2442
2426
2425
2426
2416
2425
2426
2440
2440
2442
2459
2467
2470
2480
2480
2485
2481
2400
2404
2394
2376
2368
2372
2356
2352
2340
2388
2421
2421
2440
2448
2456
2469
2476
2483
2486
2472
2482
2456
2448
2427
2418
2424
2414
2408
2400
2405
2412
2416
2368
2376
2392
2400
2408
2420
2416
2416
2400
2436
2456
2441
2433
2432
2416
2413
2418
2417
2420
2432
2436
2450
2405
2466
2474
2466
2465
2454
2448
2432
2420
2420
2344
2344
2336
2336
2328
2340
2336
2338
2344
2385
2426
2432
2437
2433
2442
2436
2440
2433
2433
2424
2432
2432
2432
2448
2445
2464
2467
2492
2496
2509
2528
2540
2480
2488
2480
2466
2452
2456
2436
2424
2396
2432
2452
2448
2453
2464
2452
2464
2472
2485
2496
2500
2506
2505
2506
2489
2485
2465
2448
2432
2418
2397
2385
2372
2308
2312
2268
2328
2336
2360
2368
2384
2384
2440
2482
2470
2472
2460
2456
2432
2416
2404
2400
2384
2380
2376
2373
2384
2388
2402
2422
2427
2434
2442
2452
2443
2372
2372
2360
2352
2336
2336
2324
2320
2312
2340
2360
2360
2360
2363
2368
2376
2381
2400
2409
2411
2421
2425
2433
2432
2444
2473
2504
2548
2608
2668
2745
2824
2828
2928
3008
3080
3120
3160
3168
3168
3120
3112
3073
2976
2873
2773
2674
2592
2546
2504
2488
2485
2502
2533
2566
2601
2649
2677
2704
2732
2746
2752
2744
2747
2660
2660
2658
2664
2640
2656
2648
2648
2632
2672
2689
2688
2664
2634
2606
2570
2530
2496
2449
2421
2394
2373
2352
2348
2337
2328
2330
2329
2346
2349
2356
2360
2304
2312
2304
2304
2284
2280
2256
2257
2240
2272
2288
2280
2274
2288
2282
2293
2305
2322
2332
2329
2340
2349
2352
2342
2330
2322
2312
2296
2284
2275
2260
2259
2200
2208
2210
2220
2220
2244
2256
2264
2264
2324
2346
2354
2340
2336
2318
2320
2304
2297
2284
2284
2284
2278
2277
2290
2297
2304
2324
2336
2341
2350
2352
2346
2280
2284
2272
2260
2240
2249
2240
2236
2224
2276
2305
2313
2336
2356
2360
2385
2392
2392
2400
2400
2392
2384
2380
2368
2355
2348
2345
2336
2328
2336
2336
2344
2288
2300
2312
2322
2320
2336
2328
2312
2316
2352
2352
2358
2345
2341
2336
2342
2342
2352
2360
2374
2376
2388
2395
2416
2416
2417
2422
2416
2411
2401
2388
2376
2306
2312
2296
2300
2288
2384
2304
2308
2312
2372
2395
2404
2416
2416
2410
2405
2400
2384
2385
2368
2358
2352
2343
2336
2324
2336
2332
2338
2355
2370
2369
2385
2340
2338
2336
2336
2312
2424
2296
2288
2264
2288
2298
2304
2296
2304
2296
2297
2304
2307
2320
2329
2346
2346
2350
2342
2342
2328
2317
2305
2288
2280
2272
2264
2200
2200
2352
2216
2208
2228
2240
2244
2240
2296
2310
2307
2308
2304
2284
2276
2268
2265
2250
2242
2246
2240
2242
2250
2257
2280
2278
2289
2304
2308
2313
2308
2240
2236
2228
2216
2200
2202
2184
2186
2172
2212
2225
2233
2240
2248
2260
2269
2289
2285
2281
2284
2281
2273
2266
2257
2240
2240
2232
2226
2224
2224
2226
2232
2180
2200
2212
2224
2224
2240
2232
2240
2224
2258
2262
2250
2248
2240
2236
2226
2228
2229
2231
2236
2256
2251
2269
2282
2289
2290
2292
2299
2296
2280
2272
2253
2184
2180
2184
2168
2164
2176
2180
2184
2180
2233
2272
2272
2291
2293
2296
2304
2285
2277
2264
2264
2248
2240
2236
2234
2232
2228
2246
2240
2248
2260
2266
2280
2224
2240
2240
2242
2228
2232
2226
2208
2192
2224
2235
2240
2235
2229
2226
2236
2244
2258
2277
2288
2288
2304
2295
2306
2288
2281
2274
2258
2243
2245
2240
2232
2166
2192
2180
2176
2176
2192
2208
2209
2218
2248
2277
2269
2269
2246
2240
2234
2216
2214
2208
2202
2210
2209
2216
2226
2236
2241
2264
2272
2281
2276
2288
2272
2208
2200
2186
2176
2160
2169
2156
2144
2136
2170
2193
2208
2210
2229
2221
2240
2256
2260
2260
2261
2248
2240
2240
2225
2210
2204
2205
2197
2189
2193
2196
2201
2148
2172
2184
2196
2180
2216
2224
2208
2192
2224
2240
2225
2210
2204
2192
2187
2186
2189
2202
2208
2216
2228
2244
2262
2272
2284
2306
2304
2308
2316
2309
2309
2244
2252
2244
2248
2232
2248
2232
2386
2232
2265
2294
2304
2306
2305
2309
2304
2288
2280
2262
2257
2253
2240
2219
2216
2217
2213
2222
2209
2227
2225
2240
2242
2184
2292
2208
2200
2192
2188
2180
2168
2152
2180
2203
2201
2208
2208
2205
2214
2216
2233
2240
2245
2248
2264
2257
2256
2249
2241
2229
2221
2212
2208
2196
2194
2136
2144
2148
2152
2156
2176
2184
2192
2192
2248
2264
2261
2266
2248
2241
2224
2216
2203
2178
2171
2160
2145
2140
2148
2162
2176
2201
2224
2256
2281
2304
2321
2274
2308
2340
2372
2404
2480
2536
2608
2672
2800
2912
2982
3049
3084
3104
3096
3056
3008
2922
2820
2701
2577
2454
2354
2264
2208
2180
2169
2180
2210
2146
2288
2280
2336
2400
2448
2488
2536
2548
2576
2562
2610
2624
2608
2592
2582
2560
2548
2529
2517
2501
2480
2468
2458
2448
2418
2408
2384
2356
2337
2312
2288
2266
2240
2164
2160
2148
2144
2130
2140
2136
2140
2136
2184
2216
2228
2233
2241
2249
2248
2236
2224
2216
2208
2186
2180
2179
2176
2180
2176
2176
2188
2196
2208
2224
2235
2184
2192
2192
2188
2180
2184
2168
2156
2144
2165
2187
2183
2178
2184
2185
2192
2184
2208
2226
2244
2246
2254
2250
2256
2248
2240
2230
2222
2216
2203
2196
2193
2136
2136
2136
2144
2152
2176
2176
2188
2148
2244
2273
2283
2281
2272
2267
2259
2250
2234
2228
2228
2224
2219
2226
2219
2228
2248
2256
2276
2292
2296
2308
2313
2240
2244
2232
2226
2216
2216
2212
2204
2196
2244
2272
2282
2290
2312
2324
2336
2340
2355
2370
2362
2358
2352
2338
2320
2329
2324
2313
2304
2304
2304
2305
2311
2256
2272
2284
2296
2296
2320
2320
2320
2304
2336
2344
2344
2325
2317
2304
2304
2292
2296
2309
2296
2304
2304
2310
2321
2330
2336
2332
2324
2313
2308
2304
2281
2194
2188
2176
2164
2152
2156
2148
2144
2136
2176
2208
2224
2226
2233
2233
2229
2230
2208
2199
2192
2176
2160
2145
2136
2141
2136
2128
2129
2125
2128
2137
2154
2100
2112
2124
2128
2112
2128
2104
2101
2088
2112
2128
2128
2106
2108
2106
2114
2114
2120
2132
2136
2155
2152
2150
2165
2156
2144
2139
2140
2118
2121
2105
2112
2042
2050
2064
2056
2056
2074
2088
2092
2100
2144
2170
2177
2166
2168
2146
2131
2113
2098
2099
2093
2088
2080
2096
2099
2107
2113
2120
2140
2150
2162
2168
2168
2112
2116
2104
2090
2080
2080
2060
2056
2044
2072
2102
2102
2106
2112
2114
2131
2136
2149
2153
2155
2160
2154
2152
2144
2136
2128
2117
2114
2112
2112
2112
2118
2068
2084
2096
2112
2113
2132
2144
2146
2132
2168
2182
2177
2157
2147
2163
2144
2137
2136
2134
2137
2144
2150
2170
2185
2192
2200
2208
2218
2201
2197
2188
2180
2112
2108
2104
2100
2088
2096
2100
2096
2112
2144
2184
2192
2192
2196
2219
2213
2221
2214
2224
2197
2196
2186
2178
2192
2176
2176
2176
2176
2182
2184
2198
2208
2160
2172
2176
2180
2176
2176
2164
2152
2130
2168
2185
2182
2176
2180
2177
2190
2198
2208
2224
2229
2240
2249
2254
2258
2253
2242
2236
2216
2212
2204
2200
2192
2128
2138
2128
2136
2136
2160
2160
2184
2184
2240
2257
2268
2256
2256
2241
2234
2228
2217
2214
2202
2198
2192
2190
2192
2200
2210
2221
2217
2240
2250
2248
2249
2196
2193
2184
2180
2170
2184
2168
2146
2152
2184
2213
2218
2216
2234
2252
2256
2272
2280
2285
2283
2275
2265
2250
2243
2228
2225
2210
2201
2211
2212
2201
2218
2164
2192
2192
2208
2208
2224
2232
2232
2212
2248
2260
2253
2240
2224
2224
2208
2209
2204
2211
2210
2222
2226
2240
2248
2264
2278
2285
2295
2288
2284
2272
2250
2178
2176
2081
2168
2160
2160
2160
2168
2168
2210
2242
2260
2272
2292
2298
2310
2314
2309
2308
2315
2317
2310
2321
2314
2320
2322
2316
2332
2344
2353
2360
2370
2320
2328
2328
2320
2304
2304
2288
2272
2264
2280
2288
2288
2279
2280
2278
2285
2304
2312
2308
2336
2336
2340
2345
2344
2321
2323
2308
2288
2277
2264
2248
2252
2184
2194
2196
2188
2192
2220
2224
2244
2248
2288
2322
2322
2309
2309
2304
2288
2272
2260
2264
2249
2241
2242
2245
2256
2256
2267
2282
2288
2308
2323
2312
2324
2258
2256
2252
2236
2212
2228
2208
2202
2192
2228
2252
2250
2253
2254
2257
2257
2259
2258
2256
2249
2256
2253
2250
2258
2265
2273
2280
2291
2324
2354
2400
2459
2464
2562
2648
2736
2824
2928
3000
3070
3112
3184
3220
3212
3160
3093
2997
2889
2773
2664
2562
2473
2406
2361
2338
2325
2336
2344
2380
2416
2464
2496
2528
2564
2512
2538
2560
2576
2580
2600
2600
2600
2596
2640
2668
2658
2648
2628
2603
2568
2532
2489
2448
2400
2355
2322
2290
2260
2240
2228
2225
2214
2215
2220
2226
2244
2196
2216
2224
2136
2224
2224
2212
2208
2184
2216
2227
2222
2218
2210
2210
2224
2221
2229
2249
2248
2264
2268
2280
2273
2269
2273
2280
2252
2244
2233
2232
2227
2160
2162
2160
2164
2160
2184
2192
2192
2200
2248
2277
2280
2273
2278
2273
2259
2257
2244
2233
2240
2234
2227
2233
2235
2252
2256
2265
2272
2295
2308
2304
2304
2240
2252
2240
2224
2212
2218
2202
2288
2180
2220
2243
2243
2244
2256
2273
2284
2293
2304
2317
2320
2328
2332
2317
2320
2317
2313
2296
2294
2292
2294
2296
2296
2232
2264
2256
2272
2280
2304
2308
2312
2306
2346
2368
2357
2354
2352
2340
2332
2328
2328
2338
2336
2352
2360
2358
2371
2394
2395
2413
2416
2418
2416
2404
2400
2324
2316
2316
2306
2276
2304
2304
2312
2304
2352
2378
2386
2396
2400
2412
2424
2413
2400
2401
2377
2372
2362
2356
2352
2337
2336
2337
2342
2345
2332
2338
2352
2292
2300
2300
2304
2288
2290
2272
2256
2240
2248
2265
2257
2244
2243
2232
2236
2240
2246
2245
2259
2266
2272
2278
2289
2289
2280
2269
2256
2246
2229
2218
2208
2144
2144
2136
2128
2144
2154
2164
2168
2176
2216
2246
2253
2254
2250
2254
2244
2224
2216
2216
2194
2196
2196
2193
2182
2189
2192
2198
2208
2217
2229
2240
2242
2188
2188
2180
2168
2146
2152
2138
2136
2128
2160
2176
2170
2190
2208
2210
2230
2232
2248
2260
2258
2257
2248
2243
2230
2220
2213
2200
2186
2184
2186
2184
2184
2128
2144
2148
2160
2162
2186
2192
2194
2196
2212
2245
2232
2224
2214
2208
2198
2201
2197
2196
2199
2203
2208
2212
2233
2242
2248
2252
2262
2261
2259
2256
2245
2177
2172
2169
2160
2148
2160
2156
2160
2160
2200
2240
2252
2265
2280
2297
2294
2308
2304
2304
2296
2272
2264
2260
2249
2240
2253
2240
2240
2252
2251
2268
2272
2216
2226
2242
2241
2240
2256
2248
2248
2228
2272
2298
2289
2308
2315
2333
2345
2377
2384
2409
2425
2456
2469
2488
2496
2517
2497
2499
2489
2496
2497
2496
2498
2432
2452
2456
2464
2456
2464
2460
2456
2464
2512
2549
2548
2538
2536
2533
2522
2521
2514
2512
2512
2512
2528
2519
2544
2570
2592
2644
2700
2752
2826
2884
2976
2968
3048
3124
3200
3280
3384
3476
3568
3668
3856
4019
4095
4095
4095
4095
4095
4095
4095
4095
4095
4095
4095
4095
4095
4095
4095
4095
4095
4095
4095
4095
4095
4095
4095
4095
4095
4095
4095
4095
4095
4095
4095
4095
3910
3609
3276
2929
2619
2328
2092
1897
1757
1666
1616
1605
1630
1673
1731
1798
1870
1927
1968
1993
2021
1960
1956
1940
1914
1892
1868
1836
1794
1760
1760
1772
1762
1748
1748
1736
1749
1738
1724
1728
1709
1696
1674
1665
1664
1645
1642
1638
1632
1628
1635
1648
1644
1616
1634
1636
1641
1640
1656
1648
1641
1616
1624
1642
1622
1617
1608
1594
1590
1604
1592
1612
1618
1620
1633
1640
1653
1660
1664
1648
1632
1625
1605
1604
1592
1540
1548
1542
1532
1536
1548
1544
1558
1552
1580
1600
1597
1588
1578
1575
1548
1542
1524
1508
1493
1482
1476
1478
1472
1478
1472
1472
1488
1499
1504
1508
1511
1484
1481
1472
1456
1440
1440
1412
1404
1389
1402
1404
1401
1395
1412
1404
1417
1434
1435
1449
1456
1460
1469
1459
1463
1454
1440
1434
1440
1426
1424
1428
1437
1416
1434
1441
1468
1480
1496
1508
1525
1528
1562
1584
1586
1588
1586
1591
1592
1601
1614
1616
1638
1653
1675
1698
1728
1746
1773
1792
1817
1842
1858
1860
1865
1826
1848
1834
1858
1868
1876
1876
1896
1896
1948
1990
2025
2056
2080
2105
2128
2144
2157
2165
2171
2176
2168
2170
2170
2166
2179
2165
2176
2182
2197
2216
2224
2192
2209
2216
2240
2240
2256
2240
2244
2216
2256
2277
2257
2248
2240
2245
2240
2244
2248
2252
2267
2280
2292
2304
2321
2320
2325
2327
2324
2321
2310
2304
2304
2234
2232
2224
2224
2224
2232
2224
2242
2169
2288
2326
2328
2339
2346
2336
2328
2320
2310
2304
2304
2285
2294
2289
2282
2297
2285
2295
2298
2307
2322
2330
2338
2280
2284
2292
2280
2264
2260
2260
2242
2232
2276
2285
2292
2291
2288
2305
2304
2313
2322
2330
2352
2344
2346
2352
2337
2320
2316
2304
2304
2306
2304
2304
2297
2248
2264
2276
2280
2292
2484
2314
2320
2316
2360
2372
2364
2352
2344
2336
2323
2322
2316
2324
2320
2336
2340
2349
2364
2368
2374
2384
2389
2388
2400
2384
2372
2290
2288
2266
2272
2264
2272
2256
2260
2264
2304
2338
2348
2368
2376
2388
2392
2392
2413
2380
2388
2384
2369
2356
2356
2340
2342
2337
2344
2352
2349
2356
2362
2308
2324
2328
2344
2336
2353
2352
2336
2320
2344
2368
2356
2352
2340
2330
2330
2332
2336
2344
2352
2361
2374
2384
2394
2400
2410
2411
2410
2402
2393
2385
2364
2298
2292
2304
2288
2288
2296
2308
2320
2328
2376
2406
2416
2432
2424
2428
2416
2408
2393
2386
2376
2378
2363
2354
2353
2352
2361
2359
2371
2378
2388
2404
2405
2352
2360
2344
2348
2346
2336
2322
2320
2312
2344
2374
2368
2373
2376
2384
2392
2406
2408
2416
2422
2422
2422
2420
2412
2413
2387
2374
2368
2352
2350
2348
2344
2284
2300
2308
2316
2320
2344
2346
2356
2360
2400
2422
2417
2408
2394
2380
2377
2368
2363
2356
2360
2358
2355
2371
2412
2417
2389
2402
2403
2410
2410
2408
2395
2328
2330
2320
2320
2292
2304
2300
2304
2292
2336
2357
2371
2380
2440
2404
2417
2417
2417
2417
2408
2394
2390
2374
2370
2360
2369
2362
2370
2368
2381
2381
2395
2336
2348
2356
2360
2360
2361
2360
2354
2328
2360
2376
2370
2368
2368
2368
2368
2369
2389
2388
2400
2403
2412
2416
2432
2426
2425
2419
2412
2406
2400
2384
2370
2304
2304
2308
2300
2304
2320
2322
2320
2328
2380
2432
2434
2440
2443
2441
2436
2426
2414
2406
2395
2376
2377
2361
2364
2363
2368
2368
2384
2388
2403
2416
2420
2364
2368
2360
2360
2280
2352
2338
2328
2314
2352
2369
2368
2360
2369
2374
2384
2392
2403
2422
2427
2421
2432
2432
2434
2416
2408
2400
2394
2384
2379
2381
2384
2312
2336
2336
2340
2336
2360
2376
2376
2378
2408
2432
2422
2413
2395
2385
2368
2356
2357
2356
2344
2357
2364
2370
2386
2392
2405
2419
2433
2436
2440
2436
2432
2356
2536
2344
2340
2328
2332
2328
2325
2308
2368
2400
2402
2406
2425
2427
2424
2433
2433
2421
2425
2405
2401
2386
2380
2374
2372
2369
2370
2372
2385
2380
2388
2340
2352
2368
2372
2360
2384
2386
2368
2354
2384
2407
2378
2387
2376
2364
2373
2362
2371
2376
2393
2404
2418
2434
2434
2446
2456
2449
2442
2437
2422
2410
2400
2320
2328
2320
2312
2300
2316
2320
2328
2336
2376
2420
2433
2440
2433
2433
2432
2412
2411
2400
2392
2384
2374
2372
2370
2373
2374
2384
2392
2397
2414
2432
2433
2368
2384
2384
2380
2360
2356
2328
2320
2304
2337
2368
2368
2359
2355
2368
2370
2384
2387
2402
2409
2424
2422
2441
2440
2452
2449
2448
2448
2442
2457
2456
2460
2400
2416
2420
2424
2432
2450
2450
2448
2448
2488
2499
2488
2476
2464
2449
2445
2436
2419
2413
2416
2417
2416
2420
2421
2441
2448
2445
2449
2454
2448
2444
2432
2352
2352
2336
2324
2308
2324
2316
2320
2312
2368
2400
2406
2417
2425
2440
2448
2452
2450
2441
2448
2432
2422
2410
2402
2400
2384
2384
2381
2379
2384
2392
2400
2340
2360
2372
2384
2384
2400
2392
2388
2368
2400
2413
2394
2386
2372
2368
2361
2346
2338
2341
2340
2354
2368
2384
2412
2441
2452
2460
2477
2486
2520
2552
2584
2552
2610
2688
2752
2832
2928
2996
3072
3124
3240
3308
3341
3329
3307
3249
3172
3076
2965
2857
2755
2661
2594
2541
2498
2480
2470
2481
2502
2533
2582
2624
2669
2624
2664
2696
2708
2708
2728
2724
2720
2708
2752
2765
2752
2730
2728
2699
2676
2658
2624
2605
2580
2539
2503
2474
2441
2417
2380
2368
2339
2321
2313
2312
2304
2244
2252
2260
2264
2274
2292
2292
2304
2308
2356
2376
2372
2368
2352
2340
2336
2324
2316
2308
2304
2297
2304
2304
2308
2325
2332
2346
2360
2368
2362
2368
2358
2288
2284
2272
2264
2248
2256
2248
2240
2234
2264
2298
2308
2326
2336
2342
2357
2354
2368
2369
2362
2356
2337
2324
2314
2305
2304
2297
2304
2294
2293
2304
2316
2266
2284
2304
2304
2314
2324
2329
2328
2316
2344
2361
2352
2336
2324
2325
2312
2320
2326
2332
2332
2336
2349
2357
2373
2377
2381
2386
2379
2373
2364
2360
2354
2282
2276
2276
2276
2256
2280
2272
2280
2288
2340
2392
2388
2408
2416
2425
2417
2412
2396
2386
2374
2362
2358
2363
2353
2352
2357
2361
2370
2377
2390
2404
2417
2364
2376
2372
2370
2360
2368
2360
2344
2328
2352
2373
2369
2373
2368
2376
2385
2389
2390
2408
2416
2424
2432
2432
2432
2432
2404
2396
2381
2377
2363
2362
2356
2288
2298
2304
2308
2304
2328
2340
2344
2344
2392
2408
2408
2387
2385
2368
2348
2330
2316
2312
2306
2304
2305
2312
2328
2332
2344
2360
2359
2368
2372
2368
2361
2288
2280
2264
2256
2232
2241
2234
2226
2208
2256
2284
2293
2304
2312
2318
2329
2336
2336
2344
2336
2329
2322
2306
2297
2280
2272
2265
2260
2257
2253
2264
2280
2216
2242
2256
2264
2276
2288
2280
2290
2272
2290
2304
2293
2272
2272
2260
2257
2258
2264
2256
2275
2285
2296
2320
2317
2318
2336
2341
2336
2325
2324
2306
2309
2240
2240
2240
2228
2228
2328
2236
2252
2250
2304
2332
2344
2352
2355
2348
2344
2340
2337
2324
2316
2309
2304
2304
2306
2314
2309
2317
2316
2326
2328
2336
2347
2288
2304
2300
2300
2296
2288
2276
2264
2252
2280
2304
2310
2317
2308
2314
2320
2332
2337
2344
2364
2362
2379
2380
2373
2368
2356
2349
2340
2336
2332
2321
2322
2260
2268
2424
2272
2280
2300
2300
2308
2312
2352
2393
2378
2381
2362
2352
2341
2336
2326
2312
2320
2320
2309
2320
2322
2345
2356
2362
2384
2389
2387
2392
2395
2320
2320
2312
2300
2288
2292
2276
2276
2266
2308
2328
2338
2346
2346
2364
2380
2380
2386
2384
2384
2376
2373
2357
2352
2338
2325
2315
2315
2308
2320
2320
2324
2268
2282
2296
2304
2312
2330
2322
2320
2304
2328
2349
2330
2325
2316
2312
2317
2308
2312
2316
2333
2338
2354
2376
2385
2392
2402
2400
2392
2379
2381
2360
2344
2264
2265
2256
2256
2248
2264
2264
2274
2272
2320
2361
2369
2380
2378
2379
2378
2364
2345
2356
2336
2320
2310
2304
2304
2294
2304
2312
2305
2328
2342
2346
2369
2312
2336
2348
2356
2352
2368
2364
2376
2362
2408
2435
2441
2448
2453
2464
2464
2464
2475
2468
2469
2475
2469
2461
2445
2433
2432
2412
2400
2386
2372
2369
2361
2296
2306
2304
2314
2304
2328
2336
2332
2336
2368
2394
2384
2377
2370
2358
2344
2346
2337
2333
2344
2348
2341
2352
2356
2368
2392
2388
2410
2410
2428
2420
2416
2338
2344
2328
2320
2300
2296
2292
2272
2260
2304
2328
2336
2345
2356
2370
2380
2394
2396
2409
2408
2406
2404
2392
2379
2368
2368
2360
2345
2344
2341
2340
2340
2272
2280
2280
2288
2288
2316
2320
2336
2328
2384
2396
2406
2434
2445
2472
2528
2580
2645
2713
2798
2881
2962
3051
3120
3164
3189
3171
3128
3061
2979
2868
2741
2544
2436
2320
2232
2162
2162
2156
2164
2192
2274
2368
2426
2490
2545
2596
2629
2656
2677
2672
2664
2656
2648
2628
2626
2618
2612
2616
2610
2612
2617
2616
2613
2536
2600
2516
2492
2456
2432
2394
2368
2324
2336
2341
2331
2308
2310
2304
2310
2312
2316
2329
2340
2349
2361
2357
2370
2368
2356
2344
2340
2325
2309
2308
2296
2228
2232
2232
2244
2228
2244
2256
2276
2268
2320
2344
2345
2356
2342
2330
2328
2313
2304
2305
2288
2277
2288
2286
2296
2293
2304
2322
2328
2340
2347
2353
2348
2280
2276
2272
2260
2248
2256
2248
2240
2232
2276
2298
2304
2312
2315
2336
2344
2360
2368
2368
2377
2368
2368
2356
2338
2322
2325
2323
2308
2308
2312
2306
2320
2264
2288
2298
2312
2320
2340
2338
2336
2328
2356
2372
2353
2349
2340
2331
2329
2330
2336
2341
2361
2362
2372
2389
2402
2416
2432
2440
2435
2438
2424
2424
2413
2338
2336
2332
2328
2304
2320
2324
2316
2324
2376
2413
2432
2448
2450
2465
2461
2460
2456
2432
2432
2409
2389
2385
2370
2360
2358
2368
2374
2368
2384
2384
2389
2336
2340
2352
2346
2336
2336
2324
2306
2288
2313
2324
2316
2305
2296
2288
2288
2282
2288
2295
2304
2304
2306
2304
2292
2292
2274
2265
2240
2224
2213
2200
2192
2128
2128
2130
2124
2124
2138
2146
2160
2156
2194
2220
2216
2204
2203
2185
2168
2164
2164
2149
2145
2139
2145
2146
2152
2161
2170
2181
2193
2204
2210
2212
2211
2148
2144
2128
2112
2092
2096
2088
2074
2064
2116
2126
2131
2136
2156
2165
2169
2184
2194
2192
2187
2184
2180
2165
2152
2144
2137
2124
2121
2120
2112
2116
2120
2064
2084
2088
2100
2116
2130
2124
2112
2106
2128
2144
2122
2114
2101
2104
2093
2088
2088
2099
2097
2103
2118
2120
2138
2147
2153
2160
2160
2160
2144
2146
2130
2068
2072
2056
2058
2047
2056
2058
2068
2066
2104
2136
2148
2163
2171
2179
2187
2184
2176
2170
2144
2146
2128
2115
2116
2112
2112
2107
2113
2117
2136
2137
2152
2112
2124
2128
2140
2129
2128
2120
2104
2096
2124
2144
2132
2118
2134
2128
2132
2148
2152
2165
2177
2182
2184
2192
2192
2188
2181
2176
2168
2158
2150
2138
2140
2072
2076
2090
2088
2080
2104
2120
2116
2124
2160
2190
2196
2192
2194
2185
2169
2162
2157
2144
2144
2132
2123
2134
2135
2131
2133
2144
2146
2160
2168
2178
2184
2121
2120
2112
2106
2084
2092
2072
2073
2064
2096
2112
2113
2118
2134
2141
2152
2148
2161
2170
2181
2165
2172
2157
2147
2140
2130
2117
2112
2104
2102
2102
2100
2052
2064
2080
2090
2104
2116
2124
2122
2114
2146
2165
2147
2140
2129
2122
2112
2100
2100
2103
2106
2113
2123
2131
2144
2156
2161
2168
2163
2164
2156
2148
2128
2068
2056
2044
2041
2036
2036
2036
2046
2040
2082
2116
2120
2132
2144
2148
2148
2153
2154
2152
2158
2157
2153
2160
2164
2166
2183
2182
2193
2202
2216
2228
2240
2196
2208
2208
2208
2192
2192
2168
2156
2128
2148
2152
2144
2138
2130
2126
2121
2130
2140
2144
2151
2171
2179
2181
2178
2176
2156
2153
2147
2130
2112
2104
2091
2034
2032
2032
2052
2050
2068
2084
2088
2104
2146
2168
2176
2176
2180
2157
2152
2140
2133
2114
2114
2097
2096
2104
2102
2106
2113
2123
2134
2144
2154
2164
2163
2104
2104
2098
2088
2064
2096
2064
2056
2052
2088
2096
2096
2112
2106
2112
2112
2114
2116
2112
2112
2107
2099
2092
2098
2098
2112
2117
2121
2133
2160
2192
2240
2232
2312
2384
2480
2552
2652
2728
2794
2792
2936
2992
2977
2936
2881
2808
2705
2600
2480
2372
2269
2184
2134
2100
2093
2101
2124
2156
2192
2229
2257
2296
2328
2292
2320
2340
2352
2360
2376
2368
2376
2368
2418
2444
2444
2443
2440
2432
2410
2390
2368
2333
2282
2247
2211
2170
2140
2114
2090
2080
2065
2060
2048
2058
2057
2008
2020
2032
2032
2024
2036
2044
2026
2008
2040
2048
2036
2048
2048
2041
2048
2050
2053
2060
2068
2073
2076
2085
2083
2080
2076
2067
2067
2050
2048
2033
2022
1976
1984
1984
1984
1992
2006
2008
2016
2018
2064
2104
2093
2101
2089
2080
2075
2072
2064
2048
2038
2039
2040
2038
2048
2050
2066
2066
2076
2090
2098
2112
2112
2056
2047
2044
2016
2016
2004
2004
1988
1986
2024
2037
2054
2050
2053
2072
2085
2104
2112
2117
2113
2113
2113
2112
2096
2092
2088
2081
2088
2073
2080
2084
2098
2032
2056
2064
2064
2068
2092
2104
2112
2100
2128
2149
2133
2129
2112
2116
2105
2112
2098
2102
2104
2112
2122
2128
2129
2144
2152
2162
2170
2163
2164
2168
2157
2082
2088
2080
2072
2047
2056
2058
2052
2040
2080
2112
2122
2144
2146
2160
2167
2168
2163
2160
2141
2128
2113
2101
2099
2089
2074
2080
2061
2070
2080
2084
2081
2032
2050
2052
2056
2032
2044
2024
2004
1984
2000
2001
1985
1979
1962
1964
1949
1952
1963
1972
1974
1981
1994
2003
2016
2012
2001
2008
1990
1965
1964
1944
1941
1880
1884
1882
1888
1868
1889
1908
1912
1916
1960
2000
2000
2011
2005
1990
1992
1968
1952
1949
1934
1936
1937
1930
1929
1933
1940
1952
1960
1984
1984
1996
2002
1954
1960
1962
1944
1940
1936
1912
2004
1908
1930
1948
1941
1946
1952
1970
1980
1978
1993
2000
2016
2009
2009
2001
1989
1987
1968
1958
1948
1947
1942
1952
1945
1908
1936
1924
1936
1930
1952
1964
1952
1952
1976
1988
1978
1972
1962
1964
1946
1949
1949
1948
1966
1969
1969
1984
1992
2013
2018
2032
2032
2048
2033
2029
2021
1956
1960
1946
1944
1920
1936
1932
1938
1940
1980
2003
2018
2026
2032
2041
2050
2050
2048
2037
2036
2011
1996
1998
1989
1988
1980
1984
1990
1996
2012
2020
2034
1992
2008
2024
2024
2016
2028
2012
2008
1984
2016
2018
2016
2003
2004
2011
2003
2008
2016
2034
2048
2056
2056
2060
2073
2066
2064
2066
2062
2048
2025
2018
2008
1944
1954
1946
1946
1944
1968
1968
1984
2000
2040
2069
2076
2080
2069
2070
2064
2049
2026
2026
2016
2002
2002
2012
2021
2017
2024
2029
2048
2056
2061
2082
2074
2028
2036
2016
2016
2000
1992
1984
1976
1984
2016
2032
2030
2036
2035
2048
2060
2065
2082
2086
2096
2092
2083
2082
2069
2072
2059
2048
2040
2040
2048
2037
2050
2000
2008
2016
2032
2024
2064
2064
2068
2064
2096
2112
2118
2104
2092
2076
2082
2073
2072
2075
2075
2075
2082
2090
2093
2112
2121
2132
2131
2128
2128
2122
2112
2044
2040
2024
2020
2016
2024
2020
2016
2024
2066
2104
2112
2128
2144
2149
2157
2160
2148
2145
2140
2112
2107
2090
2074
2068
2072
2073
2064
2077
2083
2092
2118
2074
2104
2116
2136
2149
2168
2168
2168
2164
2200
2212
2221
2208
2209
2216
2212
2217
2216
2224
2240
2242
2252
2243
2248
2248
2240
2236
2216
2194
2179
2184
2162
2097
2104
2112
2106
2104
2112
2113
2120
2120
2160
2188
2192
2184
2184
2168
2166
2156
2144
2140
2133
2128
2124
2128
2133
2149
2149
2161
2176
2171
2193
2208
2216
2160
2164
2164
2152
2144
2136
2120
2112
2096
2128
2148
2144
2150
2162
2168
2179
2192
2208
2218
2219
2233
2231
2224
2208
2196
2193
2177
2176
2168
2162
2165
2156
2097
2106
2112
2116
2104
2120
2116
2128
2128
2176
2204
2217
2233
2240
2256
2272
2308
2344
2404
2468
2548
2633
2715
2817
2897
2981
3062
3125
3168
3177
3173
3128
2962
2890
2784
2668
2540
2448
2352
2282
2228
2232
2240
2251
2268
2305
2344
2384
2424
2464
2500
2520
2544
2560
2569
2568
2573
2584
2592
2586
2585
2576
2577
2560
2472
2460
2432
2412
2376
2348
2304
2256
2224
2224
2216
2192
2176
2153
2154
2151
2148
2164
2170
2180
2203
2208
2220
2225
2234
2232
2226
2225
2208
2196
2184
2180
2112
2112
2104
2104
2112
2128
2120
2140
2144
2184
2216
2228
2232
2240
2232
2229
2225
2216
2215
2198
2197
2192
2186
2185
2187
2197
2209
2218
2234
2240
2248
2256
2202
2208
2209
2204
2188
2192
2184
2168
2160
2196
2205
2204
2212
2216
2217
2229
2245
2264
2276
2276
2290
2293
2288
2282
2276
2256
2245
2240
2232
2232
2228
2244
2180
2192
2208
2218
2224
2248
2257
2268
2268
2304
2328
2324
2307
2292
2288
2278
2261
2257
2256
2260
2273
2272
2278
2292
2314
2324
2337
2346
2356
2358
2364
2352
2282
2290
2272
2272
2256
2264
2256
2272
2257
2304
2323
2344
2352
2368
2369
2378
2380
2382
2376
2375
2361
2361
2352
2345
2340
2340
2336
2336
2338
2336
2352
2356
2296
2322
2320
2324
2312
2328
2320
2308
2288
2305
2320
2312
2304
2292
2285
2284
2292
2284
2293
2304
2306
2320
2320
2320
2325
2322
2314
2304
2276
2259
2242
2236
2160
2156
2146
2144
2136
2148
2152
2160
2072
2196
2248
2256
2246
2252
2256
2248
2226
2219
2206
2208
2192
2180
2184
2181
2177
2178
2177
2192
2194
2204
2212
2219
2164
2176
2184
2168
2149
2160
2144
2132
2122
2160
2171
2170
2170
2177
2183
2202
2204
2218
2236
2248
2240
2241
2240
2232
2224
2212
2195
2196
2186
2181
2169
2176
2124
2136
2136
2148
2152
2308
2184
2184
2184
2232
2253
2243
2233
2220
2204
2194
2186
2182
2182
2177
2184
2188
2197
2208
2216
2226
2236
2251
2260
2253
2260
2249
2184
2172
2164
2160
2144
2160
2140
2140
2144
2168
2214
2220
2234
2248
2261
2267
2262
2272
2272
2262
2252
2240
2224
2225
2210
2211
2208
2211
2212
2220
2213
2234
2186
2200
2209
2224
2218
2232
2226
2216
2208
2232
2247
2233
2236
2232
2228
2233
2240
2252
2260
2272
2284
2290
2314
2312
2316
2317
2317
2307
2304
2292
2273
2264
2192
2192
2188
2184
2180
2196
2196
2204
2220
2272
2296
2312
2306
2312
2314
2304
2296
2286
2280
2274
2264
2248
2244
2244
2240
2245
2261
2264
2285
2304
2306
2320
2264
2280
2276
2272
2252
2248
2236
2232
2212
2248
2269
2272
2272
2274
2278
2292
2297
2313
2325
2331
2336
2343
2336
2324
2310
2304
2304
2281
2281
2274
2268
2276
2220
2232
2240
2252
2248
2274
2280
2290
2288
2336
2344
2340
2340
2322
2312
2304
2304
2294
2292
2289
2298
2304
2304
2304
2312
2328
2336
2341
2356
2360
2346
2336
2264
2268
2256
2252
2236
2244
2240
2256
2248
2290
2317
2325
2345
2349
2363
2379
2376
2378
2377
2368
2354
2340
2332
2322
2309
2315
2305
2304
2305
2309
2320
2336
2280
2288
2296
2306
2300
2313
2312
2304
2284
2316
2330
2322
2309
2310
2313
2312
2312
2320
2329
2332
2345
2358
2368
2377
2378
2379
2373
2362
2356
2341
2336
2332
2258
2256
2256
2260
2256
2272
2256
2272
2264
2320
2352
2370
2361
2361
2368
2354
2352
2329
2329
2320
2309
2312
2308
2304
2315
2321
2336
2364
2380
2406
2420
2438
2388
2402
2404
2400
2324
2380
2360
2352
2336
2370
2373
2377
2369
2363
2373
2374
2384
2394
2393
2404
2408
2413
2409
2408
2396
2381
2368
2357
2344
2336
2328
2328
2256
2252
2264
2256
2256
2280
2288
2292
2304
2336
2361
2361
2361
2357
2347
2336
2331
2324
2327
2316
2313
2320
2324
2336
2337
2352
2362
2373
2376
2379
2384
2384
2306
2456
2292
2290
2272
2282
2264
2264
2260
2304
2324
2332
2341
2354
2361
2379
2377
2392
2390
2388
2374
2376
2348
2336
2316
2304
2291
2280
2272
2277
2272
2281
2244
2281
2296
2320
2328
2372
2394
2420
2452
2548
2624
2688
2762
2838
2922
2997
3076
3141
3200
3232
3257
3244
3212
3168
3088
2984
2880
2764
2660
2560
2480
2424
2306
2290
2288
2292
2304
2360
2400
2444
2496
2592
2672
2710
2742
2776
2784
2791
2793
2784
2764
2740
2713
2680
2656
2612
2585
2549
2513
2490
2453
2427
2412
2396
2316
2316
2296
2284
2264
2256
2240
2232
2212
2248
2268
2268
2269
2283
2276
2295
2298
2312
2327
2333
2340
2347
2345
2336
2336
2314
2312
2294
2277
2276
2272
2268
2216
2220
2228
2232
2244
2264
2276
2288
2276
2328
2354
2347
2340
2330
2322
2306
2298
2290
2294
2294
2289
2283
2290
2297
2312
2317
2328
2336
2339
2342
2352
2352
2276
2284
2272
2276
2256
2264
2256
2248
2240
2280
2311
2314
2324
2336
2349
2363
2370
2376
2384
2372
2374
2368
2363
2358
2338
2332
2330
2328
2328
2332
2336
2344
2304
2322
2336
2348
2356
2372
2372
2368
2352
2384
2401
2385
2381
2374
2368
2368
2373
2384
2395
2394
2416
2432
2443
2572
2465
2468
2472
2467
2465
2445
2444
2432
2352
2356
2352
2344
2336
2356
2368
2368
2380
2448
2464
2483
2490
2496
2496
2489
2476
2474
2464
2448
2444
2437
2433
2432
2432
2422
2432
2433
2442
2448
2453
2464
2392
2404
2408
2388
2368
2368
2352
2336
2312
2344
2358
2347
2349
2352
2352
2348
2352
2357
2372
2368
2380
2369
2368
2363
2349
2338
2322
2309
2304
2295
2276
2280
2216
2232
2236
2232
2240
2248
2256
2260
2264
2304
2332
2321
2321
2308
2296
2278
2272
2265
2260
2256
2256
2254
2262
2264
2266
2281
2288
2290
2304
2306
2296
2293
2232
2228
2216
2208
2200
2192
2192
2192
2184
2220
2242
2253
2261
2269
2281
2297
2297
2304
2305
2304
2290
2290
2273
2273
2260
2251
2248
2246
2245
2252
2252
2259
2200
2224
2232
2244
2240
2264
2264
2252
2248
2288
2296
2284
2272
2265
2250
2261
2256
2262
2261
2278
2290
2294
2304
2322
2324
2336
2331
2326
2312
2320
2296
2288
2210
2208
2208
2208
2208
2224
2224
2232
2242
2292
2330
2344
2344
2358
2354
2353
2356
2348
2330
2332
2304
2305
2296
2286
2288
2284
2293
2309
2309
2328
2332
2348
2300
2304
2312
2306
2296
2308
2296
2280
2264
2304
2320
2312
2325
2322
2329
2332
2345
2354
2372
2376
2384
2384
2396
2381
2376
2368
2354
2336
2320
2314
2313
2316
2248
2272
2264
2272
2272
2290
2300
2320
2314
2360
2384
2391
2386
2368
2368
2352
2352
2331
2329
2322
2324
2331
2320
2326
2344
2348
2358
2368
2377
2387
2388
2384
2324
2316
2312
2304
2290
2288
2274
2280
2252
2304
2328
2340
2338
2360
2360
2380
2376
2400
2389
2390
2392
2385
2368
2360
2349
2342
2336
2336
2341
2337
2341
2346
2288
2304
2314
2328
2330
2354
2344
2340
2330
2368
2381
2372
2352
2353
2342
2328
2328
2336
2329
2346
2355
2360
2368
2376
2386
2400
2402
2400
2395
2397
2372
2368
2296
2292
2280
2280
2272
2368
2288
2288
2296
2344
2370
2386
2393
2416
2410
2404
2400
2400
2381
2379
2370
2360
2352
2347
2345
2350
2354
2357
2364
2384
2388
2400
2352
2360
2356
2360
2346
2346
2336
2328
2306
2340
2355
2352
2348
2345
2350
2363
2360
2368
2385
2392
2401
2408
2409
2412
2400
2395
2386
2376
2370
2374
2352
2348
2293
2304
2276
2308
2296
2320
2312
2320
2316
2368
2394
2389
2387
2388
2370
2376
2376
2368
2363
2360
2361
2372
2385
2401
2420
2436
2460
2469
2484
2501
2500
2500
2432
2432
2424
2416
2392
2400
2388
2368
2361
2408
2420
2417
2426
2434
2445
2445
2464
2466
2464
2466
2456
2453
2438
2419
2408
2394
2384
2368
2368
2361
2354
2368
2296
2312
2320
2336
2340
2356
2360
2368
2354
2384
2410
2400
2393
2381
2380
2376
2374
2368
2362
2376
2379
2390
2401
2404
2414
2412
2424
2409
2404
2401
2392
2372
2300
2304
2296
2284
2280
2292
2288
2304
2306
2356
2401
2417
2432
2432
2434
2438
2420
2400
2385
2364
2332
2313
2293
2293
2276
2276
2296
2317
2340
2357
2393
2421
2388
2428
2468
2516
2556
2628
2688
2744
2816
2936
3040
3105
3162
3204
3221
3226
3208
3169
3112
3035
2944
2840
2741
2649
2561
2501
2453
2400
2384
2388
2393
2418
2384
2424
2476
2520
2554
2610
2640
2672
2696
2752
2793
2808
2805
2792
2777
2768
2746
2706
2688
2644
2624
2577
2541
2508
2484
2453
2434
2418
2400
2395
2384
2372
2296
2292
2280
2272
2264
2264
2256
2256
2244
2284
2317
2328
2336
2348
2363
2371
2388
2388
2387
2394
2384
2379
2376
2354
2340
2336
2327
2324
2329
2321
2328
2332
2276
2292
2280
2312
2306
2336
2336
2336
2322
2360
2374
2363
2358
2352
2345
2340
2344
2337
2344
2336
2340
2344
2357
2376
2380
2395
2401
2405
2406
2404
2400
2374
2308
2308
2296
2290
2288
2296
2288
2464
2300
2344
2380
2400
2400
2416
2423
2432
2421
2417
2405
2404
2385
2379
2370
2362
2371
2368
2374
2372
2381
2400
2412
2424
2346
2460
2400
2400
2400
2404
2394
2388
2369
2408
2421
2422
2420
2422
2424
2427
2440
2449
2457
2464
2472
2485
2488
2496
2496
2488
2496
2478
2469
2464
2450
2450
2384
2388
2392
2392
2396
2416
2424
2440
2436
2496
2521
2536
2520
2520
2521
2501
2484
2472
2457
2441
2445
2432
2432
2424
2425
2425
2432
2440
2448
2456
2460
2465
2400
2400
2392
2380
2368
2368
2360
2352
2344
2368
2393
2381
2382
2378
2392
2402
2393
2393
2397
2384
2374
2372
2352
2337
2326
2312
2304
2297
2289
2291
2284
2292
2232
2248
2252
2256
2256
2280
2280
2280
2260
2296
2310
2304
2289
2280
2280
2272
2268
2269
2282
2280
2292
2297
2304
2320
2324
2339
2342
2340
2338
2328
2316
2306
2233
2228
2220
2218
2208
2224
2224
2232
2232
2280
2306
2328
2336
2342
2349
2349
2346
2340
2333
2316
2308
2304
2290
2272
2268
2264
2262
2272
2273
2276
2293
2305
2260
2272
2282
2292
2280
2288
2280
2264
2250
2272
2296
2289
2277
2272
2281
2280
2284
2306
2304
2321
2332
2347
2344
2348
2356
2342
2332
2321
2304
2296
2288
2284
2216
2224
2232
2232
2236
2252
2256
2266
2272
2336
2356
2362
2360
2362
2348
2336
2322
2315
2305
2305
2304
2304
2310
2304
2315
2320
2338
2344
2357
2368
2376
2377
2320
2312
2308
2304
2288
2300
2288
2280
2276
2320
2341
2348
2352
2364
2368
2373
2393
2400
2406
2413
2408
2401
2390
2384
2376
2372
2364
2354
2352
2361
2348
2363
2296
2308
2312
2324
2324
2344
2337
2336
2320
2360
2373
2359
2352
2340
2340
2332
2332
2337
2336
2344
2348
2344
2358
2368
2386
2381
2386
2392
2394
2387
2372
2361
2296
2288
2280
2276
2264
2272
2274
2272
2268
2320
2347
2357
2368
2384
2392
2404
2400
2384
2386
2374
2368
2363
2356
2341
2332
2338
2337
2332
2338
2349
2360
2361
2320
2324
2336
2336
2336
2340
2336
2316
2298
2328
2349
2336
2332
2330
2328
2340
2338
2344
2352
2368
2376
2384
2380
2389
2385
2392
2371
2368
2363
2361
2349
2337
2272
2280
2272
2280
2272
2298
2284
2300
2304
2348
2400
2396
2406
2389
2386
2372
2356
2348
2326
2320
2308
2320
2314
2317
2317
2317
2329
2345
2356
2368
2380
2381
2320
2328
2320
2306
2288
2282
2268
2260
2248
2282
2304
2312
2312
2324
2341
2348
2368
2377
2392
2404
2400
2394
2385
2377
2358
2344
2337
2323
2314
2308
2306
2305
2244
2256
2264
2276
2282
2300
2312
2320
2316
2360
2392
2386
2385
2400
2402
2397
2400
2400
2416
2416
2416
2425
2440
2453
2464
2468
2484
2472
2473
2464
2451
2440
2354
2344
2336
2309
2300
2298
2298
2288
2288
2336
2368
2371
2381
2400
2410
2413
2412
2400
2390
2373
2358
2336
2321
2304
2296
2284
2281
2280
2291
2304
2304
2321
2274
2300
2296
2316
2312
2336
2324
2320
2304
2328
2344
2336
2332
2332
2328
2315
2324
2330
2339
2348
2360
2361
2369
2379
2380
2376
2370
2360
2353
2340
2336
2327
2272
2272
2276
2280
2272
2288
2292
2298
2288
2340
2355
2363
2345
2336
2317
2314
2312
2308
2312
2325
2327
2336
2356
2379
2405
2453
2508
2568
2646
2727
2816
2889
2882
2960
3016
3052
3056
3056
3016
2962
2880
2840
2768
2656
2560
2449
2377
2331
2304
2298
2314
2350
2384
2413
2468
2502
2540
2571
2596
2620
2640
2651
2661
2656
2585
2600
2594
2600
2608
2616
2612
2608
2548
2640
2644
2614
2584
2545
2512
2476
2441
2409
2372
2355
2336
2320
2328
2320
2331
2325
2341
2347
2342
2344
2344
2337
2264
2258
2184
2248
2240
2240
2232
2236
2228
2276
2308
2317
2328
2352
2352
2368
2368
2370
2354
2345
2338
2320
2314
2308
2308
2296
2291
2294
2304
2304
2312
2316
2266
2288
2296
2300
2296
2304
2296
2288
2272
2304
2316
2306
2304
2304
2304
2304
2304
2307
2320
2327
2352
2343
2361
2363
2361
2360
2356
2352
2341
2333
2329
2320
2256
2258
2258
2264
2260
2280
2284
2288
2292
2336
2376
2368
2373
2372
2368
2368
2356
2356
2349
2348
2342
2344
2352
2346
2360
2368
2371
2389
2392
2419
2424
2432
2364
2372
2368
2360
2344
2352
2338
2332
2312
2352
2392
2384
2400
2393
2416
2432
2438
2456
2482
2477
2485
2482
2473
2476
2459
2450
2435
2417
2413
2405
2402
2413
2344
2356
2364
2372
2372
2401
2400
2400
2392
2432
2448
2437
2424
2401
2401
2376
2360
2357
2353
2346
2354
2354
2364
2368
2384
2387
2400
2392
2395
2388
2384
2364
2280
2264
2244
2228
2208
2208
2192
2184
2184
2212
2242
2242
2250
2260
2272
2288
2276
2281
2273
2265
2260
2248
2232
2224
2218
2219
2211
2212
2208
2204
2208
2219
2164
2184
2192
2196
2192
2200
2181
2176
2160
2186
2197
2181
2185
2185
2184
2180
2184
2192
2194
2208
2224
2235
2232
2248
2249
2245
2240
2236
2224
2214
2200
2192
2128
2136
2136
2128
2120
2144
2152
2176
2164
2216
2248
2260
2260
2259
2250
2251
2226
2224
2208
2188
2184
2176
2184
2176
2180
2188
2185
2192
2216
2218
2228
2235
2184
2184
2178
2168
2164
2168
2146
2136
2132
2160
2177
2178
2179
2181
2190
2202
2212
2227
2232
2246
2242
2248
2256
2240
2240
2232
2224
2208
2210
2204
2197
2204
2148
2180
2176
2188
2184
2212
2218
2224
2220
2272
2283
2277
2268
2266
2244
2245
2227
2218
2228
2220
2216
2222
2226
2240
2241
2260
2276
2281
2289
2304
2304
2310
2250
2257
2248
2265
2228
2272
2274
2288
2292
2352
2384
2401
2416
2420
2428
2448
2448
2448
2454
2442
2448
2450
2451
2444
2460
2442
2433
2435
2442
2432
2440
2440
2388
2408
2420
2420
2424
2448
2456
2452
2452
2484
2517
2528
2529
2550
2570
2608
2644
2696
2745
2828
2888
2976
3050
3138
3213
3300
3384
3479
3568
3680
3769
3896
3896
4040
4095
4095
4095
4095
4095
4095
4095
4095
4095
4095
4095
4095
4095
4095
4095
4095
4095
4095
4095
4095
4095
4095
4095
4095
4095
4095
4095
4095
4095
4095
3896
3636
3312
2986
2666
2388
2136
1912
1756
1664
1612
1570
1568
1595
1646
1706
1761
1826
1881
1929
1961
1970
1976
1968
1940
1911
1886
1843
1802
1773
1744
1736
1676
1656
1660
1652
1652
1668
1672
1668
1664
1696
1706
1697
1683
1657
1648
1632
1614
1600
1588
1581
1576
1574
1571
1581
1587
1602
1612
1625
1629
1632
1635
1632
1576
1564
1552
1552
1530
1532
1524
1521
1504
1530
1536
1540
1552
1560
1558
1558
1568
1565
1568
1561
1547
1538
1526
1518
1504
1504
1494
1489
1476
1480
1485
1496
1464
1468
1476
1488
1480
1477
1468
1456
1446
1448
1448
1436
1420
1409
1403
1394
1400
1389
1397
1394
1410
1409
1412
1421
1427
1424
1415
1409
1401
1385
1373
1358
1318
1314
1312
1300
1306
1308
1305
1324
1325
1352
1386
1397
1393
1402
1394
1393
1388
1369
1369
1374
1376
1363
1368
1373
1378
1389
1412
1422
1442
1462
1482
1493
1478
1490
1506
1576
1512
1533
1525
1524
1528
1556
1579
1593
1616
1632
1641
1671
1706
1722
1755
1779
1804
1832
1853
1856
1867
1873
1884
1894
1906
1907
1920
1942
1896
1922
1940
1952
1968
2000
2016
2032
2044
2092
2119
2120
2133
2120
2120
2112
2124
2121
2130
2132
2134
2148
2160
2180
2198
2208
2216
2236
2228
2246
2245
2241
2168
2169
2160
2152
2136
2144
2144
2144
2144
2176
2209
2221
2232
2243
2262
2264
2274
2272
2265
2264
2249
2248
2232
2228
2212
2204
2196
2205
2202
2194
2200
2208
2160
2180
2192
2200
2208
2224
2216
2208
2192
2212
2233
2221
2213
2202
2201
2200
2208
2205
2221
2228
2236
2257
2274
2290
2289
2296
2294
2288
2280
2266
2260
2244
2176
2172
2168
2172
2160
2176
2184
2184
2188
2242
2276
2285
2288
2288
2288
2282
2280
2277
2248
2253
2234
2226
2230
2228
2232
2227
2240
2247
2257
2267
2268
2276
2224
2240
2240
2232
2224
2226
2208
2208
2184
2216
2234
2232
2232
2233
2233
2248
2261
2272
2283
2292
2304
2297
2298
2296
2291
2276
2267
2258
2256
2256
2248
2256
2200
2216
2216
2224
2229
2248
2256
2266
2264
2316
2336
2324
2320
2312
2304
2288
2277
2272
2269
2266
2262
2273
2278
2283
2296
2310
2312
2321
2336
2329
2346
2331
2256
2252
2248
2236
2224
2228
2232
2224
2216
2264
2294
2304
2312
2330
2336
2344
2344
2368
2352
2344
2342
2336
2325
2313
2304
2296
2288
2296
2288
2296
2288
2293
2240
2260
2264
2274
2272
2296
2288
2282
2265
2306
2324
2310
2304
2295
2294
2289
2296
2290
2294
2296
2304
2316
2326
2336
2349
2345
2349
2348
2346
2340
2325
2320
2240
2240
2240
2232
2224
2232
2234
2232
2168
2288
2328
2337
2344
2346
2348
2346
2340
2328
2326
2297
2297
2294
2290
2290
2280
2281
2296
2308
2306
2332
2336
2352
2296
2290
2308
2284
2272
2272
2264
2248
2232
2272
2286
2293
2304
2296
2316
2320
2320
2337
2352
2360
2368
2373
2369
2368
2357
2352
2328
2332
2324
2315
2308
2309
2244
2256
2264
2264
2264
2448
2300
2305
2312
2354
2379
2378
2368
2360
2349
2340
2326
2325
2310
2314
2310
2314
2317
2322
2328
2349
2354
2368
2372
2458
2380
2376
2298
2312
2292
2288
2264
2272
2256
2264
2256
2292
2325
2328
2344
2349
2370
2372
2384
2387
2392
2388
2386
2380
2368
2360
2345
2337
2333
2336
2340
2339
2337
2344
2288
2298
2312
2320
2320
2336
2336
2328
2316
2354
2353
2348
2336
2321
2325
2320
2310
2320
2322
2338
2352
2364
2384
2400
2404
2408
2407
2402
2400
2387
2376
2364
2280
2288
2280
2274
2272
2288
2297
2300
2304
2352
2382
2396
2396
2404
2400
2400
2393
2380
2379
2369
2360
2357
2352
2352
2348
2360
2358
2368
2378
2384
2392
2400
2336
2352
2338
2336
2324
2336
2324
2312
2296
2320
2345
2342
2336
2344
2349
2352
2355
2369
2388
2393
2396
2404
2408
2409
2395
2372
2376
2362
2352
2338
2330
2336
2260
2268
2276
2284
2288
2304
2320
2330
2336
2386
2412
2410
2408
2406
2384
2384
2360
2360
2348
2338
2336
2338
2340
2337
2346
2354
2380
2380
2384
2392
2388
2388
2312
2312
2298
2292
2276
2274
2276
2272
2264
2304
2336
2342
2348
2357
2368
2368
2386
2388
2388
2379
2368
2364
2352
2336
2320
2316
2309
2297
2304
2315
2312
2315
2272
2292
2304
2312
2312
2320
2320
2320
2296
2329
2340
2328
2313
2313
2310
2304
2304
2305
2317
2321
2337
2346
2368
2395
2410
2422
2440
2453
2446
2441
2442
2438
2356
2360
2352
2340
2336
2344
2344
2352
2338
2400
2425
2437
2448
2436
2438
2442
2432
2425
2408
2412
2386
2370
2374
2368
2368
2357
2350
2354
2361
2364
2376
2380
2312
2336
2328
2324
2240
2320
2316
2298
2280
2308
2327
2312
2315
2320
2326
2324
2341
2347
2356
2373
2387
2395
2400
2400
2392
2387
2374
2368
2355
2352
2337
2329
2260
2272
2272
2280
2280
2296
2296
2316
2312
2352
2377
2377
2368
2352
2336
2320
2304
2289
2272
2257
2257
2253
2264
2283
2308
2340
2363
2405
2432
2465
2504
2548
2522
2756
2640
2704
2760
2852
2928
2996
3040
3160
3236
3272
3276
3272
3243
3192
3120
3029
2924
2826
2724
2643
2568
2505
2464
2432
2416
2410
2421
2448
2480
2516
2484
2528
2560
2594
2616
2656
2672
2676
2672
2720
2723
2712
2682
2656
2628
2586
2552
2520
2492
2454
2425
2396
2377
2353
2345
2337
2314
2314
2296
2280
2272
2256
2192
2192
2180
2188
2176
2192
2196
2196
2194
2240
2282
2289
2292
2304
2304
2297
2292
2288
2272
2260
2252
2248
2236
2227
2235
2244
2240
2240
2245
2250
2266
2272
2224
2232
2240
2236
2234
2232
2216
2216
2194
2232
2240
2235
2240
2242
2244
2234
2244
2258
2262
2276
2281
2304
2297
2297
2304
2304
2288
2278
2268
2264
2250
2242
2180
2188
2192
2196
2196
2224
2224
2236
2250
2304
2336
2332
2333
2326
2328
2306
2312
2288
2284
2272
2280
2274
2280
2286
2291
2294
2312
2322
2332
2341
2341
2348
2284
2288
2280
2272
2256
2264
2256
2248
2242
2272
2304
2304
2306
2324
2326
2336
2348
2352
2361
2357
2368
2355
2350
2336
2328
2327
2320
2312
2314
2320
2320
2324
2268
2288
2288
2304
2308
2324
2324
2324
2304
2344
2368
2348
2339
2330
2316
2321
2312
2306
2312
2322
2329
2323
2343
2357
2361
2369
2376
2372
2373
2355
2344
2331
2256
2248
2240
2232
2224
2240
2228
2234
2228
2272
2304
2317
2322
2320
2330
2325
2336
2324
2304
2304
2284
2272
2272
2248
2248
2243
2240
2240
2240
2245
2258
2274
2210
2228
2228
2232
2224
2232
2224
2208
2200
2218
2245
2232
2230
2221
2220
2240
2242
2251
2254
2268
2280
2288
2296
2296
2284
2276
2265
2256
2240
2228
2224
2211
2152
2152
2156
2156
2160
2176
2192
2184
2200
2248
2286
2277
2273
2274
2262
2258
2250
2240
2224
2224
2214
2212
2225
2221
2230
2240
2248
2256
2268
2273
2280
2278
2220
2216
2208
2196
2178
2184
2178
2176
2152
2194
2224
2229
2231
2251
2256
2272
2276
2288
2304
2304
2309
2288
2289
2276
2268
2256
2260
2243
2241
2246
2244
2248
2194
2212
2224
2236
2240
2256
2272
2280
2264
2304
2316
2312
2293
2282
2277
2266
2258
2268
2268
2277
2272
2282
2296
2313
2321
2325
2332
2336
2336
2328
2314
2309
2232
2240
2224
2232
2224
2228
2232
2232
2226
2282
2310
2320
2336
2332
2345
2353
2336
2337
2336
2325
2304
2304
2298
2292
2281
2276
2288
2290
2294
2307
2313
2336
2276
2296
2304
2306
2300
2308
2292
2288
2268
2297
2312
2304
2304
2298
2297
2297
2306
2304
2316
2310
2328
2328
2348
2337
2341
2341
2320
2310
2312
2310
2296
2312
2236
2260
2256
2250
2256
2265
2272
2288
2288
2336
2353
2356
2354
2354
2340
2336
2317
2304
2308
2304
2304
2304
2290
2304
2305
2310
2314
2327
2329
2345
2360
2353
2300
2288
2288
2272
2256
2258
2240
2232
2216
2260
2288
2292
2296
2308
2316
2329
2341
2354
2356
2363
2368
2362
2348
2344
2340
2314
2312
2304
2293
2291
2296
2304
2233
2252
2264
2272
2288
2312
2320
2324
2324
2369
2394
2396
2400
2395
2400
2400
2404
2414
2413
2432
2432
2436
2449
2456
2464
2466
2473
2469
2464
2453
2440
2432
2336
2341
2314
2308
2288
2392
2296
2300
2304
2344
2382
2388
2396
2394
2408
2411
2400
2396
2380
2368
2350
2336
2336
2324
2324
2308
2312
2314
2325
2332
2345
2358
2296
2314
2324
2340
2336
2336
2314
2304
2296
2324
2336
2332
2330
2316
2328
2333
2328
2343
2349
2368
2369
2384
2396
2389
2397
2390
2377
2370
2354
2336
2330
2329
2260
2266
2260
2264
2256
2276
2280
2276
2264
2304
2328
2324
2317
2320
2324
2331
2342
2336
2347
2368
2384
2424
2465
2530
2596
2680
2768
2869
2955
3061
3136
3205
3168
3200
3192
3164
3096
3036
2936
2820
2692
2624
2538
2444
2373
2314
2317
2304
2308
2336
2373
2411
2452
2497
2536
2570
2600
2624
2629
2644
2656
2657
2664
2673
2592
2610
2624
2609
2596
2600
2580
2568
2528
2544
2528
2489
2453
2406
2374
2332
2316
2294
2280
2272
2273
2275
2276
2284
2304
2304
2329
2332
2336
2336
2325
2313
2248
2244
2242
2224
2212
2216
2224
2224
2208
2242
2284
2288
2294
2297
2312
2315
2316
2310
2310
2304
2297
2298
2288
2284
2282
2288
2286
2288
2288
2292
2312
2315
2264
2288
2290
2288
2292
2300
2292
2276
2264
2296
2314
2308
2290
2317
2304
2304
2306
2305
2330
2336
2344
2360
2360
2370
2368
2369
2362
2352
2343
2336
2329
2320
2252
2256
2256
2260
2256
2266
2276
2288
2296
2344
2379
2394
2393
2390
2384
2381
2368
2368
2348
2347
2341
2336
2340
2346
2345
2353
2371
2385
2400
2406
2416
2417
2360
2368
2360
2368
2352
2352
2346
2340
2332
2372
2404
2405
2408
2416
2423
2434
2444
2456
2456
2465
2461
2458
2448
2444
2424
2414
2409
2409
2395
2392
2393
2394
2338
2346
2360
2368
2362
2386
2388
2396
2392
2424
2448
2442
2420
2404
2393
2377
2368
2336
2354
2353
2348
2352
2340
2349
2356
2360
2364
2368
2368
2357
2348
2332
2264
2256
2248
2224
2216
2224
2216
2344
2208
2244
2272
2277
2280
2288
2296
2297
2284
2285
2274
2264
2252
2241
2232
2221
2218
2213
2216
2214
2212
2222
2228
2240
2186
2300
2224
2228
2216
2228
2220
2216
2200
2232
2234
2228
2219
2221
2218
2202
2208
2208
2220
2225
2224
2248
2253
2260
2265
2262
2259
2244
2240
2233
2224
2222
2146
2156
2160
2168
2160
2192
2184
2192
2200
2244
2275
2278
2283
2276
2272
2259
2248
2230
2235
2212
2213
2214
2212
2212
2213
2224
2225
2236
2248
2266
2282
2284
2224
2232
2228
2220
2196
2208
2192
2184
2176
2200
2233
2230
2240
2235
2241
2261
2274
2278
2304
2304
2314
2309
2308
2304
2292
2292
2281
2272
2262
2264
2260
2262
2124
2224
2224
2232
2240
2264
2264
2276
2272
2313
2323
2320
2306
2304
2290
2289
2272
2267
2266
2258
2268
2269
2272
2291
2304
2307
2321
2329
2332
2336
2328
2321
2256
2252
2242
2236
2224
2240
2228
2240
2228
2280
2308
2324
2336
2344
2358
2368
2376
2364
2368
2353
2352
2336
2321
2310
2304
2304
2304
2288
2295
2296
2304
2308
2260
2276
2288
2292
2281
2296
2290
2280
2264
2284
2312
2297
2304
2297
2292
2304
2296
2307
2316
2326
2344
2364
2355
2360
2362
2361
2349
2341
2328
2314
2304
2293
2248
2232
2228
2228
2240
2256
2256
2264
2276
2324
2368
2368
2377
2378
2376
2372
2348
2352
2328
2320
2309
2312
2304
2304
2312
2324
2332
2336
2352
2308
2376
2378
2312
2320
2312
2304
2280
2276
2272
2264
2252
2276
2298
2308
2314
2324
2336
2344
2348
2362
2381
2389
2393
2394
2396
2388
2374
2372
2364
2357
2349
2344
2344
2344
2280
2292
2296
2308
2304
2322
2320
2328
2324
2362
2387
2380
2385
2364
2368
2347
2344
2344
2344
2345
2345
2360
2376
2392
2409
2419
2448
2466
2472
2484
2492
2489
2408
2420
2404
2400
2386
2392
2388
2386
2378
2426
2466
2456
2459
2472
2496
2480
2480
2481
2477
2464
2456
2437
2424
2412
2400
2401
2385
2395
2384
2379
2389
2404
2344
2352
2356
2368
2360
2376
2360
2368
2344
2368
2396
2400
2381
2375
2372
2368
2376
2378
2384
2389
2400
2404
2424
2435
2442
2445
2444
2444
2440
2432
2424
2410
2336
2336
2324
2320
2312
2328
2320
2324
2330
2376
2411
2410
2420
2425
2422
2425
2412
2392
2393
2379
2369
2368
2354
2350
2344
2336
2337
2358
2353
2373
2395
2416
2364
2388
2404
2424
2442
2480
2496
2544
2586
2688
2792
2864
2938
3021
3098
3160
3208
3244
3238
3225
3169
3104
3009
2896
2768
2656
2541
2449
2382
2336
2312
2316
2272
2300
2336
2384
2428
2488
2540
2576
2604
2680
2722
2722
2720
2716
2716
2696
2708
2696
2691
2675
2672
2663
2646
2641
2624
2608
2596
2564
2542
2512
2488
2464
2368
2344
2328
2296
2282
2284
2280
2272
2272
2320
2350
2357
2369
2377
2387
2400
2416
2411
2410
2400
2384
2381
2363
2352
2339
2340
2324
2316
2322
2336
2330
2328
2288
2308
2320
2336
2344
2354
2352
2352
2336
2368
2377
2369
2360
2346
2347
2348
2337
2341
2340
2354
2362
2371
2380
2387
2400
2407
2403
2406
2400
2392
2372
2369
2300
2304
2292
2298
2290
2306
2296
2316
2320
2368
2397
2424
2419
2417
2422
2408
2400
2390
2377
2368
2360
2355
2356
2355
2354
2368
2379
2384
2394
2421
2425
2448
2384
2402
2396
2392
2378
2392
2362
2356
2352
2380
2404
2404
2409
2421
2422
2427
2438
2444
2456
2457
2477
2471
2468
2466
2459
2458
2443
2437
2424
2426
2432
2432
2372
2384
2392
2401
2412
2426
2432
2436
2392
2468
2497
2484
2464
2452
2448
2440
2425
2422
2416
2416
2421
2421
2432
2436
2448
2455
2464
2473
2476
2475
2474
2465
2388
2380
2308
2356
2340
2338
2328
2328
2304
2360
2384
2380
2384
2376
2389
2385
2388
2400
2385
2385
2364
2348
2341
2331
2312
2307
2296
2288
2288
2285
2282
2296
2240
2264
2272
2281
2280
2292
2288
2280
2248
2288
2283
2276
2258
2257
2248
2248
2245
2256
2259
2264
2269
2281
2285
2296
2306
2308
2309
2307
2297
2292
2277
2272
2200
2208
2196
2200
2176
2196
2186
2200
2192
2240
2274
2288
2288
2306
2298
2292
2290
2275
2272
2260
2249
2244
2240
2240
2240
2232
2244
2249
2252
2269
2273
2283
2224
2236
2240
2232
2226
2220
2200
2196
2180
2212
2236
2232
2240
2249
2257
2268
2280
2280
2304
2312
2310
2324
2310
2308
2296
2293
2288
2273
2304
2259
2253
2248
2188
2193
2200
2208
2204
2232
2236
2240
2244
2288
2308
2304
2292
2282
2272
2260
2258
2248
2245
2242
2257
2249
2256
2265
2296
2296
2307
2326
2337
2333
2332
2336
2248
2242
2226
2224
2200
2212
2200
2208
2200
2240
2272
2278
2296
2307
2316
2328
2345
2347
2344
2341
2324
2313
2304
2281
2269
2261
2250
2248
2250
2240
2244
2258
2216
2228
2240
2252
2256
2280
2274
2280
2264
2304
2304
2304
2283
2274
2260
2266
2252
2250
2256
2272
2257
2272
2288
2291
2304
2312
2320
2304
2304
2296
2284
2266
2204
2212
2200
2208
2186
2208
2200
2208
2200
2256
2288
2296
2309
2317
2316
2316
2308
2298
2289
2280
2278
2272
2272
2262
2260
2264
2274
2274
2278
2291
2296
2305
2248
2264
2260
2256
2256
2260
2234
2308
2216
2233
2258
2256
2258
2260
2262
2267
2276
2284
2294
2304
2314
2331
2317
2314
2305
2304
2304
2293
2277
2272
2274
2266
2200
2224
2216
2208
2212
2228
2232
2244
2244
2284
2308
2304
2304
2284
2273
2267
2276
2269
2262
2272
2294
2304
2317
2326
2345
2361
2380
2400
2424
2424
2436
2438
2356
2364
2352
2352
2280
2314
2304
2292
2276
2312
2331
2328
2336
2340
2348
2353
2360
2364
2380
2368
2369
2357
2332
2328
2305
2293
2274
2262
2260
2249
2256
2258
2208
2218
2228
2256
2256
2288
2284
2296
2280
2320
2328
2316
2304
2296
2282
2282
2265
2264
2264
2272
2277
2293
2296
2304
2318
2329
2320
2312
2313
2309
2288
2280
2202
2208
2194
2198
2192
2212
2208
2218
2226
2272
2313
2320
2332
2340
2240
2328
2320
2296
2284
2258
2234
2222
2210
2208
2229
2225
2248
2262
2289
2320
2352
2388
2360
2404
2448
2512
2552
2620
2680
2744
2792
2912
3000
3046
3072
3080
3054
3018
2956
2868
2787
2672
2576
2469
2384
2304
2248
2233
2212
2204
2235
2269
2308
2352
2336
2392
2432
2480
2489
2528
2552
2552
2544
2592
2613
2605
2604
2581
2565
2541
2520
2496
2496
2472
2448
2424
2409
2390
2369
2361
2352
2330
2329
2304
2296
2284
2208
2196
2188
2176
2154
2156
2144
2144
2132
2176
2208
2219
2224
2233
2240
2256
2264
2272
2273
2272
2275
2256
2249
2235
2226
2216
2212
2208
2197
2201
2208
2212
2176
2180
2210
2212
2218
2240
2232
2232
2212
2264
2248
2240
2224
2214
2201
2208
2200
2208
2208
2217
2224
2240
2250
2262
2266
2280
2289
2281
2272
2272
2272
2250
2180
2180
2168
2162
2152
2168
2160
2176
2172
2216
2257
2272
2288
2294
2290
2296
2292
2281
2273
2265
2256
2242
2235
2242
2242
2240
2249
2252
2256
2283
2288
2304
2250
2273
2264
2276
2258
2264
2248
2240
2232
2260
2264
2272
2260
2276
2282
2278
2305
2307
2320
2336
2348
2354
2368
2370
2364
2363
2352
2339
2328
2316
2308
2312
2240
2240
2240
2250
2256
2266
2280
2292
2292
2328
2360
2354
2352
2340
2331
2318
2308
2292
2291
2280
2268
2274
2272
2267
2272
2280
2293
2304
2308
2316
2312
2309
2240
2232
2212
2196
2178
2172
2152
2148
2136
2160
2192
2185
2187
2205
2210
2217
2212
2221
2230
2218
2209
2196
2180
2176
2152
2144
2128
2132
2123
2128
2120
2128
2084
2096
2104
2128
2128
2136
2136
2136
2120
2160
2168
2146
2136
2136
2122
2114
2122
2112
2113
2125
2128
2139
2149
2160
2166
2176
2187
2176
2177
2180
2162
2153
2088
2096
2080
2080
2066
2080
2076
2088
2088
2132
2152
2165
2177
2188
2190
2199
2200
2180
2170
2156
2149
2135
2124
2120
2114
2112
2115
2120
2120
2131
2152
2160
2112
2144
2138
2136
2124
2133
2132
2120
2100
2130
2144
2133
2136
2131
2131
2133
2133
2155
2157
2176
2181
2187
2208
2208
2199
2200
2192
2181
2176
2160
2156
2157
2096
2096
2104
2108
2112
2128
2128
2129
2136
2184
2232
2221
2229
2224
2209
2198
2197
2186
2176
2176
2164
2178
2176
2176
2188
2202
2210
2221
2228
2234
2240
2240
2176
2176
2176
2164
2144
2148
2136
2132
2122
2168
2184
2184
2192
2203
2216
2226
2236
2246
2253
2254
2257
2246
2240
2229
2224
2214
2209
2205
2200
2205
2200
2202
2148
2164
2176
2184
2184
2200
2208
2200
2192
2224
2228
2221
2210
2200
2196
2184
2192
2185
2184
2192
2194
2204
2214
2224
2240
2249
2257
2256
2263
2249
2252
2232
2160
2164
2152
2144
2144
2144
2144
2136
2046
2192
2216
2242
2248
2264
2272
2261
2262
2256
2243
2231
2227
2218
2208
2205
2197
2193
2210
2213
2217
2234
2240
2251
2208
2224
2240
2226
2220
2224
2200
2196
2176
2212
2224
2212
2214
2208
2210
2216
2216
2220
2240
2248
2261
2279
2283
2288
2288
2280
2273
2262
2248
2236
2224
2215
2148
2160
2152
2152
2156
2312
2184
2192
2194
2248
2277
2289
2285
2280
2274
2259
2258
2240
2225
2221
2235
2214
2216
2216
2216
2220
2240
2250
2260
2274
2288
2293
2240
2256
2248
2248
2240
2248
2240
2240
2240
2276
2304
2309
2336
2338
2362
2372
2389
2404
2401
2409
2402
2394
2378
2368
2346
2327
2320
2304
2294
2285
2289
2292
2240
2248
2248
2272
2268
2296
2304
2296
2280
2320
2331
2320
2306
2288
2272
2264
2268
2259
2261
2265
2272
2284
2293
2308
2320
2331
2336
2343
2336
2328
2320
2307
2232
2226
2216
2208
2196
2212
2208
2208
2208
2256
2273
2297
2306
2312
2315
2336
2336
2332
2315
2317
2305
2273
2276
2267
2265
2264
2265
2266
2280
2280
2283
2305
2248
2260
2256
2256
2228
2224
2212
2200
2180
2224
2248
2253
2258
2281
2304
2323
2360
2397
2457
2523
2610
2689
2779
2869
2952
3032
3104
3160
3200
3222
3216
3200
3056
3004
2914
2820
2696
2608
2520
2448
2384
2378
2381
2370
2369
2381
2384
2416
2440
2469
2501
2534
2571
2592
2609
2624
2643
2660
2628
2696
2696
2698
2698
2690
2600
2570
2532
2488
2448
2416
2372
2324
2288
2296
2288
2272
2252
2248
2244
2243
2264
2266
2274
2275
2283
2276
2273
2261
2260
2248
2248
2240
2232
2216
2220
2220
2168
2176
2184
2196
2196
2208
2213
2224
2216
2240
2265
2258
2256
2240
2236
2240
2240
2240
2244
2240
2256
2258
2259
2268
2283
2280
2288
2288
2284
2278
2281
2260
2192
2196
2186
2176
2172
2176
2180
2176
2180
2220
2257
2272
2280
2292
2304
2309
2308
2312
2292
2293
2272
2264
2256
2252
2249
2245
2252
2248
2257
2265
2276
2286
2248
2256
2264
2264
2192
2276
2260
2256
2240
2272
2288
2283
2278
2276
2286
2288
2294
2304
2315
2328
2337
2369
2360
2364
2362
2361
2361
2349
2346
2333
2336
2320
2256
2264
2260
2264
2264
2288
2300
2306
2314
2368
2405
2420
2408
2411
2409
2395
2384
2375
2368
2353
2349
2345
2344
2352
2352
2352
2376
2384
2400
2412
2412
2420
2354
2528
2344
2336
2304
2308
2290
2280
2264
2306
2317
2314
2310
2325
2329
2328
2336
2343
2356
2360
2360
2352
2341
2327
2313
2304
2283
2272
2260
2256
2240
2232
2178
2188
2186
2200
2196
2208
2208
2216
2208
2248
2257
2240
2240
2226
2208
2200
2200
2197
2192
2185
2195
2200
2200
2214
2224
2231
2246
2248
2244
2240
2230
2221
2144
2148
2144
2124
2112
2120
2112
2128
2120
2160
2202
2208
2224
2229
2232
2243
2250
2236
2240
2227
2221
2216
2210
2197
2192
2189
2189
2185
2192
2197
2202
2218
2160
2172
2184
2196
2188
2192
2184
2184
2160
2176
2204
2194
2190
2192
2184
2185
2196
2192
2210
2216
2221
2240
2253
2249
2264
2258
2246
2240
2232
2218
2204
2192
2136
2136
2132
2128
2129
2156
2162
2170
2184
2226
2252
2259
2260
2266
2260
2252
2236
2232
2218
2208
2204
2192
2202
2203
2194
2202
2209
2218
2228
2251
2260
2267
2200
2218
2210
2208
2192
2208
2176
2172
2164
2196
2213
2214
2217
2220
2242
2240
2260
2268
2274
2280
2291
2291
2274
2262
2252
2246
2240
2230
2228
2224
2224
2216
2164
2184
2192
2200
2204
2232
2240
2240
2232
2272
2292
2296
2284
2269
2264
2256
2250
2244
2248
2242
2245
2250
2250
2265
2272
2288
2290
2304
2305
2297
2296
2288
2216
2220
2212
2208
2192
2196
2194
2186
2192
2232
2268
2276
2292
2293
2312
2324
2330
2336
2330
2328
2306
2296
2282
2284
2267
2260
2252
2250
2241
2253
2256
2264
2216
2232
2241
2252
2250
2272
2256
2256
2244
2272
2278
2268
2261
2261
2251
2259
2249
2266
2276
2280
2296
2308
2316
2323
2336
2338
2326
2322
2313
2304
2292
2284
2208
2224
2228
2220
2216
2226
2225
2240
2240
2282
2328
2330
2336
2336
2337
2336
2325
2310
2304
2288
2280
2273
2264
2277
2266
2272
2275
2289
2297
2312
2328
2329
2272
2276
2272
2268
2248
2252
2240
2236
2216
2248
2261
2261
2256
2272
2278
2278
2291
2304
2316
2330
2338
2348
2346
2344
2336
2329
2325
2320
2316
2320
2332
2328
2276
2290
2304
2324
2328
2356
2376
2384
2384
2434
2460
2448
2442
2417
2404
2389
2368
2368
2353
2346
2352
2344
2353
2354
2368
2379
2385
2392
2400
2400
2388
2384
2300
2293
2280
2264
2248
2256
2248
2240
2232
2272
2293
2304
2328
2332
2340
2352
2368
2370
2368
2368
2352
2348
2338
2326
2325
2304
2304
2304
2294
2306
2310
2316
2272
2280
2290
2300
2304
2316
2312
2300
2292
2320
2328
2320
2312
2306
2290
2304
2304
2305
2313
2312
2324
2349
2348
2359
2360
2356
2352
2336
2318
2298
2276
2259
2192
2196
2200
2208
2212
2256
2272
2308
2336
2424
2490
2552
2624
2701
2774
2841
2912
2980
3050
3112
3156
3177
3190
3188
3152
3100
3024
2937
2842
2740
2648
2565
2432
2384
2346
2321
2296
2304
2312
2328
2348
2428
2497
2548
2572
2619
2649
2676
2696
2725
2741
2752
2757
2756
2752
2729
2710
2667
2640
2592
2560
2506
2464
2432
2328
2304
2288
2272
2248
2260
2252
2252
2250
2288
2307
2314
2304
2284
2288
2283
2282
2268
2266
2264
2274
2269
2275
2277
2285
2294
2306
2316
2324
2324
2320
2316
2248
2244
2242
2224
2224
2312
2220
2224
2224
2264
2296
2310
2314
2328
2341
2345
2344
2352
2354
2344
2332
2320
2308
2292
2289
2292
2285
2284
2288
2291
2297
2308
2260
2268
2280
2296
2284
2312
2300
2298
2272
2304
2313
2304
2296
2281
2288
2280
2273
2283
2281
2294
2305
2321
2330
2345
2357
2368
2369
2368
2360
2353
2353
2345
2276
2274
2264
2272
2256
2280
2288
2288
2281
2336
2370
2389
2388
2390
2400
2400
2400
2384
2381
2379
2354
2363
2363
2353
2348
2355
2368
2384
2400
2400
2408
2418
2360
2372
2368
2368
2360
2362
2348
2340
2336
2380
2390
2390
2392
2393
2400
2406
2428
2441
2445
2455
2459
2464
2464
2461
2449
2443
2436
2417
2400
2393
2384
2380
2312
2320
2320
2324
2328
2340
2340
2344
2340
2376
2396
2400
2384
2368
2348
2341
2322
2304
2304
2297
2288
2293
2291
2296
2290
2304
2304
2320
2324
2321
2312
2304
2232
2228
2212
2208
2184
2192
2176
2176
2164
2208
2234
2230
2241
2260
2261
2272
2289
2286
2276
2273
2267
2262
2241
2234
2224
2205
2194
2198
2190
2200
2200
2204
2162
2180
2192
2208
2204
2224
2220
2216
2208
2240
2253
2240
2235
2226
2211
2212
2202
2216
2220
2218
2224
2240
2254
2256
2264
2276
2272
2265
2264
2246
2240
2232
2176
2168
2168
2160
2149
2164
2168
2168
2168
2209
2246
2253
2259
2272
2262
2260
2256
2240
2236
2218
2216
2211
2202
2200
2209
2208
2218
2235
2244
2256
2264
2276
2220
2226
2232
2224
2208
2208
2200
2184
2164
2200
2216
2210
2225
2230
2237
2246
2264
2280
2296
2304
2304
2320
2320
2310
2304
2297
2284
2280
2273
2266
2256
2259
2188
2196
2208
2208
2192
2232
2242
2256
2264
2306
2331
2320
2304
2297
2288
2281
2276
2260
2268
2266
2269
2272
2281
2293
2304
2306
2321
2331
2338
2348
2354
2344
2266
2274
2256
2240
2224
2226
2228
2352
2212
2248
2275
2296
2293
2309
2320
2336
2345
2348
2340
2339
2336
2320
2314
2296
2293
2279
2282
2281
2281
2281
2284
2293
2244
2352
2272
2266
2274
2292
2288
2276
2266
2297
2313
2315
2293
2294
2283
2281
2282
2289
2296
2305
2313
2328
2328
2348
2347
2348
2361
2346
2336
2325
2313
2316
2240
2232
2224
2224
2216
2240
2232
2240
2242
2288
2336
2345
2352
2354
2363
2368
2356
2348
2332
2320
2315
2304
2286
2277
2280
2280
2290
2293
2304
2316
2329
2342
2300
2320
2313
2320
2304
2308
2280
2276
2256
2280
2304
2293
2298
2306
2304
2316
2325
2333
2352
2360
2370
2374
2387
2384
2378
2368
2354
2348
2340
2324
2312
2320
2248
2272
2264
2264
2266
2298
2296
2298
2306
2346
2368
2372
2361
2356
2355
2340
2336
2328
2326
2316
2324
2330
2336
2336
2348
2356
2360
2369
2376
2386
2380
2388
2316
2304
2292
2292
2276
2272
2256
2256
2256
2296
2326
2330
2340
2352
2368
2380
2392
2404
2416
2419
2424
2427
2423
2416
2416
2420
2417
2416
2408
2422
2420
2432
2368
2386
2408
2424
2412
2424
2424
2408
2408
2420
2436
2424
2409
2400
2392
2400
2392
2388
2392
2401
2413
2422
2432
2440
2440
2444
2449
2436
2426
2408
2392
2385
2304
2296
2281
2296
2280
2296
2300
2304
2308
2368
2396
2404
2420
2425
2435
2427
2432
2425
2410
2395
2400
2379
2379
2380
2374
2368
2373
2376
2387
2400
2408
2419
2370
2380
2384
2384
2376
2378
2360
2352
2320
2361
2377
2376
2379
2368
2364
2368
2368
2376
2375
2374
2372
2364
2368
2361
2360
2356
2360
2368
2379
2388
2404
2438
2392
2448
2504
2576
2632
2736
2816
2912
2984
3120
3232
3280
3307
3300
3288
3233
3168
3076
2966
2856
2740
2632
2552
2489
2445
2416
2414
2424
2444
2476
2508
2548
2514
2548
2584
2600
2616
2640
2640
2642
2652
2712
2741
2752
2754
2757
2754
2756
2736
2727
2704
2666
2629
2581
2539
2488
2449
2408
2376
2352
2341
2332
2328
2317
2264
2276
2288
2312
2321
2336
2328
2330
2324
2360
2372
2358
2346
2349
2344
2326
2328
2329
2326
2332
2331
2344
2360
2354
2376
2384
2384
2393
2379
2380
2356
2356
2276
2288
2272
2273
2256
2264
2256
2256
2268
2304
2336
2356
2369
2376
2385
2392
2380
2377
2372
2349
2349
2336
2324
2323
2317
2309
2304
2316
2330
2324
2344
2356
2304
2316
2328
2336
2312
2330
2312
2304
2288
2312
2329
2331
2336
2332
2332
2342
2345
2353
2368
2372
2380
2388
2400
2397
2392
2388
2378
2369
2360
2357
2346
2340
2280
2280
2290
2292
2292
2312
2328
2336
2352
2400
2436
2444
2444
2448
2432
2432
2417
2412
2408
2406
2409
2406
2401
2408
2416
2416
2434
2443
2450
2458
2466
2469
2400
2404
2384
2388
2360
2364
2360
2344
2340
2376
2396
2408
2406
2418
2434
2438
2460
2464
2472
2465
2466
2461
2452
2440
2432
2422
2412
2401
2404
2392
2384
2387
2312
2324
2322
2336
2320
2348
2337
2320
2312
2336
2350
2340
2324
2309
2298
2283
2281
2273
2276
2272
2279
2278
2292
2304
2305
2316
2320
2320
2320
2320
2304
2288
2208
2208
2204
2198
2178
2184
2184
2196
2180
2226
2265
2275
2276
2290
2288
2293
2284
2275
2266
2256
2240
2226
2225
2220
2214
2227
2225
2221
2230
2241
2260
2272
2216
2244
2240
2244
2236
2256
2224
2208
2192
2228
2229
2219
2216
2221
2213
2222
2240
2245
2260
2273
2286
2305
2304
2328
2304
2294
2281
2272
2252
2240
2232
2225
2160
2168
2168
2176
2168
2188
2200
2208
2200
2260
2304
2296
2292
2291
2285
2275
2266
2265
2250
2244
2241
2244
2248
2248
2256
2264
2277
2283
2293
2306
2304
2320
2248
2256
2168
2248
2228
2232
2218
2224
2212
2264
2285
2284
2284
2296
2298
2313
2320
2326
2338
2337
2338
2331
2322
2312
2304
2304
2288
2292
2294
2289
2292
2304
2248
2266
2272
2276
2288
2308
2312
2320
2304
2352
2368
2353
2342
2330
2324
2316
2308
2308
2309
2309
2313
2320
2330
2336
2352
2352
2361
2360
2353
2352
2336
2323
2256
2260
2250
2241
2225
2240
2240
2244
2240
2284
2317
2326
2336
2345
2349
2355
2357
2352
2348
2332
2331
2321
2316
2306
2304
2304
2312
2316
2321
2333
2341
2349
2288
2304
2312
2312
2308
2306
2292
2272
2256
2288
2304
2296
2285
2290
2284
2304
2304
2306
2320
2328
2340
2352
2360
2371
2368
2361
2356
2344
2344
2330
2322
2321
2258
2264
2266
2266
2264
2276
2289
2288
2288
2344
2369
2376
2369
2368
2357
2344
2328
2320
2305
2297
2296
2296
2294
2308
2304
2315
2324
2336
2346
2361
2372
2357
2297
2306
2298
2288
2272
2280
2266
2260
2258
2290
2320
2324
2320
2337
2336
2344
2356
2368
2368
2372
2364
2368
2350
2353
2340
2320
2316
2306
2312
2306
2312
2317
2252
2256
2272
2276
2288
2304
2316
2312
2300
2340
2358
2356
2344
2330
2317
2323
2312
2320
2313
2321
2324
2338
2348
2362
2380
2377
2385
2387
2384
2376
2354
2352
2272
2264
2249
2248
2248
2248
2252
2264
2264
2325
2336
2350
2372
2377
2392
2390
2394
2389
2378
2364
2349
2336
2332
2315
2312
2310
2310
2312
2314
2314
2324
2337
2288
2312
2320
2336
2340
2344
2352
2432
2344
2386
2408
2408
2402
2409
2404
2406
2400
2416
2425
2437
2448
2444
2458
2453
2459
2448
2437
2414
2405
2392
2380
2368
2288
2312
2304
2304
2288
2308
2304
2316
2308
2360
2386
2380
2377
2370
2352
2352
2340
2322
2317
2306
2306
2304
2312
2306
2315
2321
2337
2356
2368
2384
2388
2400
2336
2344
2328
2320
2280
2312
2292
2290
2265
2312
2342
2336
2341
2348
2352
2362
2368
2384
2390
2405
2405
2405
2396
2379
2379
2354
2360
2341
2329
2328
2320
2320
2256
2264
2264
2276
2272
2296
2292
2296
2296
2336
2369
2364
2368
2371
2380
2392
2416
2436
2484
2536
2594
2660
2764
2842
2924
3008
3073
3137
3163
3152
3122
3072
2906
2832
2724
2610
2496
2416
2328
2264
2224
2248
2283
2313
2354
2406
2454
2504
2545
2582
2612
2631
2637
2633
2641
2632
2624
2624
2626
2618
2626
2628
2640
2644
2576
2592
2592
2584
2564
2552
2520
2488
2440
2448
2432
2404
2371
2346
2336
2321
2312
2312
2320
2324
2316
2345
2354
2368
2369
2360
2358
2345
2340
2328
2320
2304
2233
2234
2232
2232
2240
2252
2248
2266
2273
2316
2353
2360
2356
2362
2348
2345
2336
2324
2312
2306
2304
2291
2304
2304
2312
2320
2328
2336
2401
2362
2368
2376
2312
2336
2312
2304
2282
2288
2276
2266
2240
2284
2305
2297
2318
2316
2316
2325
2344
2353
2368
2358
2370
2376
2372
2368
2357
2346
2332
2329
2331
2328
2324
2336
2272
2282
2292
2300
2304
2336
2336
2352
2340
2386
2402
2395
2384
2379
2364
2361
2360
2353
2361
2356
2360
2368
2373
2396
2404
2413
2435
2441
2441
2448
2448
2445
2372
2384
2368
2364
2348
2352
2344
2344
2352
2384
2416
2425
2434
2448
2464
2464
2456
2460
2465
2443
2441
2426
2420
2411
2404
2408
2404
2402
2408
2408
2418
2434
2370
2396
2400
2416
2416
2420
2408
2396
2370
2400
2405
2400
2389
2379
2360
2358
2348
2349
2349
2357
2368
2369
2373
2386
2374
2384
2369
2352
2337
2315
2312
2304
2224
2224
2212
2212
2208
2216
2212
2216
2216
2260
2285
2288
2288
2283
2275
2272
2258
2248
2240
2232
2225
2217
2220
2226
2228
2232
2246
2250
2264
2274
2276
2280
2224
2224
2218
2208
2188
2184
2160
2160
2144
2176
2192
2208
2204
2212
2213
2237
2240
2248
2257
2269
2272
2272
2262
2267
2256
2244
2240
2226
2220
2212
2208
2212
2156
2172
2176
2184
2176
2200
2210
2200
2202
2232
2250
2240
2240
2229
2213
2213
2204
2201
2194
2198
2202
2212
2213
2227
2240
2253
2266
2266
2273
2275
2272
2268
2196
2188
2180
2178
2160
2160
2152
2148
2148
2188
2220
2224
2251
2256
2272
2280
2282
2278
2275
2268
2261
2252
2240
2224
2224
2210
2208
2208
2219
2216
2232
2230
2185
2202
2224
2228
2232
2240
2240
2225
2212
2256
2256
2243
2242
2246
2232
2236
2246
2246
2248
2258
2260
2274
2284
2296
2304
2293
2308
2284
2274
2264
2252
2248
2176
2180
2176
2180
2176
2192
2200
2208
2208
2256
2289
2297
2304
2310
2304
2288
2285
2265
2264
2251
2248
2235
2240
2236
2248
2248
2254
2264
2277
2285
2296
2304
2248
2256
2256
2248
2240
2232
2210
2200
2192
2216
2235
2244
2242
2240
2244
2257
2260
2272
2281
2294
2304
2304
2304
2288
2282
2263
2253
2240
2234
2232
2225
2228
2168
2178
2184
2192
2192
2208
2220
2228
2224
2264
2281
2265
2258
2252
2247
2233
2227
2220
2217
2225
2236
2240
2241
2249
2274
2275
2293
2304
2308
2304
2296
2285
2216
2208
2196
2200
2184
2184
2176
2176
2080
2216
2245
2257
2272
2274
2288
2304
2305
2312
2304
2296
2282
2266
2268
2248
2240
2233
2226
2232
2226
2224
2240
2240
2192
2209
2216
2228
2218
2240
2224
2224
2196
2224
2241
2234
2224
2225
2224
2224
2228
2231
2244
2250
2261
2274
2284
2289
2290
2304
2304
2320
2289
2284
2262
2256
2192
2184
2180
2176
2168
2328
2180
2192
2200
2258
2280
2297
2304
2317
2320
2328
2328
2328
2316
2310
2320
2320
2321
2317
2321
2320
2324
2340
2346
2356
2360
2368
2322
2324
2304
2304
2288
2292
2266
2250
2240
2260
2282
2289
2280
2283
2277
2284
2304
2306
2314
2313
2312
2320
2308
2294
2283
2273
2256
2242
2232
2222
2225
2225
2162
2178
2186
2192
2209
2232
2240
2248
2240
2288
2308
2304
2294
2277
2272
2252
2240
2230
2235
2240
2234
2240
2246
2257
2272
2275
2304
2304
2312
2314
2312
2305
2236
2232
2218
2212
2192
2200
2192
2188
2176
2216
2236
2249
2241
2249
2258
2244
2256
2251
2252
2252
2246
2256
2272
2262
2274
2278
2304
2329
2368
2411
2472
2541
2552
2640
2728
2818
2888
2976
3024
3052
3050
3080
3064
3008
2922
2825
2708
2584
2484
2384
2308
2259
2240
2221
2240
2260
2288
2336
2369
2405
2434
2470
2496
2513
2452
2474
2488
2488
2488
2508
2496
2504
2504
2544
2578
2566
2576
2545
2528
2496
2464
2432
2384
2340
2305
2277
2248
2228
2209
2204
2188
2189
2203
2212
2221
2232
2192
2200
2200
2192
2184
2180
2176
2152
2144
2180
2196
2185
2184
2195
2200
2208
2217
2221
2240
2244
2245
2256
2244
2240
2228
2216
2197
2192
2184
2180
2180
2192
2128
2137
2144
2154
2160
2180
2186
2216
2200
2240
2264
2259
2252
2240
2236
2217
2204
2192
2184
2184
2184
2192
2203
2201
2217
2235
2248
2256
2268
2275
2272
2267
2208
2200
2186
2192
2162
2164
2160
2160
2152
2192
2211
2224
2229
2240
2253
2272
2278
2284
2284
2290
2286
2281
2266
2268
2256
2256
2252
2248
2244
2256
2252
2260
2208
2224
2240
2252
2180
2274
2272
2272
2264
2304
2313
2308
2304
2304
2292
2290
2293
2304
2309
2323
2330
2332
2357
2362
2378
2376
2382
2380
2368
2349
2352
2336
2264
2264
2258
2260
2256
2260
2260
2268
2272
2320
2357
2362
2370
2373
2376
2369
2368
2349
2332
2322
2312
2304
2290
2290
2282
2285
2277
2285
2284
2285
2304
2304
2232
2384
2224
2212
2200
2178
2164
2148
2128
2156
2163
2165
2160
2156
2162
2168
2176
2185
2197
2203
2208
2218
2213
2204
2196
2176
2164
2149
2139
2136
2132
2121
2072
2082
2080
2088
2096
2112
2122
2128
2128
2176
2184
2184
2177
2176
2156
2145
2140
2131
2130
2129
2121
2120
2123
2133
2136
2150
2176
2178
2187
2198
2192
2196
2132
2128
2120
2104
2104
2100
2092
2084
2076
2112
2136
2152
2155
2161
2180
2184
2188
2196
2197
2192
2256
2185
2169
2153
2149
2140
2139
2126
2128
2124
2128
2129
2089
2096
2112
2116
2122
2138
2138
2136
2116
2148
2161
2140
2141
2141
2128
2128
2130
2128
2140
2144
2144
2176
2184
2194
2203
2214
2226
2214
2204
2208
2192
2176
2112
2116
2104
2104
2096
2112
2100
2114
2112
2168
2193
2208
2218
2213
2234
2235
2229
2234
2213
2202
2196
2192
2180
2176
2177
2185
2188
2197
2210
2218
2228
2232
2192
2208
2196
2200
2184
2188
2176
2162
2148
2256
2196
2185
2186
2192
2200
2210
2216
2224
2241
2248
2261
2259
2265
2265
2264
2240
2240
2227
2216
2202
2208
2194
2134
2132
2152
2152
2152
2176
2184
2196
2200
2240
2268
2261
2267
2259
2248
2240
2228
2224
2221
2218
2210
2221
2217
2229
2232
2240
2258
2261
2272
2275
2284
2280
2208
2212
2200
2184
2176
2168
2160
2154
2148
2184
2208
2212
2220
2227
2244
2262
2257
2264
2268
2268
2272
2264
2258
2248
2236
2240
2227
2228
2216
2218
2220
2228
2184
2194
2202
2208
2208
2228
2224
2220
2216
2248
2261
2254
2245
2241
2240
2236
2240
2228
2224
2228
2232
2248
2261
2262
2278
2276
2277
2285
2265
2266
2256
2241
2184
2176
2168
2168
2160
2186
2176
2180
2188
2232
2262
2280
2285
2296
2296
2296
2296
2282
2272
2261
2245
2243
2240
2242
2231
2234
2240
2235
2256
2261
2275
2288
2234
2240
2248
2256
2240
2244
2232
2218
2200
2240
2250
2246
2244
2248
2251
2260
2272
2280
2304
2304
2308
2320
2317
2315
2306
2296
2277
2276
2257
2248
2248
2240
2192
2194
2194
2200
2208
2240
2233
2256
2256
2304
2326
2323
2280
2306
2294
2281
2260
2250
2250
2251
2240
2245
2264
2267
2280
2305
2322
2337
2360
2376
2392
2400
2328
2348
2329
2324
2308
2316
2308
2296
2288
2324
2342
2348
2354
2356
2368
2435
2386
2384
2381
2381
2376
2360
2346
2336
2336
2329
2320
2309
2296
2304
2289
2296
2232
2250
2248
2264
2264
2280
2288
2280
2272
2308
2322
2314
2298
2293
2289
2288
2272
2272
2272
2269
2277
2290
2292
2314
2313
2314
2332
2326
2325
2314
2312
2296
2234
2228
2228
2224
2209
2216
2228
2220
2224
2266
2297
2304
2316
2326
2323
2328
2324
2320
2312
2313
2294
2278
2267
2256
2242
2229
2224
2224
2229
2243
2260
2279
2240
2264
2304
2316
2316
2356
2368
2404
2424
2528
2611
2681
2765
2840
2925
3008
3084
3144
3184
3218
3234
3208
3156
3080
2970
2860
2744
2624
2522
2436
2370
2337
2240
2240
2240
2276
2300
2348
2400
2448
2500
2592
2648
2676
2690
2698
2708
2692
2688
2677
2666
2652
2635
2616
2602
2577
2562
2540
2512
2488
2470
2437
2422
2380
2296
2280
2252
2224
2208
2296
2192
2176
2168
2208
2240
2242
2253
2260
2281
2288
2292
2304
2317
2308
2309
2312
2289
2278
2281
2256
2249
2246
2240
2240
2240
2242
2200
2208
2216
2226
2232
2256
2264
2276
2256
2292
2317
2304
2282
2269
2261
2253
2252
2249
2246
2261
2260
2281
2290
2294
2305
2312
2336
2333
2326
2328
2324
2317
2234
2232
2368
2212
2200
2216
2208
2212
2224
2264
2293
2304
2316
2331
2340
2337
2336
2342
2332
2326
2320
2314
2304
2296
2293
2288
2291
2296
2304
2313
2338
2345
2280
2312
2308
2328
2316
2321
2312
2312
2292
2320
2338
2330
2332
2336
2336
2332
2344
2352
2368
2377
2394
2408
2406
2420
2432
2419
2409
2402
2396
2378
2376
2369
2304
2308
2316
2320
2320
2344
2356
2360
2372
2420
2461
2472
2459
2458
2449
2444
2436
2422
2412
2416
2408
2409
2413
2405
2396
2405
2421
2432
2426
2427
2434
2448
2368
2360
2356
2356
2330
2320
2308
2296
2292
2320
2350
2340
2341
2348
2350
2360
2368
2362
2368
2381
2360
2348
2332
2317
2304
2293
2272
2262
2248
2252
2240
2232
2176
2186
2192
2208
2208
2224
2232
2224
2216
2256
2262
2251
2240
2234
2222
2214
2208
2209
2211
2218
2228
2228
2236
2256
2256
2267
2275
2266
2269
2264
2252
2234
2176
2172
2160
2152
2152
2154
2148
2148
2148
2200
2235
2244
2251
2269
2269
2272
2272
2267
2269
2257
2241
2232
2226
2217
2214
2218
2218
2217
2232
2230
2245
2252
2212
2224
2232
2240
2232
2228
2216
2208
2192
2220
2232
2220
2216
2214
2221
2217
2233
2248
2245
2262
2272
2285
2290
2293
2290
2289
2281
2267
2259
2252
2244
2236
2170
2180
2192
2194
2176
2196
2196
2208
2208
2264
2285
2292
2304
2291
2288
2280
2268
2267
2256
2248
2244
2258
2234
2249
2256
2260
2272
2277
2292
2304
2320
2309
2256
2256
2248
2240
2224
2228
2216
2352
2208
2244
2263
2264
2273
2282
2288
2304
2307
2323
2320
2314
2324
2336
2313
2318
2306
2294
2292
2285
2284
2284
2285
2290
2224
2336
2258
2264
2264
2288
2292
2296
2280
2320
2336
2328
2316
2305
2304
2296
2285
2277
2277
2277
2284
2284
2297
2304
2320
2330
2336
2348
2339
2346
2330
2320
2250
2244
2244
2236
2224
2234
2228
2232
2232
2276
2306
2323
2333
2341
2345
2341
2346
2346
2329
2320
2312
2296
2297
2282
2277
2268
2272
2273
2280
2288
2293
2309
2256
2280
2290
2300
2288
2304
2288
2276
2264
2280
2304
2296
2285
2280
2278
2280
2292
2294
2304
2309
2321
2330
2338
2339
2345
2336
2336
2330
2320
2315
2296
2296
2224
2232
2232
2224
2224
2240
2248
2260
2260
2308
2336
2345
2344
2340
2325
2320
2316
2304
2289
2297
2298
2294
2291
2306
2320
2325
2324
2336
2348
2361
2361
2376
2312
2306
2308
2292
2280
2280
2261
2260
2240
2272
2295
2308
2312
2323
2328
2340
2350
2358
2368
2363
2361
2360
2350
2336
2336
2328
2320
2306
2308
2304
2314
2309
2248
2256
2280
2282
2274
2298
2298
2304
2296
2328
2353
2338
2332
2317
2320
2304
2304
2296
2304
2296
2304
2310
2321
2328
2344
2370
2356
2359
2360
2358
2352
2342
2272
2268
2260
2248
2228
2244
2240
2234
2232
2276
2310
2321
2336
2342
2352
2356
2354
2344
2354
2341
2328
2324
2304
2304
2304
2296
2304
2304
2307
2312
2324
2332
2288
2304
2328
2344
2344
2360
2360
2354
2360
2392
2412
2397
2400
2388
2384
2386
2392
2400
2400
2416
2418
2425
2444
2445
2441
2444
2435
2424
2406
2392
2384
2372
2300
2300
2304
2296
2292
2304
2304
2312
2312
2352
2379
2379
2394
2384
2373
2360
2348
2352
2332
2336
2317
2313
2320
2326
2325
2333
2336
2344
2356
2362
2377
2394
2316
2320
2316
2300
2288
2288
2280
2266
2250
2282
2320
2312
2320
2330
2336
2344
2352
2368
2376
2380
2384
2379
2370
2354
2356
2344
2336
2317
2316
2305
2306
2290
2224
2234
2228
2228
2232
2256
2260
2280
2288
2352
2377
2388
2400
2416
2443
2480
2528
2582
2660
2737
2819
2907
3003
3080
3160
3219
3256
3280
3264
3232
3169
3080
2888
2777
2664
2546
2448
2388
2338
2296
2266
2304
2344
2376
2418
2461
2506
2560
2600
2634
2658
2678
2688
2690
2689
2692
2688
2688
2676
2667
2661
2649
2629
2613
2520
2512
2484
2456
2420
2400
2352
2320
2272
2288
2288
2272
2256
2246
2244
2246
2260
2256
2267
2277
2288
2294
2310
2331
2322
2325
2315
2304
2288
2281
2272
2268
2184
2184
2180
2180
2184
2196
2208
2208
2208
2256
2285
2289
2304
2304
2284
2278
2276
2268
2257
2246
2244
2236
2227
2235
2235
2244
2251
2262
2267
2276
2292
2304
2232
2244
2240
2236
2224
2220
2216
2208
2192
2240
2261
2250
2252
2261
2275
2283
2296
2305
2321
2314
2316
2320
2317
2320
2312
2308
2304
2283
2274
2280
2277
2276
2232
2236
2244
2256
2268
2280
2292
2292
2298
2336
2348
2346
2336
2325
2321
2246
2306
2297
2292
2304
2306
2313
2321
2332
2341
2358
2370
2373
2381
2384
2376
2376
2296
2306
2296
2288
2280
2288
2284
2281
2276
2328
2352
2338
2376
2384
2392
2403
2408
2416
2408
2402
2396
2384
2378
2372
2358
2355
2349
2344
2346
2349
2354
2368
2308
2328
2328
2336
2328
2352
2332
2328
2312
2344
2352
2336
2325
2315
2316
2304
2296
2304
2304
2296
2308
2316
2312
2320
2320
2312
2306
2296
2272
2267
2242
2234
2152
2160
2152
2144
2144
2162
2160
2160
2144
2216
2233
2248
2248
2244
2240
2228
2216
2198
2189
2178
2170
2161
2165
2166
2168
2180
2188
2208
2208
2219
2232
2228
2164
2180
2160
2162
2136
2132
2122
2108
2096
2132
2160
2160
2166
2176
2184
2197
2210
2221
2235
2245
2248
2253
2248
2244
2228
2216
2200
2189
2184
2176
2170
2176
2120
2128
2138
2144
2152
2170
2184
2184
2184
2226
2243
2212
2224
2221
2212
2204
2196
2190
2184
2178
2187
2187
2184
2197
2202
2231
2233
2242
2249
2242
2256
2243
2176
2176
2168
2164
2152
2156
2156
2152
2140
2184
2220
2236
2243
2252
2265
2277
2275
2275
2269
2267
2262
2248
2240
2233
2232
2224
2227
2218
2216
2214
2224
2240
2180
2200
2212
2220
2228
2242
2244
2228
2216
2250
2268
2256
2249
2248
2243
2241
2243
2236
2253
2262
2266
2278
2288
2297
2304
2293
2304
2304
2289
2274
2266
2259
2192
2200
2192
2192
2184
2208
2208
2224
2220
2280
2307
2320
2311
2320
2320
2316
2312
2297
2290
2278
2276
2261
2262
2261
2257
2256
2262
2269
2273
2285
2304
2314
2248
2264
2260
2248
2240
2240
2240
2224
2208
2244
2243
2272
2240
2275
2281
2296
2293
2304
2313
2312
2320
2313
2316
2308
2304
2278
2265
2261
2244
2240
2232
2234
2176
2184
2192
2196
2210
2232
2240
2252
2250
2284
2314
2309
2304
2290
2291
2272
2264
2264
2256
2258
2250
2257
2260
2286
2276
2296
2304
2304
2309
2312
2313
2309
2252
2240
2228
2220
2208
2220
2216
2212
2208
2252
2278
2278
2304
2308
2308
2329
2322
2324
2328
2321
2314
2304
2286
2277
2269
2266
2252
2256
2252
2248
2256
2262
2216
2232
2250
2256
2256
2276
2274
2352
2264
2292
2308
2291
2284
2276
2274
2277
2276
2275
2274
2288
2291
2296
2310
2312
2332
2336
2324
2336
2326
2316
2304
2293
2224
2244
2224
2224
2228
2232
2228
2244
2256
2296
2336
2336
2338
2341
2353
2336
2320
2320
2296
2285
2281
2278
2265
2264
2266
2283
2272
2282
2296
2312
2325
2336
2280
2296
2288
2288
2256
2284
2264
2252
2240
2272
2280
2280
2272
2273
2272
2278
2281
2285
2296
2304
2308
2314
2314
2314
2308
2304
2288
2283
2290
2290
2293
2304
2256
2265
2280
2304
2320
2346
2356
2370
2376
2416
2448
2444
2433
2418
2400
2393
2374
2357
2360
2343
2344
2336
2328
2329
2347
2353
2349
2354
2358
2368
2354
2352
2280
2274
2256
2248
2232
2228
2224
2224
2208
2256
2273
2288
2308
2316
2331
2341
2348
2361
2364
2358
2349
2336
2324
2309
2297
2288
2285
2272
2276
2278
2280
2283
2232
2256
2252
2260
2260
2280
2276
2272
2264
2288
2306
2296
2284
2273
2272
2272
2268
2275
2281
2292
2304
2313
2323
2325
2329
2328
2317
2304
2282
2264
2242
2233
2160
2164
2160
2180
2176
2212
2228
2248
2272
2352
2418
2476
2520
2592
2644
2720
2784
2848
2913
2968
3019
3053
3062
3060
3024
2985
2921
2837
2741
2651
2548
2457
2328
2280
2234
2216
2208
2212
2224
2240
2264
2336
2393
2416
2448
2482
2513
2539
2562
2584
2594
2613
2629
2640
2642
2640
2632
2624
2595
2576
2536
2500
2472
2432
2340
2304
2284
2248
2224
2220
2218
2210
2196
2232
2240
2235
2232
2236
2216
2224
2224
2212
2218
2216
2216
2212
2224
2227
2240
2256
2258
2261
2275
2274
2272
2267
2196
2202
2180
2160
2152
2160
2144
2140
2144
2164
2197
2197
2220
2240
2241
2246
2264
2272
2272
2262
2259
2246
2240
2234
2229
2217
2208
2204
2200
2202
2202
2201
2152
2176
2192
2200
2208
2226
2220
2218
2208
2232
2252
2230
2228
2216
2205
2208
2210
2198
2202
2216
2216
2240
2248
2261
2267
2286
2290
2293
2286
2276
2268
2262
2184
2194
2188
2176
2172
2184
2188
2192
2192
2240
2272
2284
2304
2304
2309
2308
2306
2298
2296
2290
2283
2280
2282
2281
2282
2284
2297
2288
2304
2314
2336
2345
2292
2308
2312
2304
2288
2304
2280
2272
2252
2280
2297
2294
2293
2296
2296
2296
2314
2331
2340
2358
2368
2382
2380
2377
2370
2356
2345
2333
2328
2310
2304
2292
2224
2234
2232
2240
2240
2248
2248
2252
2252
2288
2320
2304
2304
2275
2258
2245
2233
2216
2209
2197
2188
2187
2186
2188
2197
2197
2208
2220
2226
2225
2232
2224
2144
2144
2128
2112
2096
2096
2080
2072
2064
2096
2112
2113
2124
2129
2137
2144
2152
2156
2156
2149
2144
2136
2133
2120
2106
2112
2097
2086
2085
2096
2096
2101
2050
2064
2068
2088
2076
2096
2090
2096
2084
2128
2132
2118
2107
2101
2091
2089
2086
2089
2088
2097
2100
2105
2122
2133
2144
2156
2160
2171
2160
2160
2138
2134
2076
2064
2068
2056
2049
2056
2064
2064
2052
2104
2132
2141
2148
2162
2165
2164
2154
2149
2137
2124
2118
2120
2112
2105
2112
2104
2100
2117
2117
2126
2136
2145
2096
2104
2112
2112
2096
2104
2092
2084
2068
2096
2116
2108
2104
2101
2105
2112
2114
2128
2139
2161
2169
2176
2176
2176
2166
2164
2152
2140
2126
2116
2112
2096
2040
2047
2056
2056
2068
2104
2104
2114
2128
2172
2208
2203
2196
2186
2176
2164
2145
2137
2133
2128
2116
2124
2124
2137
2137
2153
2168
2171
2176
2185
2192
2192
2136
2132
2116
2112
2096
2092
2088
2080
1980
2104
2140
2137
2152
2160
2178
2189
2188
2208
2202
2204
2204
2192
2182
2168
2154
2158
2140
2133
2136
2133
2138
2152
2092
2122
2128
2136
2136
2152
2152
2152
2145
2168
2180
2180
2160
2149
2152
2144
2130
2131
2138
2144
2152
2162
2169
2180
2187
2192
2192
2197
2193
2187
2188
2170
2112
2112
2096
2100
2088
2240
2100
2104
2104
2154
2176
2185
2193
2202
2208
2212
2192
2272
2186
2168
2154
2153
2144
2139
2133
2147
2138
2152
2157
2161
2176
2192
2136
2156
2160
2156
2152
2152
2136
2120
2104
2129
2152
2145
2131
2129
2133
2136
2144
2152
2164
2172
2184
2196
2204
2208
2209
2200
2196
2185
2178
2176
2160
2146
2084
2092
2088
2084
2088
2104
2120
2128
2132
2192
2210
2216
2220
2208
2200
2188
2186
2169
2160
2156
2148
2144
2048
2144
2146
2155
2166
2177
2196
2208
2216
2232
2176
2188
2192
2192
2192
2202
2188
2200
2178
2224
2250
2253
2262
2268
2284
2289
2304
2308
2313
2314
2308
2304
2291
2272
2264
2248
2228
2231
2208
2214
2208
2202
2152
2170
2176
2184
2192
2208
2202
2208
2184
2208
2224
2208
2188
2176
2164
2160
2162
2149
2152
2153
2163
2170
2182
2196
2209
2216
2221
2230
2233
2221
2216
2201
2136
2130
2120
2112
2105
2114
2124
2120
2120
2160
2194
2201
2210
2219
2229
2227
2228
2224
2210
2192
2189
2180
2170
2170
2165
2167
2168
2168
2176
2176
2180
2187
2132
2148
2136
2130
2112
2116
2104
2100
2088
2136
2164
2177
2184
2201
2217
2250
2285
2336
2404
2466
2544
2628
2714
2793
2864
2929
2978
3019
3013
3002
2968
2912
2752
2660
2556
2452
2336
2258
2178
2128
2105
2122
2168
2185
2210
2244
2277
2315
2348
2385
2408
2433
2454
2470
2472
2480
2483
2482
2496
2496
2496
2512
2512
2504
2424
2416
2392
2360
2328
2306
2268
2240
2196
2208
2212
2196
2179
2168
2176
2176
2178
2188
2186
2185
2186
2186
2170
2162
2152
2146
2137
2132
2128
2118
2122
2121
2072
2080
2096
2104
2020
2128
2138
2144
2136
2176
2180
2164
2162
2152
2137
2139
2128
2128
2133
2136
2136
2145
2158
2176
2176
2192
2197
2204
2201
2197
2189
2182
