RED,IR
26191,30009
26183,30001
26182,30000
26183,29999
26183,30006
26184,30006
26183,30005
26182,29997
26188,29995
26174,30007
26185,30011
26182,29989
26185,29986
26156,29978
26158,29953
26152,29924
26131,29913
26138,29889
26128,29877
26123,29858
26123,29852
26120,29849
26116,29850
26115,29840
26112,29846
26117,29849
26123,29855
26121,29869
26128,29868
26123,29878
26123,29892
26127,29877
26127,29894
26134,29892
26142,29894
26140,29897
26138,29902
26137,29914
26143,29916
26139,29917
26144,29936
26147,29927
26165,29934
26144,29958
26163,29933
26154,29959
26154,29952
26160,29958
26167,29943
26152,29971
26166,29963
26166,29959
26165,29957
26159,29979
26167,29978
26170,29976
26154,29988
26180,29972
26162,29994
26174,29990
26167,30009
26183,29996
26179,29994
26171,30014
26195,30006
26175,30025
26182,30016
26184,30026
26186,30025
26175,30028
26189,30043
26193,30025
26181,30037
26185,30045
26195,30037
26197,30023
26185,30049
26179,30043
26187,30053
26193,30045
26193,30047
26195,30034
26189,30033
26188,30058
26192,30045
26188,30040
26185,30066
26192,30038
26196,30044
26191,30072
26195,30060
26193,30062
26198,30052
26193,30076
26194,30077
26198,30067
26181,30084
26195,30071
26191,30076
26202,30069
26195,30099
26186,30096
26205,30075
26186,30087
26193,30083
26187,30040
26171,30050
26162,30024
26178,29991
26152,30003
26160,29995
26160,29987
26159,29970
26151,29998
26152,29989
26159,29996
26161,30012
26152,30014
26175,30001
26180,30015
26164,30034
26175,30030
26176,30013
26168,30039
26174,30033
26172,30017
26177,30044
26182,30032
26177,30052
26176,30055
26195,30096
26210,30112
26240,30161
26255,30207
26275,30227
26294,30236
26285,30267
26294,30281
26306,30273
26302,30282
26296,30298
26306,30300
26307,30302
26298,30307
26307,30314
26316,30296
26303,30319
26310,30318
26310,30323
26307,30329
26314,30328
26317,30323
26320,30315
26308,30329
26313,30335
26316,30322
26299,30324
26312,30325
26312,30320
26309,30321
26300,30327
26300,30323
26298,30322
26297,30320
26295,30322
26296,30317
26296,30312
26286,30323
26298,30317
26295,30314
26292,30320
26295,30314
26293,30307
26289,30318
26292,30310
26292,30318
26291,30317
26292,30315
26292,30314
26287,30316
26292,30319
26287,30319
26282,30322
26293,30326
26291,30328
26291,30332
26293,30323
26292,30332
26278,30339
26288,30333
26285,30325
26278,30327
26279,30317
26269,30297
26261,30289
26260,30265
26256,30252
26247,30241
26247,30236
26242,30232
26243,30235
26249,30232
26244,30235
26251,30252
26252,30242
26258,30252
26251,30261
26256,30261
26253,30268
26258,30265
26257,30266
26256,30261
26257,30270
26260,30265
26248,30260
26255,30268
26252,30264
26259,30278
26258,30274
26255,30276
26261,30286
26259,30279
26259,30288
26261,30284
26257,30290
26260,30278
26253,30280
26254,30287
26257,30281
26254,30275
26248,30276
26252,30283
26253,30285
26259,30279
26254,30285
26249,30281
26253,30297
26259,30285
26256,30294
26258,30291
26258,30291
26254,30291
26257,30302
26259,30305
26259,30308
26272,30313
26272,30319
26258,30305
26257,30306
26261,30311
26259,30314
26263,30314
26256,30317
26258,30312
26261,30320
26260,30315
26256,30321
26255,30319
26256,30322
26259,30316
26257,30318
26259,30324
26258,30324
26259,30321
26260,30331
26258,30334
26257,30331
26262,30335
26260,30336
26261,30339
26265,30340
26265,30338
26262,30339
26263,30334
26257,30335
26254,30333
26253,30312
26240,30297
26233,30282
26234,30273
26227,30255
26219,30244
26221,30247
26221,30245
26218,30238
26223,30253
26226,30261
26226,30263
26222,30265
26236,30279
26236,30283
26235,30279
26231,30281
26237,30283
26237,30281
26233,30274
26229,30277
26224,30279
26232,30272
26228,30275
26228,30284
26233,30283
26230,30288
26232,30294
26238,30295
26234,30294
26227,30290
26230,30299
26233,30287
26220,30293
26225,30292
26230,30288
26226,30284
26225,30289
26222,30291
26220,30291
26232,30290
26228,30288
26224,30293
26227,30297
26223,30299
26228,30302
26229,30294
26219,30304
26232,30302
26223,30310
26225,30298
26230,30306
26227,30306
26222,30310
26229,30310
26230,30310
26224,30310
26227,30314
26224,30312
26230,30312
26232,30318
26230,30318
26222,30317
26227,30314
26230,30321
26220,30318
26222,30319
26230,30322
26217,30318
26229,30324
26226,30323
26229,30328
26216,30329
26230,30328
26226,30332
26232,30331
26230,30340
26230,30333
26232,30336
26230,30338
26225,30338
26233,30343
26222,30322
26223,30304
26213,30295
26201,30274
26201,30263
26187,30253
26186,30249
26186,30243
26189,30243
26186,30251
26195,30253
26193,30255
26194,30253
26199,30273
26195,30273
26202,30276
26197,30278
26205,30275
26194,30281
26202,30272
26196,30281
26194,30273
26194,30271
26194,30276
26191,30276
26200,30281
26201,30284
26201,30288
26200,30291
26201,30293
26198,30292
26195,30295
26201,30287
26194,30290
26188,30289
26203,30290
26193,30283
26191,30283
26197,30289
26188,30289
26191,30289
26188,30287
26191,30294
26191,30290
26193,30289
26195,30295
26191,30297
26198,30301
26196,30299
26193,30299
26197,30295
26197,30302
26193,30298
26188,30297
26200,30305
26188,30309
26200,30306
26192,30304
26196,30307
26189,30305
26190,30308
26193,30315
26198,30310
26199,30312
26191,30320
26196,30321
26193,30315
26192,30312
26192,30318
26197,30319
26185,30326
26190,30325
26199,30318
26195,30320
26183,30321
26199,30322
26188,30324
26196,30327
26193,30328
26194,30335
26191,30337
26201,30337
26198,30337
26196,30344
26197,30335
26198,30330
26192,30339
26192,30320
26173,30307
26176,30288
26164,30271
26159,30251
26156,30253
26153,30245
26155,30243
26156,30238
26153,30245
26158,30251
26159,30255
26161,30258
26166,30267
26167,30270
26159,30273
26170,30277
26164,30270
26163,30271
26159,30268
26163,30271
26165,30262
26161,30268
26164,30270
26160,30273
26161,30276
26164,30279
26169,30277
26167,30285
26166,30289
26168,30287
26170,30287
26161,30290
26162,30285
26164,30275
26162,30283
26158,30278
26164,30286
26160,30277
26166,30277
26162,30283
26157,30282
26163,30281
26162,30289
26164,30286
26161,30288
26161,30293
26162,30285
26162,30290
26160,30296
26158,30290
26165,30290
26156,30295
26161,30294
26155,30296
26159,30301
26163,30298
26163,30296
26157,30296
26161,30295
26157,30302
26156,30306
26161,30299
26156,30310
26158,30305
26163,30308
26155,30306
26160,30308
26160,30300
26157,30307
26155,30313
26161,30306
26157,30314
26164,30313
26162,30309
26154,30318
26162,30324
26163,30315
26160,30321
26159,30325
26155,30328
26159,30320
26161,30329
26159,30331
26156,30328
26154,30331
26160,30331
26157,30339
26157,30322
26157,30318
26150,30315
26144,30288
26139,30274
26128,30256
26126,30244
26123,30236
26110,30234
26118,30233
26116,30235
26121,30238
26118,30236
26125,30244
26126,30251
26122,30255
26130,30258
26126,30259
26128,30258
26133,30258
26125,30261
26128,30262
26125,30253
26124,30254
26123,30253
26121,30257
26126,30252
26124,30261
26130,30268
26127,30269
26123,30266
26127,30267
26128,30265
26124,30261
26127,30263
26125,30264
26120,30263
26117,30264
26121,30255
26123,30260
26114,30261
26119,30255
26117,30264
26120,30272
26118,30263
26121,30268
26117,30266
26128,30267
26116,30266
26116,30271
26121,30269
26122,30272
26122,30267
26122,30265
26122,30276
26119,30274
26120,30271
26118,30277
26116,30277
26121,30285
26125,30276
26125,30278
26122,30283
26117,30280
26116,30284
26120,30289
26123,30282
26118,30286
26121,30286
26125,30287
26116,30288
26122,30287
26123,30295
26118,30294
26122,30288
26129,30294
26119,30287
26120,30293
26118,30294
26119,30290
26120,30295
26121,30302
26122,30295
26127,30299
26124,30301
26121,30298
26121,30301
26123,30305
26114,30310
26125,30306
26122,30308
26124,30313
26122,30306
26128,30306
26111,30296
26112,30274
26102,30263
26089,30249
26091,30227
26073,30215
26081,30210
26075,30204
26079,30196
26077,30200
26077,30203
26082,30201
26080,30216
26082,30215
26080,30218
26083,30222
26085,30225
26075,30225
26085,30216
26084,30222
26078,30224
26084,30219
26073,30222
26084,30215
26079,30219
26078,30220
26085,30234
26083,30227
26081,30230
26084,30228
26082,30234
26078,30233
26087,30232
26080,30222
26076,30229
26075,30226
26080,30217
26072,30221
26076,30222
26080,30226
26074,30219
26081,30219
26073,30226
26079,30216
26083,30223
26080,30222
26087,30228
26079,30234
26079,30225
26080,30226
26074,30227
26078,30233
26074,30235
26077,30232
26080,30236
26077,30233
26079,30231
26080,30239
26076,30229
26080,30233
26077,30235
26081,30236
26079,30233
26081,30242
26078,30236
26083,30242
26075,30237
26084,30243
26074,30240
26077,30243
26078,30253
26077,30245
26081,30250
26079,30244
26080,30249
26079,30245
26085,30252
26081,30241
26082,30257
26083,30251
26081,30258
26086,30252
26081,30252
26085,30259
26081,30264
26085,30258
26085,30266
26085,30269
26083,30268
26087,30272
26085,30267
26090,30271
26085,30262
26081,30249
26076,30235
26065,30218
26058,30193
26056,30185
26044,30177
26047,30166
26039,30159
26048,30155
26044,30161
26049,30164
26054,30169
26049,30170
26054,30178
26055,30181
26058,30184
26054,30186
26060,30186
26056,30176
26057,30187
26053,30177
26056,30186
26050,30176
26054,30181
26055,30180
26052,30182
26054,30182
26056,30190
26056,30186
26058,30189
26053,30188
26056,30194
26057,30180
26056,30186
26050,30188
26061,30181
26049,30186
26054,30180
26049,30184
26054,30180
26049,30182
26052,30180
26052,30185
26052,30177
26056,30194
26047,30187
26053,30193
26050,30189
26061,30190
26055,30193
26056,30189
26051,30190
26064,30196
26054,30197
26060,30198
26055,30194
26056,30194
26061,30204
26060,30197
26053,30200
26059,30206
26059,30201
26060,30210
26065,30209
26064,30204
26066,30210
26063,30211
26068,30217
26060,30209
26070,30219
26064,30217
26065,30215
26070,30218
26065,30216
26070,30218
26069,30224
26068,30225
26071,30222
26069,30228
26075,30226
26067,30223
26075,30237
26074,30236
26072,30233
26078,30233
26076,30237
26080,30247
26081,30246
26083,30244
26077,30243
26084,30251
26086,30245
26075,30246
26077,30234
26073,30220
26057,30206
26064,30183
26053,30165
26042,30155
26044,30148
26043,30130
26036,30131
26039,30130
26040,30133
26040,30134
26044,30149
26046,30150
26047,30147
26050,30151
26051,30157
26053,30162
26051,30153
26047,30151
26051,30163
26058,30152
26053,30148
26054,30154
26045,30144
26054,30155
26054,30151
26054,30154
26056,30167
26058,30168
26054,30161
26058,30169
26054,30159
26054,30168
26055,30162
26054,30160
26056,30159
26054,30163
26057,30150
26055,30158
26061,30160
26058,30154
26055,30163
26063,30163
26057,30153
26060,30169
26063,30168
26061,30163
26064,30168
26061,30166
26063,30180
26064,30165
26062,30176
26068,30179
26065,30170
26063,30178
26071,30177
26059,30183
26071,30174
26065,30181
26074,30182
26071,30184
26070,30189
26076,30186
26070,30190
26078,30188
26070,30188
26074,30197
26072,30191
26074,30189
26072,30193
26076,30205
26077,30200
26074,30203
26078,30208
26079,30206
26078,30211
26083,30211
26083,30218
26085,30218
26088,30216
26082,30215
26088,30223
26086,30218
26082,30219
26090,30226
26085,30226
26088,30230
26090,30230
26094,30231
26083,30234
26096,30240
26092,30234
26093,30247
26090,30232
26099,30243
26093,30239
26091,30239
26088,30217
26078,30204
26077,30190
26064,30161
26058,30147
26055,30135
26043,30119
26048,30121
26048,30108
26044,30112
26054,30123
26055,30122
26052,30125
26056,30136
26059,30132
26059,30142
26062,30138
26056,30141
26061,30137
26056,30131
26062,30139
26056,30126
26056,30130
26057,30134
26059,30124
26050,30131
26063,30133
26054,30133
26062,30147
26062,30138
26056,30143
26065,30145
26057,30140
26065,30147
26064,30138
26058,30136
26065,30140
26058,30139
26063,30138
26059,30132
26060,30137
26054,30138
26062,30138
26054,30139
26063,30138
26059,30136
26064,30138
26061,30141
26065,30149
26061,30141
26062,30146
26066,30142
26063,30143
26065,30158
26067,30151
26064,30149
26071,30158
26069,30152
26062,30161
26072,30159
26064,30152
26067,30168
26073,30163
26069,30157
26073,30162
26069,30164
26069,30168
26072,30172
26075,30160
26067,30166
26077,30177
26077,30165
26072,30167
26078,30170
26070,30177
26068,30180
26072,30180
26078,30182
26072,30175
26076,30190
26079,30179
26082,30180
26075,30186
26082,30189
26079,30189
26084,30188
26078,30192
26090,30199
26084,30192
26083,30203
26090,30204
26086,30196
26085,30211
26088,30205
26080,30207
26090,30208
26079,30207
26081,30190
26070,30175
26070,30154
26061,30135
26054,30123
26049,30109
26048,30090
26045,30085
26048,30081
26041,30085
26046,30085
26044,30092
26052,30094
26044,30099
26050,30109
26044,30111
26055,30109
26048,30114
26052,30113
26055,30110
26052,30105
26054,30108
26054,30106
26054,30102
26047,30102
26057,30112
26058,30109
26054,30113
26061,30118
26059,30117
26059,30117
26064,30120
26061,30112
26055,30119
26062,30112
26054,30108
26053,30117
26054,30113
26056,30108
26055,30120
26056,30114
26056,30115
26055,30116
26060,30124
26058,30118
26063,30123
26061,30119
26060,30127
26064,30125
26064,30126
26066,30128
26062,30128
26062,30132
26065,30139
26061,30131
26068,30133
26065,30134
26067,30141
26063,30135
26071,30146
26072,30145
26068,30145
26075,30145
26070,30149
26070,30151
26070,30153
26075,30156
26068,30155
26078,30153
26065,30161
26081,30164
26075,30160
26083,30170
26084,30167
26077,30164
26076,30171
26083,30164
26076,30168
26087,30177
26082,30172
26086,30182
26086,30180
26079,30183
26080,30180
26087,30189
26079,30190
26090,30194
26089,30194
26090,30192
26091,30192
26091,30206
26094,30198
26083,30188
26080,30180
26077,30154
26068,30147
26065,30123
26062,30106
26051,30091
26047,30079
26053,30074
26037,30079
26048,30074
26040,30083
26051,30087
26047,30082
26052,30101
26059,30095
26054,30105
26060,30104
26055,30103
26060,30097
26058,30108
26064,30100
26053,30092
26059,30096
26056,30089
26060,30103
26058,30096
26061,30112
26063,30106
26060,30102
26060,30115
26063,30112
26062,30111
26063,30109
26062,30110
26062,30112
26065,30101
26066,30105
26065,30114
26065,30105
26058,30102
26066,30115
26065,30104
26062,30109
26063,30112
26056,30112
26070,30118
26066,30109
26067,30127
26071,30112
26070,30128
26070,30120
26073,30132
26072,30126
26071,30129
26072,30131
26075,30137
26078,30138
26070,30128
26083,30145
26073,30141
26072,30144
26085,30141
26076,30140
26078,30151
26086,30153
26075,30141
26085,30155
26078,30149
26082,30163
26087,30157
26077,30158
26088,30168
26092,30168
26086,30163
26090,30173
26092,30173
26086,30174
26097,30172
26083,30173
26092,30187
26093,30179
26090,30179
26094,30189
26097,30188
26097,30189
26096,30194
26093,30196
26104,30208
26101,30192
26092,30200
26107,30203
26102,30207
26106,30206
26112,30208
26098,30200
26091,30186
26086,30162
26081,30146
26071,30127
26068,30112
26063,30091
26058,30082
26052,30074
26055,30078
26060,30071
26055,30077
26059,30080
26063,30079
26070,30095
26066,30097
26064,30095
26061,30096
26072,30102
26066,30098
26064,30104
26072,30098
26075,30093
26063,30093
26063,30093
26067,30092
26069,30093
26065,30094
26071,30102
26079,30105
26069,30103
26077,30111
26072,30109
26072,30102
26072,30110
26074,30101
26068,30096
26074,30101
26073,30096
26061,30100
26079,30109
26071,30099
26068,30096
26074,30106
26075,30098
26070,30107
26080,30102
26069,30103
26077,30116
26078,30111
26071,30109
26076,30117
26080,30113
26073,30116
26082,30120
26072,30118
26079,30126
26089,30125
26078,30128
26085,30134
26084,30128
26078,30128
26082,30132
26081,30138
26089,30140
26086,30133
26085,30140
26087,30142
26092,30145
26082,30140
26086,30150
26093,30145
26083,30146
26095,30149
26084,30146
26097,30156
26090,30153
26092,30159
26093,30157
26096,30157
26100,30166
26094,30163
26092,30171
26101,30172
26095,30166
26094,30170
26101,30180
26096,30175
26101,30186
26102,30173
26109,30187
26100,30180
26101,30187
26094,30170
26088,30151
26084,30139
26081,30114
26069,30094
26068,30085
26061,30071
26052,30054
26055,30063
26052,30050
26059,30061
26057,30057
26065,30074
26065,30062
26072,30083
26071,30081
26070,30075
26071,30083
26066,30077
26074,30086
26072,30082
26074,30082
26065,30078
26068,30077
26063,30068
26066,30086
26075,30082
26068,30087
26078,30093
26076,30094
26073,30092
26076,30100
26079,30092
26074,30090
26074,30097
26070,30089
26075,30088
26076,30084
26071,30084
26066,30087
26076,30091
26083,30091
26075,30097
26081,30094
26076,30098
26075,30099
26085,30100
26077,30103
26086,30113
26084,30106
26083,30110
26084,30117
26085,30114
26085,30119
26087,30117
26082,30122
26088,30124
26088,30128
26090,30123
26086,30125
26090,30130
26087,30127
26087,30127
26095,30135
26093,30136
26093,30133
26092,30137
26093,30138
26093,30145
26095,30138
26093,30150
26097,30142
26097,30149
26098,30150
26095,30150
26101,30150
26098,30161
26098,30159
26099,30160
26098,30155
26091,30162
26101,30167
26106,30170
26107,30170
26109,30179
26111,30182
26106,30176
26107,30186
26114,30184
26112,30186
26113,30192
26111,30186
26111,30190
26110,30190
26107,30183
26106,30168
26097,30151
26087,30124
26079,30109
26067,30085
26073,30075
26067,30065
26063,30059
26066,30057
26067,30058
26069,30065
26070,30067
26074,30072
26072,30075
26074,30080
26078,30084
26077,30086
26081,30083
26067,30080
26074,30086
26078,30082
26076,30084
26076,30083
26075,30079
26077,30085
26076,30087
26078,30087
26077,30092
26082,30094
26083,30099
26085,30102
26086,30101
26082,30101
26089,30103
26086,30101
26087,30091
26084,30102
26078,30095
26082,30098
26085,30100
26083,30096
26087,30104
26081,30097
26091,30103
26084,30101
26089,30106
26094,30114
26089,30116
26094,30118
26091,30109
26090,30119
26089,30117
26085,30117
26094,30119
26093,30129
26096,30124
26094,30128
26091,30128
26095,30139
26102,30134
26096,30126
26101,30133
26099,30140
26098,30142
26103,30143
26098,30134
26099,30148
26106,30151
26103,30138
26103,30152
26105,30150
26102,30144
26103,30160
26105,30151
26104,30155
26106,30166
26113,30165
26110,30163
26108,30169
26107,30176
26109,30173
26116,30171
26113,30171
26108,30180
26118,30184
26119,30185
26110,30185
26121,30189
26111,30192
26119,30195
26122,30189
26122,30202
26120,30206
26129,30212
26123,30195
26117,30205
26120,30186
26107,30170
26101,30148
26090,30125
26081,30108
26079,30083
26072,30072
26073,30066
26073,30057
26062,30054
26072,30059
26067,30060
26074,30067
26077,30067
26076,30077
26081,30074
26076,30082
26085,30087
26081,30080
26082,30085
26080,30083
26080,30078
26077,30074
26078,30073
26076,30073
26080,30078
26085,30078
26077,30082
26086,30088
26080,30091
26082,30085
26083,30091
26085,30090
26081,30084
26089,30095
26085,30083
26076,30085
26083,30082
26078,30086
26085,30089
26082,30085
26078,30090
26084,30090
26079,30085
26080,30093
26084,30097
26088,30089
26084,30092
26086,30097
26092,30095
26082,30098
26091,30107
26090,30101
26089,30101
26086,30114
26090,30107
26093,30113
26089,30109
26095,30109
26084,30118
26092,30116
26090,30114
26094,30124
26096,30125
26094,30122
26096,30123
26093,30126
26098,30129
26100,30130
26095,30132
26097,30137
26099,30136
26103,30133
26098,30136
26097,30146
26102,30142
26102,30139
26101,30145
26101,30156
26108,30150
26107,30150
26110,30157
26113,30157
26105,30159
26110,30167
26112,30162
26113,30165
26114,30170
26116,30169
26116,30177
26114,30181
26116,30174
26118,30174
26107,30162
26098,30147
26091,30125
26092,30107
26082,30085
26067,30068
26069,30058
26064,30047
26067,30037
26061,30038
26068,30046
26067,30043
26069,30049
26068,30055
26069,30061
26078,30062
26079,30064
26070,30069
26085,30076
26077,30063
26077,30066
26078,30068
26076,30061
26078,30063
26073,30058
26081,30072
26083,30066
26079,30068
26081,30080
26086,30079
26083,30075
26076,30078
26081,30080
26088,30079
26080,30072
26081,30073
26081,30078
26084,30080
26086,30077
26079,30073
26077,30079
26083,30082
26082,30081
26085,30086
26086,30086
26087,30084
26086,30085
26086,30090
26086,30100
26091,30094
26093,30097
26090,30101
26086,30104
26098,30104
26093,30102
26093,30108
26094,30113
26097,30109
26089,30112
26094,30121
26098,30115
26100,30113
26097,30125
26097,30122
26098,30124
26102,30126
26101,30127
26095,30128
26100,30139
26106,30133
26106,30134
26103,30138
26106,30146
26103,30143
26102,30146
26111,30152
26107,30151
26110,30153
26112,30152
26106,30158
26115,30161
26113,30160
26111,30161
26110,30173
26114,30170
26113,30169
26115,30171
26117,30182
26125,30186
26119,30180
26121,30188
26130,30189
26116,30185
26125,30184
26114,30177
26113,30164
26104,30134
26093,30118
26084,30101
26082,30080
26074,30066
26071,30054
26075,30051
26073,30050
26068,30052
26075,30057
26078,30054
26077,30059
26076,30066
26086,30075
26083,30070
26077,30078
26083,30076
26080,30074
26086,30076
26080,30068
26071,30069
26085,30076
26085,30074
26079,30076
26092,30075
26085,30080
26090,30084
26094,30088
26092,30087
26087,30088
26090,30095
26089,30092
26089,30089
26087,30089
26085,30091
26087,30086
26081,30089
26086,30095
26088,30088
26088,30092
26089,30095
26086,30088
26090,30099
26091,30096
26088,30094
26091,30110
26099,30109
26101,30111
26096,30110
26095,30109
26100,30115
26102,30123
26101,30126
26098,30117
26101,30131
26106,30128
26101,30123
26106,30132
26108,30135
26104,30126
26104,30142
26112,30138
26101,30135
26114,30149
26112,30140
26109,30136
26112,30151
26110,30155
26110,30158
26109,30160
26116,30162
26116,30161
26112,30162
26115,30166
26119,30168
26114,30173
26120,30173
26114,30178
26125,30183
26117,30175
26126,30188
26123,30185
26121,30181
26123,30196
26118,30192
26128,30194
26121,30194
26125,30208
26129,30204
26127,30208
26137,30215
26128,30211
26135,30217
26134,30216
26137,30219
26135,30225
26138,30219
26127,30203
26122,30194
26120,30167
26100,30145
26099,30125
26088,30104
26081,30095
26082,30075
26077,30064
26077,30069
26081,30067
26077,30063
26083,30074
26089,30082
26083,30079
26094,30096
26089,30096
26091,30089
26091,30098
26091,30097
26088,30085
26085,30087
26091,30091
26096,30090
26084,30087
26087,30087
26087,30091
26092,30093
26089,30094
26089,30104
26097,30104
26092,30103
26097,30107
26094,30103
26093,30106
26093,30103
26092,30110
26095,30099
26089,30108
26100,30101
26095,30105
26093,30101
26097,30110
26098,30109
26095,30101
26097,30111
26102,30115
26097,30105
26102,30120
26100,30120
26095,30118
26103,30122
26103,30119
26094,30119
26106,30132
26106,30123
26098,30129
26100,30136
26109,30135
26100,30129
26109,30142
26112,30141
26107,30138
26104,30143
26111,30150
26115,30148
26105,30143
26111,30156
26108,30143
26109,30156
26110,30153
26103,30155
26103,30157
26119,30167
26110,30154
26116,30166
26121,30164
26112,30167
26112,30173
26123,30173
26113,30172
26122,30180
26126,30185
26116,30181
26122,30188
26121,30185
26121,30189
26120,30188
26120,30202
26126,30196
26122,30190
26126,30211
26129,30206
26128,30207
26134,30211
26131,30214
26132,30217
26134,30210
26128,30213
26130,30216
26129,30200
26117,30182
26108,30160
26097,30131
26089,30114
26085,30093
26080,30081
26076,30068
26072,30054
26068,30055
26079,30063
26070,30052
26071,30065
26077,30070
26082,30080
26078,30083
26086,30088
26089,30089
26085,30092
26084,30095
26082,30088
26078,30085
26082,30093
26080,30081
26079,30083
26078,30086
26087,30096
26091,30092
26090,30097
26090,30104
26087,30104
26093,30106
26096,30107
26090,30102
26086,30104
26089,30100
26094,30098
26088,30093
26085,30099
26094,30098
26087,30090
26090,30099
26092,30098
26089,30102
26094,30111
26089,30100
26095,30114
26097,30113
26094,30112
26093,30116
26092,30116
26092,30118
26098,30125
26102,30124
26093,30123
26096,30131
26099,30129
26100,30128
26098,30136
26099,30134
26099,30138
26098,30132
26102,30138
26099,30143
26106,30147
26103,30146
26106,30146
26104,30154
26110,30154
26104,30157
26108,30156
26104,30159
26109,30165
26111,30165
26108,30162
26109,30169
26113,30174
26118,30175
26113,30173
26115,30179
26113,30181
26115,30186
26117,30189
26120,30185
26122,30192
26117,30195
26124,30193
26119,30197
26121,30200
26122,30202
26126,30205
26123,30209
26126,30220
26129,30219
26134,30215
26128,30218
26130,30221
26124,30212
26117,30201
26111,30174
26103,30153
26094,30128
26083,30103
26080,30086
26073,30078
26071,30069
26072,30061
26071,30071
26072,30064
26073,30066
26077,30069
26083,30078
26082,30083
26083,30092
26089,30098
26083,30096
26089,30108
26090,30103
26087,30100
26087,30093
26080,30094
26091,30090
26080,30090
26085,30095
26091,30101
26090,30105
26093,30108
26088,30107
26089,30109
26097,30118
26095,30122
26095,30120
26094,30113
26094,30116
26094,30114
26093,30111
26095,30113
26094,30116
26095,30110
26090,30116
26091,30117
26090,30118
26093,30125
26093,30126
26102,30129
26097,30133
26104,30136
26100,30135
26099,30135
26100,30142
26109,30145
26107,30149
26110,30148
26106,30151
26107,30159
26110,30158
26105,30158
26110,30161
26108,30162
26107,30165
26113,30172
26114,30171
26117,30174
26113,30173
26111,30174
26119,30177
26116,30187
26118,30190
26118,30187
26112,30183
26112,30195
26124,30191
26128,30195
26117,30195
26121,30201
26123,30204
26125,30210
26127,30207
26129,30216
26126,30216
26129,30216
26127,30215
26133,30226
26136,30224
26129,30224
26134,30237
26140,30233
26136,30239
26140,30238
26134,30240
26129,30246
26140,30248
26137,30248
26140,30252
26136,30243
26134,30235
26126,30211
26117,30185
26100,30162
26098,30141
26088,30119
26082,30102
26084,30094
26079,30084
26075,30081
26079,30086
26078,30087
26079,30087
26089,30097
26082,30109
26092,30112
26087,30113
26093,30118
26096,30115
26087,30114
26093,30119
26093,30114
26086,30109
26086,30103
26090,30114
26091,30109
26088,30109
26088,30115
26098,30120
26094,30123
26096,30130
26095,30138
26095,30132
26099,30130
26095,30131
26097,30128
26095,30131
26095,30129
26096,30126
26090,30129
26093,30130
26094,30127
26095,30127
26096,30130
26095,30133
26094,30131
26096,30140
26099,30143
26103,30140
26103,30142
26103,30147
26101,30153
26101,30150
26101,30151
26104,30152
26105,30154
26107,30158
26102,30158
26107,30161
26101,30161
26106,30163
26107,30171
26111,30166
26111,30168
26110,30173
26112,30171
26106,30171
26108,30174
26109,30174
26111,30174
26112,30180
26118,30184
26112,30189
26117,30186
26114,30188
26113,30188
26115,30189
26114,30192
26121,30194
26110,30197
26117,30198
26120,30203
26118,30205
26116,30205
26123,30211
26120,30209
26122,30213
26119,30214
26122,30218
26123,30221
26128,30222
26129,30229
26125,30229
26130,30233
26131,30232
26127,30229
26126,30229
26119,30203
26107,30186
26102,30162
26093,30138
26083,30121
26080,30104
26071,30090
26071,30080
26071,30072
26068,30070
26068,30074
26073,30081
26076,30080
26073,30087
26082,30096
26077,30098
26085,30098
26083,30108
26081,30102
26086,30104
26079,30106
26084,30101
26082,30103
26080,30099
26078,30098
26080,30101
26079,30106
26089,30107
26085,30115
26085,30118
26085,30116
26086,30121
26082,30119
26083,30118
26087,30110
26081,30116
26085,30110
26080,30115
26086,30112
26080,30105
26082,30111
26085,30111
26087,30115
26084,30113
26088,30120
26086,30125
26092,30128
26091,30123
26094,30132
26090,30134
26090,30129
26092,30133
26093,30139
26095,30134
26094,30142
26098,30143
26098,30143
26099,30149
26093,30146
26095,30150
26097,30148
26100,30153
26101,30156
26097,30160
26104,30160
26097,30157
26098,30164
26098,30164
26106,30169
26104,30173
26104,30170
26107,30173
26103,30175
26108,30180
26108,30182
26110,30187
26108,30182
26110,30183
26112,30185
26111,30193
26116,30192
26110,30201
26115,30198
26113,30204
26117,30209
26119,30208
26118,30213
26119,30212
26123,30222
26123,30222
26126,30227
26124,30225
26121,30216
26121,30212
26111,30191
26101,30166
26087,30140
26084,30114
26078,30101
26072,30089
26064,30077
26069,30071
26062,30068
26064,30068
26063,30065
26073,30072
26074,30083
26073,30086
26080,30095
26082,30096
26081,30102
26081,30104
26079,30100
26082,30098
26079,30101
26076,30097
26082,30094
26078,30094
26079,30092
26078,30099
26087,30106
26081,30106
26086,30116
26089,30116
26084,30115
26088,30116
26085,30115
26088,30109
26080,30112
26088,30111
26081,30111
26083,30115
26080,30108
26084,30111
26087,30111
26084,30115
26079,30111
26084,30123
26083,30124
26082,30118
26084,30119
26087,30127
26092,30129
26089,30121
26087,30130
26085,30128
26090,30137
26095,30144
26095,30140
26093,30140
26097,30148
26094,30147
26096,30150
26093,30150
26093,30150
26095,30157
26098,30152
26094,30152
26097,30163
26103,30159
26101,30159
26100,30168
26099,30165
26102,30168
26106,30175
26107,30179
26107,30181
26105,30182
26106,30182
26109,30183
26107,30185
26106,30185
26106,30190
26107,30189
26109,30194
26109,30201
26115,30198
26111,30200
26118,30209
26117,30208
26115,30209
26123,30210
26118,30214
26118,30222
26120,30225
26125,30224
26113,30221
26121,30223
26111,30212
26112,30186
26095,30159
26087,30141
26080,30117
26070,30097
26065,30083
26061,30067
26055,30055
26057,30059
26052,30051
26051,30053
26061,30065
26062,30074
26068,30078
26067,30087
26067,30087
26067,30089
26069,30087
26073,30089
26069,30086
26074,30083
26071,30080
26070,30082
26068,30082
26070,30083
26067,30086
26072,30088
26071,30088
26072,30098
26071,30095
26072,30098
26072,30098
26073,30097
26073,30097
26073,30092
26076,30091
26067,30090
26073,30087
26074,30084
26074,30087
26069,30089
26072,30091
26072,30089
26074,30097
26073,30094
26076,30096
26076,30100
26076,30102
26076,30102
26075,30109
26075,30109
26078,30112
26081,30113
26075,30108
26076,30117
26077,30121
26081,30119
26079,30117
26080,30118
26081,30123
26082,30120
26085,30122
26087,30128
26087,30131
26086,30131
26086,30130
26086,30134
26082,30134
26085,30138
26084,30136
26082,30137
26082,30139
26081,30146
26091,30153
26090,30142
26087,30147
26088,30149
26091,30149
26092,30150
26090,30156
26092,30155
26092,30160
26090,30162
26096,30168
26100,30165
26095,30168
26095,30170
26094,30172
26094,30175
26104,30175
26094,30168
26093,30152
26082,30131
26072,30106
26065,30087
26056,30069
26053,30051
26045,30038
26042,30026
26040,30027
26041,30024
26042,30030
26045,30034
26047,30039
26049,30039
26049,30049
26056,30051
26054,30053
26055,30056
26051,30054
26055,30054
26058,30054
26055,30054
26052,30048
26051,30054
26053,30049
26054,30054
26056,30058
26056,30062
26056,30069
26065,30065
26059,30073
26063,30072
26062,30072
26061,30073
26064,30065
26062,30068
26059,30066
26058,30059
26058,30061
26059,30062
26060,30064
26060,30068
26058,30074
26065,30065
26053,30071
26062,30076
26060,30076
26057,30079
26065,30085
26065,30086
26067,30082
26063,30083
26066,30090
26066,30087
26065,30090
26072,30088
26065,30093
26071,30101
26068,30100
26065,30097
26068,30108
26071,30104
26072,30107
26064,30106
26073,30109
26067,30108
26076,30121
26073,30114
26079,30117
26076,30121
26076,30126
26079,30123
26079,30126
26083,30134
26079,30131
26084,30134
26081,30140
26085,30134
26079,30141
26084,30140
26088,30144
26086,30150
26086,30152
26088,30155
26094,30159
26091,30166
26095,30169
26093,30171
26093,30171
26094,30168
26091,30164
26085,30142
26077,30125
26062,30099
26056,30078
26049,30058
26042,30040
26041,30029
26034,30019
26031,30014
26034,30020
26039,30023
26041,30022
26049,30033
26044,30039
26042,30041
26047,30043
26053,30048
26052,30051
26053,30049
26050,30046
26048,30045
26040,30042
26046,30037
26049,30047
26045,30042
26050,30050
26049,30053
26056,30062
26054,30063
26053,30063
26057,30064
26061,30067
26061,30067
26060,30063
26058,30069
26060,30066
26057,30065
26056,30066
26056,30066
26055,30064
26055,30063
26057,30066
26059,30068
26058,30073
26062,30074
26059,30073
26065,30082
26062,30078
26064,30080
26063,30078
26066,30089
26069,30084
26066,30090
26062,30089
26068,30095
26067,30097
26064,30094
26068,30105
26066,30098
26069,30105
26067,30103
26068,30107
26070,30112
26074,30108
26073,30111
26073,30112
26072,30114
26073,30112
26075,30118
26073,30123
26076,30125
26076,30124
26075,30123
26080,30129
26081,30132
26079,30139
26075,30135
26079,30144
26083,30141
26082,30146
26086,30154
26086,30148
26086,30151
26085,30152
26087,30151
26081,30147
26091,30157
26081,30156
26092,30161
26088,30167
26088,30164
26089,30163
26087,30171
26083,30163
26085,30166
26086,30152
26077,30139
26067,30118
26058,30093
26050,30064
26043,30046
26031,30024
26034,30019
26025,30012
26031,30007
26033,30011
26030,30013
26035,30025
26036,30023
26041,30038
26043,30040
26043,30042
26045,30049
26044,30040
26045,30041
26045,30048
26045,30040
26047,30035
26039,30038
26045,30036
26042,30038
26041,30038
26048,30045
26049,30055
26051,30054
26057,30061
26050,30063
26049,30063
26048,30061
26049,30065
26056,30058
26057,30067
26061,30069
26061,30074
26062,30079
26062,30079
26061,30086
26064,30088
26065,30091
26067,30092
26068,30100
26071,30100
26068,30105
26070,30103
26069,30106
26068,30113
26072,30115
26075,30116
26073,30121
26077,30117
26075,30121
26078,30121
26079,30126
26082,30127
26077,30126
26076,30136
26074,30133
26082,30139
26077,30139
26083,30142
26079,30139
26083,30150
26079,30150
26086,30154
26083,30161
26088,30157
26090,30158
26091,30162
26091,30165
26090,30172
26092,30171
26091,30176
26099,30176
26094,30184
26098,30187
26106,30192
26103,30194
26093,30198
26106,30205
26105,30209
26103,30209
26104,30216
26113,30217
26115,30224
26118,30233
26124,30236
26117,30242
26116,30233
26116,30226
26105,30216
26103,30195
26091,30169
26086,30152
26082,30135
26072,30126
26066,30111
26072,30105
26070,30100
26070,30102
26069,30105
26078,30116
26077,30115
26082,30132
26084,30133
26086,30141
26084,30142
26090,30144
26091,30145
26090,30142
26093,30151
26087,30149
26090,30154
26091,30158
26095,30170
26099,30172
26103,30181
26107,30189
26109,30194
26108,30203
26109,30195
26112,30199
26112,30200
26115,30197
26110,30200
26110,30197
26113,30204
26108,30206
26113,30200
26114,30208
26112,30209
26115,30211
26118,30217
26118,30222
26120,30229
26125,30232
26122,30235
26129,30242
26129,30240
26133,30253
26132,30257
26131,30259
26139,30262
26140,30265
26134,30264
26142,30274
26144,30277
26142,30284
26147,30285
26144,30295
26150,30301
26154,30304
26153,30309
26155,30312
26160,30320
26155,30317
26159,30332
26161,30327
26165,30338
26167,30343
26168,30344
26173,30351
26171,30354
26179,30357
26177,30359
26181,30361
26175,30364
26181,30369
26176,30373
26178,30377
26181,30385
26184,30391
26183,30392
26183,30392
26185,30395
26187,30402
26187,30403
26186,30401
26185,30396
26177,30372
26170,30355
26163,30336
26150,30315
26144,30293
26142,30277
26143,30267
26134,30263
26133,30257
26131,30259
26132,30261
26135,30267
26146,30273
26142,30285
26145,30287
26150,30291
26149,30296
26148,30295
26153,30293
26149,30295
26152,30287
26153,30288
26152,30287
26153,30287
26146,30292
26151,30289
26152,30299
26154,30301
26158,30304
26163,30310
26156,30307
26159,30311
26153,30307
26158,30310
26155,30308
26160,30299
26156,30308
26155,30304
26154,30301
26158,30306
26157,30306
26151,30307
26158,30313
26161,30310
26161,30312
26162,30315
26161,30319
26161,30319
26164,30319
26162,30324
26163,30330
26167,30331
26164,30333
26165,30333
26166,30332
26169,30337
26167,30336
26167,30339
26170,30343
26165,30348
26171,30347
26176,30348
26178,30354
26171,30350
26179,30356
26172,30355
26179,30359
26175,30360
26175,30359
26177,30363
26177,30364
26175,30369
26180,30376
26176,30366
26177,30372
26177,30382
26177,30377
26177,30378
26182,30380
26184,30388
26185,30391
26185,30389
26182,30392
26192,30396
26189,30401
26186,30399
26191,30406
26196,30407
26192,30408
26194,30411
26196,30412
26190,30416
26194,30417
26189,30407
26188,30395
26173,30379
26169,30354
26159,30325
26156,30312
26147,30300
26141,30281
26143,30276
26144,30271
26143,30267
26139,30268
26142,30271
26147,30279
26147,30284
26149,30288
26154,30291
26149,30295
26147,30291
26150,30301
26154,30298
26151,30296
26146,30292
26153,30291
26152,30291
26150,30290
26156,30293
26153,30298
26153,30293
26157,30302
26154,30300
26163,30303
26158,30305
26157,30308
26160,30307
26158,30308
26153,30298
26156,30306
26152,30299
26149,30298
26151,30300
26155,30300
26156,30300
26158,30306
26157,30302
26159,30307
26161,30309
26155,30309
26157,30315
26160,30313
26162,30314
26166,30317
26162,30319
26160,30323
26168,30320
26164,30328
26161,30330
26164,30329
26164,30329
26163,30336
26168,30336
26171,30338
26168,30336
26169,30338
26160,30337
26171,30346
26175,30344
26171,30346
26170,30344
26174,30346
26172,30350
26171,30353
26173,30355
26176,30361
26176,30354
26177,30357
26173,30360
26177,30364
26178,30368
26171,30361
26178,30372
26179,30363
26176,30372
26179,30376
26179,30375
26187,30384
26180,30383
26187,30386
26182,30392
26180,30389
26189,30398
26181,30392
26178,30382
26180,30379
26176,30362
26165,30343
26159,30327
26156,30309
26147,30297
26148,30281
26135,30267
26140,30266
26136,30262
26145,30269
26142,30264
26147,30276
26145,30274
26150,30279
26144,30278
26153,30292
26146,30285
26151,30284
26149,30284
26151,30286
26147,30286
26146,30279
26149,30282
26148,30282
26146,30280
26156,30291
26148,30287
26154,30296
26150,30289
26157,30300
26157,30300
26152,30296
26154,30296
26151,30296
26149,30294
26151,30298
26152,30295
26152,30296
26155,30296
26155,30294
26154,30295
26152,30295
26158,30300
26154,30302
26159,30304
26156,30307
26157,30307
26160,30309
26164,30313
26159,30312
26161,30320
26157,30321
26164,30322
26167,30323
26157,30318
26168,30330
26169,30333
26167,30335
26171,30336
26167,30337
26166,30336
26170,30340
26167,30337
26168,30341
26175,30348
26174,30348
26175,30351
26175,30354
26175,30351
26178,30362
26172,30354
26180,30357
26179,30355
26171,30360
26182,30369
26181,30371
26179,30374
26189,30379
26183,30371
26182,30375
26188,30388
26185,30385
26184,30390
26193,30391
26186,30391
26182,30392
26191,30402
26189,30402
26183,30392
26181,30393
26178,30369
26169,30349
26161,30334
26153,30306
26150,30297
26143,30287
26147,30275
26137,30265
26143,30271
26143,30265
26140,30268
26150,30278
26147,30279
26150,30279
26148,30293
26153,30298
26156,30297
26152,30294
26157,30299
26155,30288
26153,30291
26155,30294
26149,30286
26154,30293
26154,30294
26154,30289
26166,30304
26156,30304
26164,30313
26164,30318
26157,30307
26169,30312
26158,30314
26151,30309
26161,30310
26156,30312
26158,30306
26163,30312
26157,30308
26161,30313
26161,30315
26158,30310
26165,30313
26165,30316
26165,30319
26158,30322
26165,30322
26159,30326
26166,30326
26171,30329
26165,30330
26163,30329
26162,30335
26164,30338
26173,30339
26167,30344
26174,30347
26169,30342
26175,30352
26172,30347
26177,30352
26175,30353
26174,30352
26180,30353
26175,30357
26173,30357
26179,30360
26172,30363
26177,30367
26180,30368
26176,30365
26183,30378
26177,30371
26184,30377
26177,30378
26187,30388
26181,30385
26192,30392
26187,30389
26187,30384
26191,30394
26183,30392
26190,30398
26194,30404
26188,30401
26196,30407
26186,30403
26193,30407
26195,30418
26193,30412
26193,30416
26195,30413
26190,30408
26179,30385
26180,30367
26163,30343
26165,30325
26152,30305
26148,30290
26147,30278
26144,30271
26137,30265
26143,30268
26139,30273
26143,30274
26145,30285
26146,30283
26153,30294
26152,30296
26147,30300
26154,30294
26156,30298
26151,30287
26158,30296
26154,30294
26148,30289
26152,30296
26156,30295
26153,30301
26153,30303
26161,30308
26159,30313
26156,30314
26158,30313
26162,30306
26158,30313
26153,30306
26157,30307
26154,30308
26153,30298
26157,30305
26160,30305
26151,30302
26160,30308
26155,30305
26158,30306
26155,30304
26157,30308
26155,30309
26157,30316
26158,30316
26158,30314
26161,30321
26154,30323
26161,30318
26160,30328
26158,30327
26161,30323
26169,30329
26161,30322
26167,30333
26164,30334
26164,30331
26172,30337
26169,30336
26172,30341
26165,30340
26170,30344
26170,30346
26166,30347
26167,30341
26170,30353
26170,30345
26168,30356
26171,30355
26168,30359
26176,30360
26172,30355
26175,30367
26179,30365
26174,30362
26175,30364
26178,30370
26178,30370
26177,30374
26177,30373
26182,30386
26185,30386
26180,30384
26181,30386
26183,30387
26182,30386
26181,30382
26177,30372
26168,30349
26169,30333
26155,30305
26151,30291
26140,30277
26142,30262
26137,30250
26129,30244
26133,30245
26130,30246
26137,30251
26135,30254
26140,30259
26144,30269
26139,30265
26144,30269
26144,30272
26141,30266
26148,30272
26141,30267
26145,30268
26140,30268
26144,30266
26147,30276
26143,30271
26150,30276
26147,30279
26156,30285
26146,30281
26156,30288
26146,30286
26149,30278
26154,30289
26148,30283
26145,30283
26153,30284
26143,30276
26154,30285
26148,30276
26154,30280
26150,30285
26153,30287
26153,30288
26152,30292
26152,30295
26158,30301
26158,30306
26157,30296
26164,30307
26154,30302
26162,30310
26155,30308
26156,30315
26164,30318
26156,30314
26167,30323
26164,30323
26163,30320
26175,30333
26163,30324
26172,30336
26163,30328
26168,30336
26168,30332
26169,30337
26169,30339
26171,30338
26174,30343
26172,30343
26175,30348
26171,30343
26177,30351
26169,30345
26179,30360
26175,30353
26179,30362
26178,30357
26181,30366
26186,30371
26183,30372
26177,30368
26177,30370
26189,30378
26181,30377
26187,30375
26188,30391
26185,30386
26188,30395
26185,30395
26195,30399
26189,30395
26185,30396
26193,30399
26181,30380
26175,30355
26171,30347
26154,30313
26156,30297
26137,30267
26139,30258
26125,30244
26133,30246
26126,30236
26135,30240
26133,30232
26134,30245
26132,30243
26144,30255
26138,30252
26147,30262
26140,30254
26143,30262
26144,30265
26141,30258
26135,30250
26141,30255
26136,30251
26142,30257
26141,30252
26143,30258
26143,30260
26146,30265
26137,30261
26145,30270
26150,30272
26146,30273
26142,30269
26146,30271
26143,30259
26146,30269
26146,30267
26144,30265
26142,30259
26142,30263
26140,30261
26142,30263
26141,30262
26144,30266
26143,30269
26144,30274
26144,30271
26145,30273
26148,30277
26148,30278
26146,30276
26150,30282
26148,30285
26149,30284
26146,30285
26152,30289
26150,30294
26153,30291
26157,30294
26154,30298
26149,30297
26151,30290
26153,30302
26149,30294
26148,30293
26152,30296
26149,30298
26150,30305
26146,30296
26159,30303
26153,30309
26151,30300
26150,30305
26156,30314
26155,30313
26157,30316
26156,30312
26155,30316
26161,30325
26162,30327
26167,30330
26159,30332
26161,30330
26160,30330
26157,30330
26162,30333
26160,30335
26165,30343
26165,30348
26160,30351
26164,30347
26170,30348
26166,30355
26169,30346
26165,30352
26169,30346
26152,30315
26152,30300
26140,30273
26128,30251
26122,30229
26120,30215
26115,30198
26112,30196
26109,30182
26117,30197
26111,30184
26117,30205
26115,30191
26113,30194
26114,30202
26119,30207
26122,30203
26123,30199
26115,30198
26115,30203
26112,30196
26113,30197
26112,30196
26121,30197
26112,30196
26113,30199
26125,30203
26129,30210
26125,30212
26130,30218
26129,30224
26129,30220
26129,30221
26131,30221
26136,30227
26133,30219
26130,30217
26133,30219
26130,30212
26127,30212
26131,30219
26131,30219
26132,30221
26136,30227
26136,30225
26142,30240
26144,30241
26140,30234
26139,30236
26132,30235
26140,30236
26142,30244
26145,30247
26144,30252
26145,30250
26143,30251
26148,30257
26143,30254
26145,30255
26145,30253
26145,30261
26145,30261
26145,30266
26152,30270
26152,30275
26151,30275
26152,30276
26157,30280
26155,30278
26156,30282
26157,30290
26156,30290
26161,30298
26164,30301
26163,30302
26162,30303
26167,30304
26166,30309
26167,30309
26166,30307
26171,30317
26170,30318
26171,30319
26169,30321
26172,30323
26172,30327
26176,30335
26175,30333
26174,30338
26174,30338
26179,30342
26178,30345
26173,30339
26174,30337
26170,30333
26167,30307
26150,30278
26143,30258
26133,30229
26123,30210
26118,30198
26115,30182
26116,30173
26113,30168
26119,30172
26114,30169
26117,30174
26113,30178
26123,30191
26124,30194
26121,30199
26129,30206
26131,30205
26131,30204
26127,30204
26131,30209
26127,30198
26125,30199
26127,30196
26126,30199
26128,30202
26134,30208
26134,30209
26132,30215
26134,30219
26136,30219
26138,30219
26138,30221
26139,30220
26135,30214
26126,30211
26131,30218
26140,30217
26139,30217
26133,30219
26137,30222
26134,30224
26135,30222
26137,30223
26134,30223
26134,30225
26133,30228
26135,30233
26136,30235
26137,30237
26135,30238
26138,30240
26139,30243
26144,30251
26142,30249
26148,30255
26142,30254
26150,30262
26149,30271
26151,30277
26152,30269
26154,30272
26152,30277
26156,30278
26154,30284
26153,30282
26156,30287
26154,30284
26154,30291
26160,30290
26158,30287
26156,30288
26157,30290
26153,30288
26157,30293
26165,30305
26166,30301
26159,30300
26165,30313
26169,30311
26164,30309
26165,30314
26163,30314
26169,30323
26171,30322
26170,30320
26167,30323
26172,30332
26174,30337
26175,30340
26175,30342
26169,30342
26174,30346
26179,30347
26178,30351
26173,30347
26174,30349
26169,30329
26155,30302
26153,30282
26143,30253
26133,30226
26124,30201
26117,30189
26112,30174
26112,30171
26109,30164
26111,30164
26113,30174
26116,30172
26117,30179
26118,30184
26122,30195
26131,30205
26128,30204
26124,30199
26127,30202
26124,30203
26128,30201
26125,30202
26121,30191
26121,30195
26128,30199
26127,30202
26131,30205
26124,30203
26123,30209
26129,30215
26134,30216
26126,30211
26127,30212
26126,30211
26122,30204
26126,30206
26125,30201
26124,30201
26126,30205
26130,30209
26125,30207
26129,30208
26126,30211
26126,30211
26131,30216
26132,30217
26131,30217
26132,30218
26132,30217
26132,30223
26135,30229
26136,30230
26133,30234
26139,30233
26132,30240
26136,30236
26137,30238
26134,30243
26136,30243
26138,30246
26137,30242
26138,30246
26140,30247
26136,30249
26132,30246
26138,30249
26138,30253
26137,30254
26139,30255
26142,30257
26140,30260
26141,30263
26144,30263
26141,30265
26141,30265
26142,30272
26141,30264
26145,30273
26146,30278
26145,30276
26143,30283
26142,30278
26134,30292
26157,30294
26152,30292
26152,30295
26154,30295
26156,30303
26156,30310
26166,30315
26167,30319
26165,30321
26163,30312
26160,30305
26155,30295
26146,30271
26134,30245
26122,30219
26110,30192
26106,30176
26103,30158
26098,30148
26095,30140
26092,30136
26088,30136
26096,30140
26097,30148
26106,30153
26102,30162
26106,30170
26114,30176
26110,30174
26108,30170
26108,30169
26105,30165
26106,30164
26103,30161
26107,30176
26110,30164
26105,30163
26103,30167
26108,30177
26118,30189
26110,30190
26112,30195
26109,30193
26108,30189
26107,30185
26110,30187
26111,30181
26110,30181
26108,30185
26109,30179
26107,30178
26107,30178
26108,30186
26106,30180
26104,30187
26109,30191
26111,30193
26113,30196
26109,30195
26112,30205
26110,30202
26115,30205
26114,30203
26116,30211
26123,30215
26121,30213
26120,30217
26120,30222
26124,30222
26122,30222
26125,30222
26125,30228
26123,30226
26124,30225
26120,30231
26126,30232
26125,30235
26129,30231
26127,30237
26125,30234
26122,30235
26132,30244
26129,30244
26129,30250
26131,30254
26131,30248
26140,30262
26130,30255
26134,30259
26131,30260
26135,30264
26135,30266
26138,30268
26140,30273
26142,30273
26140,30279
26140,30281
26145,30284
26150,30294
26145,30293
26148,30295
26145,30293
26150,30291
26144,30288
26142,30281
26134,30262
26127,30238
26112,30219
26105,30189
26095,30168
26088,30147
26086,30137
26085,30129
26086,30119
26084,30121
26088,30130
26092,30136
26092,30139
26095,30147
26092,30141
26095,30156
26102,30160
26103,30164
26102,30156
26098,30163
26098,30157
26096,30153
26098,30151
26096,30155
26096,30162
26103,30162
26105,30162
26098,30168
26101,30172
26106,30177
26106,30176
26105,30172
26105,30177
26111,30173
26098,30167
26105,30173
26101,30167
26100,30166
26102,30165
26103,30170
26097,30171
26103,30178
26108,30175
26105,30177
26106,30178
26106,30180
26109,30187
26105,30191
26114,30191
26115,30192
26116,30194
26111,30194
26107,30199
26113,30200
26111,30206
26111,30202
26112,30203
26117,30210
26115,30213
26118,30211
26119,30211
26118,30218
26120,30216
26115,30217
26119,30223
26121,30222
26124,30227
26124,30228
26124,30230
26125,30236
26120,30232
26123,30236
26127,30240
26129,30247
26128,30246
26136,30246
26134,30253
26132,30254
26132,30257
26131,30259
26133,30263
26137,30271
26138,30270
26138,30273
26137,30275
26141,30279
26142,30284
26145,30278
26143,30291
26147,30287
26146,30290
26143,30295
26148,30300
26153,30294
26143,30287
26137,30270
26125,30242
26117,30214
26110,30192
26100,30167
26089,30146
26083,30132
26077,30118
26077,30119
26079,30109
26079,30112
26083,30119
26087,30120
26087,30127
26092,30136
26095,30139
26091,30142
26094,30147
26096,30148
26098,30149
26095,30151
26098,30151
26093,30143
26095,30141
26098,30144
26097,30146
26098,30145
26098,30154
26099,30157
26104,30167
26100,30170
26105,30172
26101,30163
26101,30173
26106,30162
26102,30163
26100,30159
26102,30158
26100,30159
26101,30162
26104,30160
26102,30162
26098,30167
26096,30162
26104,30170
26104,30167
26102,30172
26101,30172
26104,30179
26111,30183
26111,30187
26108,30190
26111,30191
26112,30188
26114,30191
26117,30196
26114,30194
26117,30200
26116,30201
26118,30202
26115,30209
26119,30208
26119,30208
26117,30211
26122,30213
26119,30219
26119,30220
26119,30217
26125,30224
26124,30230
26125,30230
26125,30230
26125,30241
26123,30235
26132,30239
26131,30240
26136,30245
26129,30249
26131,30252
26128,30251
26130,30253
26137,30264
26136,30265
26138,30265
26142,30268
26142,30272
26140,30274
26145,30279
26139,30283
26142,30282
26149,30288
26148,30287
26145,30287
26142,30299
26149,30296
26148,30295
26141,30287
26138,30269
26129,30247
26115,30215
26102,30183
26097,30163
26089,30140
26079,30123
26080,30115
26078,30110
26075,30104
26075,30111
26076,30113
26080,30119
26083,30122
26086,30132
26093,30138
26092,30137
26091,30140
26092,30145
26093,30142
26095,30145
26094,30144
26092,30141
26091,30137
26088,30135
26092,30134
26094,30144
26095,30150
26101,30154
26097,30155
26096,30163
26101,30157
26099,30155
26099,30163
26099,30164
26095,30157
26099,30156
26098,30159
26099,30151
26103,30162
26099,30160
26101,30153
26099,30159
26103,30167
26105,30168
26103,30171
26108,30175
26105,30179
26107,30181
26109,30184
26109,30188
26109,30193
26108,30191
26111,30193
26108,30198
26110,30195
26112,30201
26115,30196
26111,30201
26114,30201
26111,30200
26115,30198
26103,30197
26111,30202
26104,30201
26114,30207
26115,30207
26118,30206
26117,30211
26118,30209
26115,30218
26119,30213
26117,30220
26119,30224
26117,30220
26122,30224
26125,30228
26124,30228
26128,30239
26126,30240
26128,30247
26131,30243
26129,30248
26126,30251
26128,30254
26132,30261
26129,30256
26133,30261
26137,30266
26132,30259
26137,30270
26137,30267
26137,30274
26134,30277
26131,30274
26138,30278
26142,30285
26144,30288
26143,30296
26143,30297
26147,30295
26143,30291
26135,30276
26122,30250
26111,30226
26100,30189
26093,30169
26091,30138
26074,30124
26066,30112
26071,30101
26066,30095
26064,30095
26071,30103
26072,30105
26080,30107
26071,30114
26080,30125
26084,30134
26081,30129
26081,30134
26091,30137
26082,30139
26084,30137
26087,30133
26087,30131
26091,30133
26084,30129
26082,30132
26088,30133
26089,30140
26093,30138
26091,30145
26083,30142
26085,30142
26087,30143
26085,30137
26086,30133
26084,30134
26082,30133
26083,30131
26083,30129
26080,30128
26078,30130
26086,30132
26087,30133
26087,30137
26088,30139
26086,30137
26086,30143
26086,30139
26090,30145
26089,30147
26082,30144
26088,30152
26086,30151
26093,30158
26090,30155
26092,30157
26089,30161
26101,30157
26092,30167
26093,30161
26098,30167
26096,30168
26093,30170
26101,30174
26094,30172
26099,30179
26097,30177
26096,30175
26098,30179
26098,30176
26098,30182
26097,30179
26100,30184
26107,30191
26107,30192
26102,30192
26105,30194
26108,30199
26110,30200
26110,30200
26109,30208
26110,30206
26109,30215
26114,30215
26109,30220
26114,30224
26118,30229
26118,30233
26118,30231
26118,30222
26119,30224
26116,30212
26098,30189
26094,30168
26087,30140
26074,30113
26068,30099
26065,30081
26057,30064
26057,30063
26057,30060
26055,30061
26056,30065
26054,30063
26061,30076
26060,30081
26066,30084
26063,30090
26071,30096
26067,30094
26073,30099
26073,30097
26074,30092
26070,30092
26071,30092
26066,30093
26071,30093
26073,30103
26073,30109
26077,30112
26082,30114
26081,30123
26077,30116
26076,30118
26083,30117
26074,30111
26073,30109
26072,30104
26077,30108
26078,30104
26074,30108
26078,30109
26078,30109
26078,30110
26075,30112
26073,30114
26076,30119
26079,30117
26081,30129
26084,30130
26081,30131
26091,30141
26085,30133
26085,30143
26092,30144
26091,30149
26091,30152
26092,30157
26093,30159
26093,30158
26091,30157
26092,30161
26090,30163
26096,30165
26099,30168
26094,30176
26102,30177
26104,30172
26101,30176
26103,30179
26101,30182
26109,30186
26104,30187
26106,30192
26107,30197
26104,30192
26108,30203
26112,30201
26112,30210
26112,30212
26115,30213
26110,30213
26116,30226
26122,30225
26119,30230
26123,30230
26118,30235
26126,30238
26123,30242
26123,30247
26127,30252
26129,30250
26128,30242
26123,30228
26107,30200
26097,30168
26084,30142
26072,30111
26067,30095
26061,30077
26057,30058
26057,30057
26051,30051
26049,30046
26056,30051
26056,30058
26061,30069
26063,30072
26066,30078
26066,30079
26068,30085
26069,30084
26066,30088
26069,30090
26069,30088
26067,30084
26069,30087
26069,30077
26066,30085
26067,30083
26071,30089
26072,30100
26069,30094
26076,30107
26071,30098
26074,30109
26076,30105
26073,30107
26074,30101
26080,30112
26071,30098
26074,30102
26071,30096
26074,30100
26066,30096
26073,30096
26069,30096
26076,30106
26075,30109
26073,30110
26079,30113
26078,30113
26079,30117
26081,30123
26082,30121
26083,30125
26082,30129
26087,30133
26085,30132
26085,30132
26084,30138
26088,30140
26088,30135
26089,30143
26089,30144
26084,30144
26094,30152
26092,30153
26090,30153
26090,30156
26095,30157
26092,30155
26090,30158
26092,30158
26092,30167
26095,30164
26096,30167
26097,30173
26094,30173
26100,30174
26100,30184
26100,30180
26097,30175
26099,30174
26099,30182
26099,30182
26098,30183
26101,30186
26104,30188
26099,30192
26104,30199
26106,30198
26101,30202
26106,30205
26106,30210
26109,30206
26107,30204
26104,30199
26091,30175
26083,30154
26075,30123
26065,30096
26058,30077
26046,30053
26048,30032
26040,30022
26038,30009
26032,30013
26036,30009
26035,30017
26035,30023
26036,30033
26047,30028
26051,30046
26049,30039
26051,30045
26051,30051
26053,30044
26047,30045
26053,30046
26054,30041
26049,30042
26054,30047
26056,30051
26055,30055
26049,30051
26052,30058
26057,30063
26058,30064
26055,30070
26060,30069
26056,30067
26059,30065
26055,30059
26053,30064
26056,30059
26056,30056
26049,30056
26047,30055
26051,30060
26058,30060
26054,30060
26057,30066
26051,30062
26059,30069
26058,30073
26062,30077
26063,30076
26059,30079
26065,30084
26064,30094
26071,30091
26065,30094
26067,30093
26069,30099
26070,30101
26070,30101
26070,30101
26075,30111
26072,30113
26067,30108
26076,30116
26073,30112
26073,30126
26076,30127
26084,30128
26083,30132
26081,30130
26076,30132
26086,30135
26079,30131
26088,30141
26087,30143
26081,30143
26088,30143
26086,30152
26085,30145
26089,30150
26086,30145
26086,30148
26084,30154
26084,30156
26092,30160
26092,30163
26086,30163
26094,30169
26088,30169
26097,30174
26090,30169
26092,30172
26091,30167
26088,30156
26077,30136
26064,30107
26056,30080
26051,30057
26037,30035
26034,30011
26025,30001
26027,29993
26027,29991
26027,29999
26020,29987
26033,30001
26032,30006
26036,30015
26040,30018
26038,30023
26039,30029
26040,30028
26035,30021
26042,30035
26035,30020
26040,30028
26039,30028
26034,30022
26042,30028
26042,30034
26042,30031
26050,30043
26045,30039
26046,30042
26045,30043
26046,30044
26041,30040
26043,30038
26042,30038
26046,30035
26039,30029
26039,30027
26043,30032
26041,30028
26041,30032
26042,30034
26041,30035
26038,30038
26046,30043
26047,30046
26048,30050
26048,30051
26046,30054
26055,30063
26047,30063
26054,30064
26054,30070
26053,30072
26055,30074
26057,30081
26063,30080
26059,30079
26055,30084
26057,30082
26066,30087
26064,30084
26060,30090
26066,30089
26065,30094
26062,30096
26068,30100
26067,30098
26062,30101
26066,30108
26065,30102
26070,30111
26071,30116
26065,30106
26069,30113
26070,30115
26069,30124
26073,30127
26075,30131
26077,30137
26082,30141
26085,30143
26076,30138
26082,30148
26081,30140
26069,30122
26065,30106
26058,30085
26040,30049
26037,30030
26028,30009
26028,29995
26017,29987
26016,29975
26018,29974
26019,29976
26020,29978
26024,29987
26027,29988
26027,29991
26028,29997
26033,30005
26032,30009
26037,30008
26029,30006
26029,30002
26030,30004
26029,30012
26031,30006
26034,30005
26035,30007
26028,30014
26033,30018
26039,30023
26044,30028
26039,30024
26038,30032
26039,30028
26038,30031
26034,30031
26035,30021
26034,30023
26037,30022
26037,30021
26039,30021
26041,30028
26036,30026
26036,30025
26043,30030
26042,30035
26039,30036
26043,30040
26047,30041
26047,30046
26045,30047
26047,30048
26042,30049
26045,30059
26049,30057
26049,30067
26050,30064
26051,30067
26056,30070
26058,30068
26051,30073
26056,30082
26058,30076
26063,30084
26056,30079
26061,30088
26061,30094
26067,30087
26059,30092
26061,30097
26058,30090
26062,30098
26066,30100
26070,30111
26066,30109
26068,30109
26065,30112
26074,30114
26069,30118
26069,30120
26073,30122
26076,30126
26076,30132
26077,30134
26085,30140
26079,30145
26081,30144
26077,30139
26075,30121
26060,30097
26046,30074
26041,30044
26033,30024
26030,29997
26017,29980
26019,29973
26012,29969
26013,29969
26010,29959
26014,29968
26020,29972
26022,29979
26021,29984
26028,29991
26021,29998
26026,30005
26025,29992
26024,29997
26025,29987
26026,29991
26029,29993
26028,29987
26020,29988
26030,29991
26024,29993
26026,30001
26029,30004
26034,30011
26030,30022
26031,30015
26030,30016
26033,30016
26032,30014
26029,30013
26031,30014
26033,30012
26033,30008
26034,30009
26036,30010
26035,30012
26036,30015
26031,30011
26035,30020
26039,30027
26044,30027
26036,30031
26043,30034
26045,30030
26037,30044
26042,30042
26043,30035
26046,30046
26048,30054
26044,30051
26050,30061
26051,30062
26050,30059
26045,30060
26055,30066
26055,30065
26056,30073
26056,30075
26058,30081
26062,30081
26061,30081
26053,30083
26063,30086
26061,30095
26063,30097
26061,30095
26060,30100
26068,30106
26067,30105
26075,30110
26067,30108
26068,30112
26070,30119
26069,30122
26077,30119
26072,30126
26071,30128
26074,30133
26075,30137
26076,30142
26077,30148
26084,30152
26086,30155
26090,30157
26085,30161
26085,30160
26088,30155
26077,30133
26065,30106
26048,30071
26039,30043
26029,30019
26022,29999
26012,29979
26018,29972
26011,29962
26010,29962
26011,29961
26011,29964
26018,29974
26017,29981
26023,29990
26026,29989
26032,29996
26027,30000
26027,29994
26027,29994
26027,29989
26020,29984
26023,29992
26022,29986
26026,29996
26024,29993
26028,30003
26027,30002
26034,30011
26036,30015
26035,30015
26035,30019
26034,30018
26038,30018
26030,30017
26033,30010
26029,30015
26034,30015
26033,30012
26038,30016
26032,30015
26027,30018
26035,30019
26035,30022
26036,30025
26031,30021
26035,30025
26036,30030
26040,30031
26040,30036
26043,30039
26040,30037
26045,30044
26041,30044
26040,30042
26041,30046
26047,30054
26039,30055
26042,30057
26046,30063
26043,30057
26047,30069
26048,30061
26048,30077
26052,30072
26049,30079
26060,30075
26052,30076
26056,30079
26057,30083
26059,30088
26060,30092
26057,30086
26060,30089
26059,30101
26062,30099
26058,30103
26065,30105
26061,30104
26060,30102
26064,30114
26068,30109
26064,30120
26071,30116
26068,30120
26067,30125
26067,30133
26069,30126
26072,30134
26071,30136
26076,30139
26069,30145
26078,30144
26080,30152
26082,30148
26079,30157
26076,30149
26069,30128
26060,30106
26048,30085
26040,30049
26027,30020
26018,29996
26010,29975
26007,29960
26000,29957
26003,29955
25997,29952
26000,29953
26003,29960
26012,29964
26012,29976
26015,29981
26016,29984
26019,29991
26012,29990
26018,29994
26018,29990
26020,29986
26016,29984
26014,29982
26013,29986
26017,29985
26021,29997
26023,29998
26018,29996
26025,30004
26021,30002
26022,30003
26018,30000
26020,30000
26020,29995
26022,30001
26012,29993
26019,29997
26020,30001
26022,29992
26012,29994
26020,30000
26019,29997
26022,30001
26020,30003
26016,30001
26025,30008
26026,30011
26024,30012
26019,30013
26022,30015
26027,30015
26026,30021
26020,30023
26025,30023
26031,30024
26026,30024
26035,30030
26030,30034
26030,30028
26031,30037
26033,30037
26037,30041
26036,30049
26035,30046
26037,30052
26031,30048
26034,30053
26041,30049
26035,30055
26039,30064
26037,30059
26045,30063
26041,30067
26043,30071
26047,30069
26047,30076
26050,30074
26047,30074
26044,30078
26054,30088
26050,30084
26055,30096
26054,30091
26054,30103
26050,30096
26057,30108
26060,30111
26062,30113
26057,30113
26060,30113
26061,30111
26046,30089
26038,30062
26031,30037
26022,30012
26008,29986
26000,29967
26001,29955
25994,29943
25988,29930
25990,29927
25994,29941
25995,29938
25998,29943
25999,29955
26009,29956
26006,29959
25999,29963
26008,29969
26008,29967
26002,29962
26006,29966
26006,29963
26002,29965
26009,29960
26007,29962
26001,29965
26009,29967
26009,29978
26011,29975
26012,29986
26011,29985
26016,29992
26013,29983
26018,29986
26010,29980
26013,29983
26014,29983
26007,29974
26014,29982
26011,29981
26012,29982
26010,29982
26012,29992
26016,29992
26016,29993
26012,29999
26017,29996
26021,29998
26020,30004
26024,30016
26024,30010
26026,30014
26024,30017
26026,30019
26025,30023
26028,30025
26032,30027
26037,30032
26028,30036
26026,30032
26031,30042
26034,30042
26034,30038
26030,30043
26039,30053
26035,30047
26038,30056
26042,30061
26036,30053
26043,30061
26041,30062
26038,30065
26046,30074
26047,30074
26039,30075
26045,30080
26048,30080
26045,30083
26049,30091
26055,30089
26054,30093
26057,30097
26056,30100
26053,30104
26058,30115
26059,30117
26062,30121
26063,30124
26066,30130
26071,30133
26064,30136
26061,30135
26064,30127
26054,30106
26044,30079
26029,30046
26024,30019
26012,29990
26006,29971
25998,29954
25996,29941
25997,29942
25993,29937
25998,29936
26002,29949
25996,29946
26007,29961
26001,29958
26010,29964
26004,29970
26008,29967
26006,29965
26010,29973
26000,29964
26009,29961
26006,29966
26002,29960
26009,29965
26004,29965
26007,29967
26008,29974
26009,29979
26014,29982
26019,29990
26010,29987
26014,29987
26019,29993
26014,29985
26010,29986
26016,29986
26011,29984
26007,29983
26021,29989
26006,29982
26018,29988
26009,29982
26019,29993
26012,29989
26017,29991
26016,29989
26016,29997
26013,29994
26012,29998
26019,30000
26017,30000
26020,30013
26014,30004
26021,30010
26025,30020
26016,30015
26025,30013
26025,30022
26022,30020
26019,30023
26024,30025
26027,30023
26024,30023
26023,30029
26019,30021
26026,30028
26023,30030
26025,30027
26023,30030
26028,30036
26028,30032
26024,30035
26024,30038
26029,30037
26033,30046
26028,30037
26034,30053
26030,30048
26037,30059
26038,30062
26037,30064
26048,30075
26038,30077
26049,30080
26043,30083
26046,30087
26047,30096
26044,30092
26049,30097
26045,30094
26040,30077
26033,30056
26026,30031
26006,29994
26002,29973
25991,29950
25977,29931
25985,29922
25974,29908
25979,29907
25975,29902
25971,29905
25982,29909
25972,29911
25982,29917
25978,29924
25985,29923
25985,29928
25979,29917
25989,29920
25982,29912
25980,29913
25973,29906
25983,29908
25975,29902
25981,29911
25978,29918
25982,29919
25984,29921
25984,29931
25979,29930
25986,29933
25988,29933
25983,29925
25982,29930
25978,29924
25985,29927
25980,29923
25978,29917
25984,29923
25977,29922
25981,29922
25987,29930
25984,29928
25992,29937
25984,29938
25994,29940
25989,29945
25990,29944
25992,29955
25986,29948
25994,29957
25991,29958
25994,29957
26000,29962
25992,29960
26001,29964
25999,29971
26000,29967
26005,29976
25999,29972
26005,29978
26001,29975
26004,29975
26004,29982
26001,29986
26002,29988
26008,29987
26005,29987
26004,29984
26011,30001
26005,29990
26016,29995
26007,29998
26015,30002
26007,30005
26020,30011
26018,30016
26014,30012
26018,30026
26013,30020
26022,30025
26018,30031
26013,30032
26022,30040
26022,30036
26022,30033
26018,30028
26003,30009
26007,29986
25997,29963
25985,29934
25971,29913
25966,29892
25966,29881
25957,29868
25961,29868
25956,29861
25965,29874
25955,29866
25964,29877
25960,29881
25963,29884
25962,29888
25966,29894
25969,29891
25968,29892
25966,29884
25967,29884
25966,29881
25959,29876
25971,29885
25965,29875
25973,29890
25967,29895
25975,29905
25973,29904
25974,29909
25975,29918
25974,29910
25976,29914
25972,29909
25974,29905
25970,29902
25969,29911
25973,29899
25974,29905
25975,29902
25976,29907
25970,29904
25979,29911
25977,29910
25977,29908
25981,29920
25982,29923
25980,29921
25976,29919
25974,29927
25985,29925
25985,29934
25986,29931
25979,29933
25982,29943
25989,29939
25988,29943
25981,29943
25991,29946
25992,29951
25989,29952
25993,29955
25996,29959
25988,29960
25997,29963
25998,29966
25997,29974
25999,29974
25993,29968
26004,29974
25996,29977
26001,29980
26003,29985
26001,29980
26004,29986
26002,29988
26001,29991
26010,29996
26003,29993
26010,30003
26009,30000
26009,30003
26005,30005
26013,30015
26010,30014
26013,30022
26013,30017
26017,30028
26020,30031
26024,30037
26021,30034
26019,30037
26018,30031
26011,30019
26000,29990
25990,29968
25980,29935
25972,29914
25960,29893
25955,29874
25956,29867
25943,29859
25954,29860
25947,29860
25956,29864
25951,29865
25960,29874
25958,29883
25962,29879
25963,29887
25963,29882
25963,29883
25964,29881
25960,29875
25964,29877
25956,29875
25961,29875
25953,29872
25957,29881
25956,29878
25962,29888
25967,29896
25965,29894
25970,29894
25973,29902
25971,29903
25963,29900
25973,29904
25963,29890
25973,29899
25965,29892
25967,29893
25968,29893
25962,29888
25962,29896
25970,29903
25969,29896
25972,29904
25972,29909
25968,29904
25969,29912
25972,29920
25975,29914
25976,29919
25972,29911
25979,29922
25976,29924
25974,29926
25985,29931
25978,29928
25985,29934
25978,29936
25979,29937
25983,29939
25983,29944
25978,29941
25988,29950
25978,29942
25990,29945
25984,29951
25988,29954
25985,29953
25991,29963
25989,29963
25997,29968
25995,29966
25992,29972
26000,29982
25994,29978
25995,29977
26000,29989
25997,29982
26001,29988
25996,29989
26003,29997
26006,30000
26003,30002
26000,29996
26015,30010
26004,30005
26010,30009
26019,30022
26012,30019
26015,30028
26014,30033
26011,30034
26024,30038
26019,30039
26017,30035
26014,30024
26007,30005
25996,29985
25978,29951
25980,29928
25967,29902
25953,29883
25960,29878
25952,29867
25947,29859
25955,29867
25959,29871
25952,29871
25962,29879
25960,29884
25965,29883
25965,29891
25964,29892
25961,29883
25963,29885
25961,29882
25955,29878
25964,29881
25961,29876
25956,29880
25965,29886
25960,29882
25964,29890
25967,29895
25969,29909
25965,29905
25975,29908
25968,29908
25966,29908
25976,29910
25968,29909
25964,29902
25971,29900
25967,29903
25965,29903
25972,29903
25970,29907
25963,29902
25972,29907
25973,29910
25967,29913
25977,29916
25975,29921
25973,29918
25977,29926
25975,29922
25978,29930
25979,29930
25976,29932
25978,29933
25976,29938
25976,29938
25985,29939
25977,29940
25984,29942
25988,29951
25983,29949
25992,29955
25990,29960
25988,29955
25988,29960
25993,29965
25988,29959
25992,29970
25993,29969
25989,29972
25995,29977
25990,29973
25998,29983
25995,29981
25997,29985
25996,29993
25998,29986
26005,29997
26002,29992
26000,30002
26003,30001
26000,29999
26007,30002
26008,30008
26005,30011
26006,30013
26010,30014
26008,30021
26006,30021
26014,30027
26012,30030
26018,30037
26017,30044
26014,30041
26019,30042
26019,30050
26014,30043
26016,30040
26007,30021
26002,29999
25987,29972
25979,29950
25970,29929
25964,29906
25962,29896
25958,29891
25952,29883
25959,29879
25960,29886
25960,29892
25963,29900
25964,29905
25970,29906
25969,29910
25971,29911
25964,29915
25974,29915
25964,29899
25971,29911
25963,29901
25968,29911
25959,29900
25965,29902
25965,29911
25966,29910
25976,29923
25976,29923
25973,29923
25980,29928
25973,29929
25975,29925
25976,29930
25970,29923
25975,29927
25970,29921
25972,29921
25971,29919
25972,29924
25973,29926
25971,29925
25976,29931
25970,29934
25981,29935
25974,29939
25982,29938
25982,29947
25979,29943
25989,29953
25982,29952
25992,29959
25987,29959
25992,29965
25987,29960
25995,29970
25990,29969
25987,29970
25995,29975
25987,29972
25993,29977
25993,29979
25990,29973
26001,29987
26004,29990
25999,29987
26001,29994
25994,29989
26002,29997
25999,30001
26007,30006
26006,30001
26006,30005
26008,30009
26010,30010
26011,30018
26005,30016
26015,30026
26010,30029
26016,30027
26014,30035
26012,30036
26017,30042
26015,30045
26021,30048
26018,30056
26022,30058
26023,30056
26025,30067
26029,30068
26018,30063
26021,30061
26020,30055
26018,30046
26003,30012
26000,29994
25992,29976
25982,29954
25980,29946
25973,29926
25974,29932
25971,29921
25973,29920
25971,29924
25980,29934
25978,29937
25984,29944
25988,29947
25984,29947
25984,29947
25979,29949
25978,29947
25990,29941
25981,29945
25980,29941
25985,29943
25985,29937
25987,29946
25988,29947
25988,29952
25997,29964
25995,29967
25990,29962
25994,29970
25992,29970
25992,29970
25988,29967
25990,29968
25989,29966
25985,29963
25993,29968
25988,29969
25995,29963
25991,29967
25997,29972
25994,29979
25994,29980
25998,29984
25996,29978
26002,29989
25999,29992
26005,29996
26000,29997
26008,29997
26007,30006
26002,30001
26010,30011
26004,30008
26009,30011
26007,30020
26013,30015
26007,30017
26014,30022
26014,30027
26014,30024
26017,30034
26015,30025
26020,30039
26018,30042
26016,30040
26021,30043
26023,30045
26019,30047
26030,30062
26026,30056
26026,30061
26034,30067
26027,30067
26037,30072
26029,30069
26034,30085
26035,30080
26034,30083
26037,30088
26031,30090
26042,30100
26040,30094
26039,30095
26048,30107
26041,30103
26049,30113
26051,30117
26036,30113
26054,30129
26049,30128
26049,30130
26058,30135
26056,30137
26056,30138
26058,30142
26050,30134
26051,30124
26038,30101
26036,30083
26022,30052
26017,30041
26010,30013
26005,30011
25999,29992
26000,29991
26002,29990
26001,29993
26004,29998
26003,29996
26014,30008
26013,30015
26016,30017
26012,30009
26018,30021
26015,30009
26019,30015
26010,30003
26009,30007
26005,30003
26012,30001
26011,30012
26008,30006
26018,30020
26012,30020
26020,30028
26020,30034
26018,30028
26029,30038
26020,30030
26024,30039
26017,30033
26024,30030
26018,30031
26026,30034
26023,30034
26022,30031
26021,30034
26018,30033
26025,30039
26027,30048
26022,30047
26033,30049
26027,30047
26035,30057
26035,30060
26030,30057
26034,30063
26033,30063
26039,30070
26035,30069
26044,30078
26036,30068
26041,30083
26042,30078
26035,30083
26043,30079
26041,30093
26041,30088
26051,30101
26045,30094
26053,30102
26046,30100
26051,30103
26055,30112
26050,30108
26053,30117
26054,30112
26056,30115
26062,30126
26050,30120
26058,30128
26058,30132
26060,30135
26064,30142
26064,30146
26063,30146
26071,30150
26070,30157
26064,30150
26071,30159
26072,30158
26070,30162
26074,30166
26071,30165
26074,30172
26078,30175
26068,30175
26077,30180
26080,30188
26075,30189
26085,30193
26086,30200
26080,30198
26087,30203
26085,30209
26083,30204
26085,30203
26080,30191
26074,30169
26065,30148
26058,30121
26046,30105
26041,30083
26033,30069
26027,30048
26025,30048
26028,30051
26025,30046
26033,30053
26039,30062
26033,30060
26046,30071
26037,30071
26046,30080
26045,30075
26044,30074
26044,30074
26048,30077
26042,30073
26040,30072
26039,30070
26039,30066
26040,30070
26043,30075
26039,30081
26045,30084
26054,30091
26050,30086
26052,30089
26053,30096
26049,30090
26058,30093
26047,30089
26052,30091
26052,30095
26044,30087
26049,30091
26051,30096
26049,30089
26050,30092
26053,30094
26051,30099
26059,30102
26054,30102
26054,30104
26050,30098
26056,30107
26051,30108
26057,30113
26057,30114
26057,30116
26064,30121
26065,30125
26055,30125
26063,30131
26062,30136
26061,30134
26072,30146
26063,30143
26075,30148
26072,30147
26066,30152
26073,30152
26071,30152
26070,30150
26075,30158
26077,30157
26073,30161
26071,30161
26081,30164
26073,30171
26077,30175
26074,30168
26078,30174
26078,30178
26076,30175
26083,30178
26078,30182
26085,30190
26079,30188
26083,30192
26084,30186
26090,30198
26080,30196
26093,30204
26093,30206
26084,30205
26091,30213
26091,30216
26096,30216
26090,30219
26097,30224
26095,30220
26086,30206
26089,30197
26082,30174
26063,30147
26063,30131
26049,30109
26049,30092
26046,30083
26039,30074
26038,30072
26039,30074
26045,30074
26043,30086
26044,30084
26052,30093
26051,30095
26048,30099
26057,30105
26050,30097
26059,30107
26051,30102
26058,30103
26053,30096
26055,30099
26057,30099
26058,30104
26060,30113
26059,30109
26066,30119
26066,30121
26062,30125
26072,30129
26065,30123
26065,30126
26069,30125
26061,30123
26059,30125
26061,30118
26065,30123
26064,30119
26064,30120
26061,30121
26057,30120
26067,30131
26062,30125
26068,30129
26063,30124
26066,30130
26069,30138
26065,30139
26073,30144
26070,30147
26071,30144
26072,30151
26074,30153
26074,30149
26069,30159
26075,30156
26081,30160
26076,30167
26076,30165
26081,30170
26083,30173
26079,30172
26085,30180
26090,30181
26083,30179
26086,30191
26085,30189
26090,30193
26091,30198
26087,30192
26092,30199
26091,30199
26096,30201
26092,30208
26093,30206
26103,30219
26094,30218
26103,30231
26102,30222
26097,30230
26104,30232
26106,30237
26101,30234
26111,30249
26111,30244
26101,30247
26114,30254
26107,30250
26118,30261
26108,30249
26105,30246
26100,30226
26090,30201
26078,30176
26069,30149
26065,30137
26064,30121
26059,30109
26048,30098
26056,30102
26050,30095
26057,30103
26053,30106
26060,30112
26066,30117
26061,30121
26068,30126
26068,30131
26064,30124
26069,30128
26065,30131
26069,30129
26058,30127
26071,30124
26068,30122
26064,30120
26073,30132
26066,30137
26073,30140
26078,30151
26074,30150
26079,30156
26081,30156
26072,30151
26077,30157
26076,30152
26076,30150
26076,30148
26077,30148
26081,30154
26075,30154
26081,30154
26077,30153
26084,30161
26074,30161
26083,30163
26084,30167
26081,30167
26089,30169
26087,30170
26085,30176
26088,30175
26086,30185
26081,30186
26091,30187
26089,30188
26093,30191
26096,30196
26091,30191
26098,30204
26092,30195
26095,30202
26092,30203
26100,30209
26092,30206
26100,30211
26094,30211
26102,30221
26099,30217
26097,30218
26105,30228
26100,30221
26110,30233
26102,30229
26112,30237
26105,30237
26115,30248
26110,30241
26109,30246
26118,30253
26115,30247
26119,30260
26113,30254
26121,30264
26113,30260
26121,30273
26111,30271
26123,30279
26114,30277
26128,30280
26124,30282
26124,30290
26120,30281
26119,30278
26117,30259
26103,30230
26098,30211
26087,30187
26073,30162
26070,30143
26063,30133
26061,30117
26053,30113
26062,30116
26056,30115
26067,30125
26069,30127
26068,30131
26074,30143
26074,30142
26072,30144
26075,30151
26077,30150
26072,30144
26072,30140
26074,30140
26065,30135
26077,30138
26068,30135
26072,30142
26068,30140
26074,30149
26075,30154
26079,30154
26082,30158
26079,30153
26083,30161
26079,30157
26083,30162
26077,30154
26082,30157
26076,30152
26078,30157
26081,30155
26075,30148
26081,30163
26074,30160
26072,30155
26081,30168
26081,30162
26083,30166
26077,30165
26087,30167
26083,30169
26088,30177
26085,30175
26082,30179
26088,30184
26085,30178
26090,30189
26082,30180
26087,30188
26090,30185
26082,30193
26093,30194
26087,30194
26096,30195
26092,30198
26095,30202
26095,30203
26092,30202
26099,30208
26095,30210
26100,30209
26097,30211
26091,30209
26097,30213
26098,30215
26103,30223
26097,30221
26104,30225
26100,30225
26106,30232
26100,30228
26109,30239
26103,30237
26110,30243
26105,30235
26107,30240
26098,30227
26098,30218
26089,30200
26081,30185
26072,30154
26065,30134
26061,30116
26051,30104
26056,30097
26046,30081
26049,30086
26051,30091
26049,30096
26061,30101
26055,30106
26068,30113
26061,30113
26064,30118
26058,30112
26064,30116
26056,30112
26064,30115
26062,30114
26063,30114
26063,30109
26058,30114
26069,30120
26066,30124
26073,30131
26069,30131
26074,30134
26071,30136
26073,30131
26073,30134
26066,30127
26071,30125
26073,30130
26067,30124
26068,30127
26066,30124
26060,30131
26066,30126
26069,30127
26066,30124
26073,30135
26075,30134
26068,30133
26078,30136
26079,30142
26074,30142
26080,30152
26071,30145
26082,30153
26082,30158
26080,30154
26077,30155
26082,30157
26079,30159
26079,30161
26083,30164
26087,30169
26086,30172
26082,30165
26084,30171
26088,30177
26093,30175
26086,30178
26083,30181
26090,30181
26086,30189
26092,30193
26087,30185
26095,30194
26087,30197
26097,30197
26093,30197
26094,30204
26093,30211
26100,30209
26103,30214
26099,30213
26108,30225
26100,30215
26095,30204
26090,30187
26079,30170
26073,30146
26061,30124
26053,30097
26051,30086
26048,30067
26043,30062
26043,30057
26052,30066
26043,30061
26053,30073
26048,30068
26053,30076
26054,30080
26055,30082
26052,30080
26057,30082
26057,30090
26050,30073
26053,30091
26049,30076
26055,30079
26056,30077
26056,30082
26061,30086
26060,30095
26057,30094
26064,30102
26063,30100
26064,30106
26067,30106
26059,30103
26063,30108
26061,30099
26057,30102
26061,30097
26054,30095
26061,30105
26062,30098
26061,30101
26059,30104
26065,30115
26065,30105
26067,30114
26069,30113
26068,30115
26074,30122
26070,30120
26069,30123
26075,30125
26072,30130
26072,30128
26070,30133
26076,30135
26074,30138
26073,30142
26082,30142
26079,30151
26082,30145
26082,30155
26082,30152
26087,30161
26079,30150
26085,30158
26080,30157
26091,30161
26082,30161
26082,30163
26082,30170
26088,30172
26089,30177
26082,30176
26098,30179
26097,30176
26094,30183
26089,30186
26094,30186
26092,30190
26095,30190
26092,30194
26096,30198
26107,30205
26095,30205
26104,30211
26094,30206
26100,30219
26099,30214
26103,30211
26090,30193
26089,30180
26075,30147
26069,30129
26056,30095
26047,30080
26038,30058
26041,30050
26030,30040
26037,30038
26033,30035
26034,30036
26035,30046
26040,30051
26041,30051
26045,30057
26047,30058
26043,30054
26048,30059
26048,30051
26042,30052
26043,30046
26039,30042
26042,30045
26040,30039
26043,30048
26039,30050
26050,30058
26045,30060
26052,30068
26043,30067
26051,30068
26051,30070
26047,30068
26048,30063
26046,30067
26047,30059
26041,30056
26047,30065
26044,30059
26049,30063
26049,30058
26050,30061
26044,30059
26050,30064
26042,30062
26051,30070
26042,30065
26047,30071
26053,30078
26045,30072
26057,30082
26052,30075
26058,30082
26055,30078
26055,30088
26053,30083
26053,30086
26058,30092
26057,30088
26063,30091
26055,30091
26063,30101
26056,30097
26051,30097
26067,30103
26054,30097
26064,30108
26058,30104
26067,30112
26062,30105
26066,30112
26057,30110
26065,30115
26067,30122
26062,30112
26072,30123
26066,30122
26069,30126
26062,30121
26075,30139
26070,30127
26075,30144
26068,30136
26076,30146
26077,30146
26074,30144
26077,30146
26076,30153
26074,30154
26071,30140
26066,30130
26057,30103
26052,30083
26039,30053
26026,30029
26029,30016
26015,29995
26018,29996
26008,29978
26013,29987
26016,29986
26020,29993
26025,30001
26020,29999
26028,30003
26028,30009
26026,30011
26029,30007
26024,30004
26032,30005
26019,29995
26028,30004
26022,29994
26022,29995
26024,29999
26020,29999
26030,30016
26025,30017
26036,30024
26034,30018
26036,30023
26029,30019
26036,30025
26033,30017
26035,30020
26032,30019
26030,30019
26034,30021
26030,30014
26028,30018
26037,30025
26027,30028
26037,30031
26032,30025
26036,30033
26036,30030
26039,30036
26036,30040
26039,30037
26042,30041
26043,30048
26037,30041
26044,30051
26042,30054
26043,30051
26047,30057
26045,30054
26041,30059
26052,30062
26045,30067
26054,30071
26050,30067
26055,30074
26049,30073
26054,30078
26052,30079
26057,30084
26050,30085
26060,30090
26052,30092
26062,30098
26053,30093
26061,30093
26060,30101
26060,30099
26065,30107
26061,30105
26068,30110
26061,30111
26069,30119
26066,30117
26069,30123
26070,30128
26068,30131
26077,30139
26071,30136
26079,30139
26073,30142
26077,30152
26075,30142
26070,30135
26071,30127
26054,30098
26054,30077
26033,30042
26027,30018
26025,30005
26017,29987
26013,29977
26014,29980
26012,29973
26012,29978
26017,29980
26019,29984
26020,29991
26016,29988
26024,29997
26017,29993
26026,29995
26024,29993
26022,29992
26020,29988
26015,29984
26018,29982
26016,29985
26017,29987
26025,29995
26025,29991
26030,30003
26029,30010
26026,30008
26032,30017
26031,30014
26025,30011
26027,30014
26029,30008
26028,30010
26026,30005
26034,30012
26020,30003
26029,30011
26022,30006
26028,30013
26031,30009
26038,30021
26027,30011
26034,30019
26034,30024
26029,30019
26035,30023
26032,30023
26033,30030
26031,30023
26037,30034
26037,30033
26032,30033
26035,30034
26037,30043
26035,30035
26041,30048
26033,30044
26046,30047
26037,30050
26041,30049
26040,30052
26042,30059
26039,30055
26045,30058
26038,30057
26051,30065
26045,30062
26052,30071
26049,30068
26054,30079
26051,30075
26046,30076
26059,30087
26048,30078
26052,30087
26057,30095
26047,30089
26057,30096
26058,30091
26051,30091
26063,30101
26052,30098
26062,30103
26057,30103
26057,30103
26066,30112
26061,30118
26067,30112
26068,30123
26060,30119
26068,30123
26062,30116
26061,30113
26053,30095
26039,30067
26032,30041
26023,30014
26012,29992
26010,29975
26006,29959
26000,29948
26001,29949
26000,29946
26002,29949
26005,29956
26013,29966
26007,29962
26017,29969
26005,29970
26011,29972
26010,29971
26010,29968
26008,29970
26005,29957
26009,29964
26006,29963
26011,29966
26010,29962
26016,29974
26013,29972
26017,29983
26016,29982
26021,29993
26016,29989
26026,29990
26012,29985
26017,29986
26016,29980
26013,29978
26018,29978
26015,29979
26011,29978
26018,29988
26011,29980
26025,29991
26019,29987
26024,29996
26020,29993
26023,29996
26025,30001
26020,29999
26027,30006
26023,30003
26023,30008
26027,30007
26029,30015
26027,30012
26026,30016
26034,30023
26028,30019
26037,30022
26033,30022
26036,30026
26033,30028
26036,30032
26034,30034
26038,30039
26034,30038
26040,30043
26044,30044
26036,30043
26040,30049
26044,30049
26041,30050
26046,30054
26046,30063
26043,30057
26049,30069
26051,30074
26045,30069
26053,30077
26050,30073
26052,30080
26055,30087
26056,30085
26058,30093
26060,30092
26052,30098
26064,30108
26058,30097
26066,30112
26067,30113
26065,30114
26061,30113
26070,30122
26062,30110
26061,30110
26049,30079
26044,30059
26029,30025
26021,30008
26013,29982
26008,29966
26009,29956
25996,29939
26002,29943
26005,29941
25998,29944
26005,29957
26009,29961
26005,29962
26021,29968
26014,29965
26016,29972
26015,29978
26009,29967
26018,29966
26012,29960
26016,29960
26011,29960
26007,29956
26014,29966
26016,29978
26019,29976
26019,29985
26023,29986
26025,29999
26028,29993
26025,29990
26027,29989
26029,29993
26018,29987
26030,29992
26017,29983
26024,29991
26018,29986
26028,29985
26019,29987
26022,29990
26026,29997
26021,29992
26023,30000
26028,30002
26022,30006
26035,30012
26029,30006
26036,30017
26037,30019
26028,30014
26037,30022
26034,30017
26040,30033
26037,30026
26042,30032
26036,30034
26044,30040
26035,30036
26045,30042
26043,30046
26043,30046
26038,30044
26050,30053
26042,30053
26049,30054
26045,30053
26050,30060
26050,30059
26047,30071
26046,30066
26058,30075
26050,30076
26054,30083
26052,30080
26062,30086
26053,30088
26060,30090
26062,30095
26058,30096
26065,30095
26064,30093
26057,30096
26065,30106
26068,30105
26066,30111
26067,30113
26072,30118
26071,30122
26066,30123
26075,30132
26066,30124
26074,30130
26067,30117
26062,30100
26046,30077
26047,30048
26030,30016
26018,29987
26015,29978
26006,29954
26008,29951
26001,29947
26004,29941
26006,29946
26007,29955
26005,29958
26010,29963
26010,29967
26019,29973
26021,29977
26012,29972
26020,29979
26012,29971
26017,29971
26012,29967
26016,29968
26013,29962
26014,29975
26015,29979
26013,29972
26024,29981
26022,29989
26022,29989
26022,29999
26015,29993
26025,29994
26016,29992
26025,29989
26021,29977
26024,29983
26019,29974
26021,29985
26015,29981
26019,29979
26025,29987
26014,29987
26027,29997
26018,29992
26024,29999
26026,30000
26027,30003
26024,29999
26026,30008
26025,30001
26034,30009
26027,30009
26034,30011
26033,30018
26027,30013
26034,30029
26035,30023
26036,30027
26033,30028
26041,30037
26035,30031
26032,30036
26039,30042
26039,30041
26040,30044
26043,30044
26041,30043
26047,30053
26046,30048
26050,30055
26050,30063
26048,30061
26049,30062
26044,30058
26057,30070
26050,30069
26055,30075
26051,30074
26057,30082
26055,30079
26056,30084
26058,30090
26067,30095
26059,30094
26069,30109
26065,30109
26074,30111
26065,30109
26074,30120
26065,30105
26059,30095
26054,30073
26039,30045
26035,30022
26022,29994
26010,29969
26011,29959
25994,29939
26000,29937
25995,29930
26003,29938
26003,29935
26007,29946
26006,29954
26012,29963
26010,29956
26017,29970
26018,29969
26016,29970
26011,29964
26018,29965
26011,29958
26015,29962
26011,29957
26007,29957
26015,29972
26014,29966
26017,29977
26021,29980
26019,29985
26025,29992
26019,29984
26023,29989
26025,29989
26023,29988
26016,29981
26025,29986
26020,29979
26020,29980
26012,29973
26018,29979
26015,29979
26022,29986
26013,29989
26023,29991
26027,30001
26026,29993
26029,30003
26025,30000
26030,30005
26034,30011
26028,30009
26029,30012
26032,30016
26032,30016
26039,30019
26037,30025
26033,30023
26037,30028
26033,30026
26041,30037
26035,30034
26046,30043
26043,30040
26040,30043
26047,30051
26038,30043
26046,30051
26042,30051
26048,30060
26045,30061
26050,30064
26046,30064
26054,30073
26046,30070
26054,30077
26052,30076
26061,30082
26063,30089
26052,30085
26062,30089
26060,30094
26066,30100
26062,30102
26067,30106
26062,30109
26070,30115
26064,30114
26070,30123
26067,30124
26075,30134
26070,30130
26077,30133
26075,30141
26075,30137
26073,30127
26067,30110
26057,30086
26038,30047
26034,30025
26021,29994
26007,29966
26014,29960
26005,29945
25999,29943
26004,29941
26002,29939
26010,29954
26005,29951
26009,29955
26010,29966
26018,29972
26016,29967
26021,29976
26014,29973
26014,29970
26018,29971
26014,29959
26018,29959
26017,29966
26014,29962
26013,29967
26022,29973
26017,29973
26027,29988
26024,29988
26020,29982
26028,29992
26018,29988
26028,29995
26022,29982
26031,29991
26018,29979
26021,29986
26018,29979
26017,29979
26023,29988
26020,29982
26028,29987
26014,29982
26026,29991
26020,29989
26021,29996
26026,29995
26024,29999
26030,30001
26028,30003
26033,30005
26027,30005
26031,30010
26036,30014
26030,30007
26036,30024
26036,30012
26035,30021
26037,30023
26032,30023
26036,30025
26043,30034
26037,30026
26044,30033
26037,30035
26045,30039
26039,30034
26046,30044
26045,30041
26044,30043
26050,30052
26045,30054
26048,30050
26048,30054
26048,30056
26044,30058
26052,30066
26047,30064
26050,30066
26047,30063
26055,30073
26052,30068
26060,30078
26058,30082
26052,30077
26061,30085
26056,30084
26064,30093
26056,30093
26068,30101
26057,30096
26063,30106
26063,30101
26058,30084
26050,30069
26043,30052
26027,30014
26018,29987
26006,29961
25997,29942
25999,29931
25989,29911
25994,29913
25991,29907
25990,29904
25995,29918
25997,29922
25995,29927
25999,29933
26002,29940
26000,29937
26005,29943
26004,29938
26004,29940
25997,29933
26002,29930
26000,29926
25997,29930
25999,29931
26000,29930
26007,29941
26007,29945
26008,29946
26011,29952
26009,29958
26006,29955
26010,29960
26008,29948
26002,29946
26011,29952
26002,29950
26001,29945
26008,29952
26004,29945
26006,29944
26007,29953
26004,29947
26010,29956
26005,29951
26008,29950
26015,29960
26011,29965
26007,29963
26019,29972
26010,29974
26019,29977
26018,29973
26013,29977
26023,29980
26024,29985
26022,29985
26020,29993
26026,29994
26024,29992
26027,30000
26023,29992
26030,29999
26028,30003
26028,30003
26033,30012
26029,30004
26036,30013
26034,30012
26033,30019
26035,30024
26031,30021
26039,30027
26033,30020
26044,30037
26035,30035
26045,30041
26039,30040
26042,30035
26048,30051
26044,30052
26045,30053
26052,30062
26052,30063
26047,30068
26051,30066
26055,30076
26053,30075
26063,30084
26059,30080
26063,30088
26066,30091
26053,30075
26055,30065
26041,30037
26034,30009
26022,29985
26011,29958
26008,29936
25996,29919
25999,29909
25991,29909
25995,29907
25994,29906
26003,29922
25999,29920
25999,29922
26007,29932
26006,29937
26006,29935
26009,29938
26009,29930
26009,29933
26006,29928
26004,29928
26000,29924
26005,29929
26005,29931
26006,29936
26007,29942
26011,29942
26013,29955
26016,29955
26012,29949
26022,29962
26015,29955
26015,29956
26018,29962
26013,29949
26019,29955
26013,29954
26010,29950
26014,29952
26016,29955
26020,29960
26014,29957
26019,29964
26016,29961
26023,29974
26017,29968
26025,29983
26021,29973
26027,29984
26027,29980
26029,29989
26026,29985
26034,29998
26031,29993
26034,30004
26032,29996
26034,30005
26032,30006
26034,30007
26040,30014
26036,30013
26035,30014
26041,30025
26038,30027
26040,30020
26045,30031
26042,30030
26042,30032
26051,30040
26048,30043
26045,30036
26052,30049
26046,30049
26057,30055
26051,30050
26059,30061
26055,30060
26055,30064
26057,30065
26061,30078
26057,30075
26055,30068
26062,30083
26065,30085
26060,30083
26069,30092
26068,30095
26068,30099
26064,30102
26076,30111
26069,30112
26076,30116
26075,30117
26077,30120
26067,30109
26063,30088
26052,30062
26044,30035
26031,30005
26022,29976
26012,29958
26003,29933
26007,29932
26004,29920
25997,29912
26000,29920
25998,29923
26002,29928
26013,29937
26009,29939
26015,29954
26012,29946
26009,29942
26018,29953
26011,29949
26006,29942
26016,29944
26008,29932
26011,29937
26014,29937
26009,29933
26012,29943
26015,29951
26016,29946
26018,29958
26019,29961
26011,29957
26020,29963
26018,29953
26018,29968
26016,29956
26014,29957
26018,29960
26017,29950
26011,29947
26017,29961
26014,29953
26013,29954
26023,29963
26016,29964
26018,29959
26024,29969
26018,29968
26018,29967
26028,29977
26016,29969
26025,29979
26026,29979
26020,29983
26029,29986
26031,29983
26030,29983
26031,29992
26033,29993
26025,29988
26034,29998
26033,29996
26028,29999
26036,30002
26034,30000
26032,30002
26035,30011
26033,30005
26036,30016
26038,30017
26034,30016
26043,30022
26041,30025
26040,30017
26041,30031
26044,30032
26040,30024
26049,30038
26048,30035
26044,30036
26053,30044
26045,30046
26043,30043
26049,30057
26050,30051
26047,30052
26056,30068
26052,30064
26052,30061
26059,30073
26062,30077
26058,30073
26052,30063
26057,30065
26046,30037
26035,30013
26025,29983
26008,29953
26007,29937
25996,29917
25987,29894
25992,29896
25986,29884
25986,29879
25991,29891
25989,29886
25996,29900
26004,29908
26002,29911
25999,29913
26005,29921
25999,29911
26005,29918
26002,29907
26002,29910
26001,29911
26000,29904
25995,29904
26005,29912
26001,29913
26004,29924
26010,29930
26010,29930
26015,29938
26014,29937
26010,29935
26013,29940
26011,29938
26006,29927
26015,29935
26005,29927
26007,29930
26009,29927
26003,29920
26011,29925
26012,29936
26006,29930
26008,29935
26014,29936
26010,29940
26020,29948
26014,29940
26017,29944
26020,29957
26021,29958
26021,29954
26022,29961
26019,29962
26026,29971
26019,29968
26021,29967
26025,29976
26026,29974
26021,29967
26030,29985
26028,29982
26023,29978
26032,29986
26027,29978
26031,29989
26035,29996
26031,29992
26034,29998
26039,30005
26031,30002
26037,30009
26039,30011
26035,30010
26040,30019
26040,30018
26043,30018
26042,30021
26049,30028
26043,30026
26050,30041
26045,30037
26055,30046
26049,30048
26054,30045
26061,30058
26056,30059
26054,30056
26059,30066
26057,30059
26040,30036
26042,30016
26026,29983
26013,29954
26005,29933
26001,29913
25989,29895
25995,29890
25987,29874
25988,29873
25993,29882
25988,29873
25995,29885
25995,29896
25998,29893
26001,29906
26005,29906
26003,29903
26006,29907
25996,29903
26004,29912
26000,29902
25993,29891
26003,29901
25994,29897
26005,29911
26008,29913
26000,29909
26006,29924
26016,29929
26011,29923
26014,29929
26010,29925
26010,29929
26010,29921
26008,29918
26006,29919
26002,29919
26010,29923
26005,29920
26006,29924
26014,29922
26015,29930
26012,29927
26011,29929
26012,29934
26018,29942
26013,29939
26012,29941
26020,29947
26019,29946
26015,29945
26017,29957
26024,29955
26018,29952
26026,29967
26025,29962
26028,29969
26030,29976
26024,29964
26027,29975
26028,29978
26025,29972
26033,29987
26031,29976
26027,29982
26035,29989
26032,29988
26033,29984
26037,29999
26034,29993
26036,29998
26041,30007
26033,30000
26044,30013
26043,30012
26040,30014
26047,30019
26045,30024
26037,30018
26047,30028
26047,30030
26049,30030
26054,30037
26050,30040
26049,30039
26053,30046
26059,30058
26056,30054
26060,30067
26061,30069
26063,30065
26064,30069
26055,30050
26053,30041
26042,30009
26028,29983
26015,29948
26006,29927
25997,29905
25989,29889
25991,29882
25979,29866
25990,29878
25985,29878
25988,29876
25994,29883
26004,29893
25997,29893
26004,29910
26001,29907
26004,29913
26004,29911
26005,29904
26000,29903
26007,29905
25998,29898
26003,29902
26003,29902
26004,29913
26003,29915
26004,29915
26012,29927
26014,29934
26008,29928
26017,29939
26017,29935
26010,29930
26019,29935
26011,29925
26011,29925
26017,29935
26015,29934
26008,29924
26017,29931
26007,29929
26015,29938
26012,29933
26015,29939
26024,29944
26015,29945
26014,29947
26025,29950
26025,29954
26024,29962
26026,29963
26025,29963
26031,29976
26034,29970
26025,29973
26034,29981
26031,29982
26027,29975
26038,29984
26029,29983
26037,29994
26035,29985
26033,29988
26042,30001
26038,29996
26040,29994
26045,30014
26039,30003
26044,30005
26043,30011
26041,30006
26047,30020
26046,30018
26042,30020
26051,30027
26045,30021
26047,30031
26048,30029
26044,30031
26052,30042
26051,30039
26050,30036
26057,30047
26063,30053
26054,30045
26062,30057
26057,30055
26061,30064
26059,30064
26061,30068
26064,30070
26053,30057
26056,30047
26040,30013
26033,29998
26016,29962
26017,29941
26006,29917
25992,29892
25996,29890
25993,29883
25987,29873
25993,29881
25995,29887
25993,29897
25998,29899
26005,29904
26009,29914
25997,29911
26011,29916
26004,29913
26002,29916
26002,29912
25995,29907
26008,29906
26000,29906
26005,29908
25998,29911
26010,29924
26007,29922
26008,29932
26010,29934
26011,29938
26011,29935
26007,29929
26012,29934
26008,29931
26005,29928
26011,29932
26002,29925
26005,29925
26009,29927
26010,29925
26005,29926
26013,29936
26010,29935
26008,29930
26012,29938
26008,29942
26016,29940
26011,29939
26018,29946
26018,29951
26015,29948
26024,29959
26015,29952
26018,29956
26017,29955
26020,29962
26025,29963
26028,29967
26022,29962
26026,29972
26024,29974
26025,29970
26031,29980
26024,29971
26033,29982
26029,29984
26035,29991
26034,29990
26031,29985
26025,29992
26028,29995
26027,29992
26036,29999
26032,29999
26038,30008
26035,30007
26041,30007
26038,30016
26041,30017
26036,30013
26044,30028
26042,30024
26047,30033
26049,30035
26047,30032
26044,30040
26053,30042
26046,30032
26047,30028
26038,30007
26025,29978
26015,29960
26002,29926
25994,29909
25994,29896
25988,29879
25979,29867
25988,29870
25977,29865
25985,29875
25987,29871
25987,29878
25996,29893
25995,29896
25993,29891
26000,29906
25993,29894
25993,29898
25999,29896
25994,29897
25994,29897
25989,29883
26000,29895
25997,29893
25997,29901
26005,29912
25998,29909
26007,29922
26005,29919
26003,29921
26014,29927
26007,29925
25998,29913
26005,29923
26002,29917
25996,29911
26003,29918
26001,29912
26005,29922
26010,29926
26006,29920
26001,29918
26011,29929
26011,29925
26009,29929
26007,29931
26018,29940
26012,29937
26012,29938
26012,29946
26010,29949
26011,29950
26022,29956
26020,29961
26016,29955
26025,29965
26026,29966
26023,29965
26019,29964
26030,29971
26022,29967
26026,29977
26028,29980
26023,29974
26030,29983
26027,29982
26030,29991
26026,29987
26035,29992
26028,29993
26034,30001
26034,29995
26040,30004
26042,30010
26035,30007
26044,30018
26039,30016
26043,30024
26038,30019
26045,30030
26044,30028
26042,30028
26049,30032
26046,30037
26052,30045
26050,30045
26051,30049
26056,30056
26056,30052
26055,30052
26050,30045
26042,30028
26040,30003
26022,29965
26016,29947
26001,29921
25993,29900
25995,29888
25990,29878
25983,29873
25993,29876
25979,29871
25993,29888
25986,29884
25992,29899
25997,29895
25996,29904
26005,29903
26000,29899
26002,29903
25998,29900
25994,29897
25998,29894
25992,29892
26001,29895
26000,29895
25995,29894
26005,29904
26001,29908
26005,29917
26007,29922
26003,29921
26007,29927
26008,29925
26005,29916
26011,29925
26006,29917
26004,29915
26012,29920
26009,29920
26004,29915
26012,29922
26005,29919
26013,29928
26009,29925
26006,29927
26007,29934
26007,29933
26014,29944
26013,29939
26013,29937
26009,29938
26012,29941
26018,29946
26012,29941
26018,29954
26022,29956
26020,29953
26019,29950
26023,29958
26018,29953
26020,29959
26027,29966
26021,29966
26023,29967
26020,29962
26025,29974
26027,29979
26024,29972
26020,29978
26027,29981
26026,29984
26031,29986
26024,29984
26033,29993
26033,29995
26028,29989
26032,29995
26034,29994
26035,29998
26035,30000
26031,30001
26036,30009
26033,30010
26033,30014
26034,30009
26039,30020
26046,30026
26045,30028
26041,30026
26042,30033
26047,30037
26047,30032
26037,30008
26026,29987
26020,29962
26005,29933
25998,29913
25994,29902
25987,29885
25983,29871
25977,29866
25981,29863
25984,29875
25984,29870
25985,29887
25993,29887
25992,29889
25994,29893
25987,29887
25996,29896
25993,29892
25993,29894
25991,29885
25987,29882
25989,29884
25988,29888
25991,29879
25988,29890
25995,29900
25998,29903
25991,29903
26001,29912
26003,29913
25996,29908
26004,29918
26001,29908
25997,29906
26001,29911
25999,29911
25998,29906
25999,29906
26006,29918
26005,29922
26006,29916
26003,29918
26000,29919
26009,29932
26008,29929
26014,29933
26016,29937
26015,29930
26011,29937
26014,29944
26009,29934
26008,29946
26020,29949
26019,29954
26013,29950
26012,29950
26023,29957
26020,29966
26019,29965
26018,29960
26021,29968
26023,29971
26020,29969
26023,29970
26030,29983
26028,29977
26027,29977
26030,29979
26028,29988
26035,29992
26029,29998
26030,29994
26029,30002
26034,29997
26032,30001
26033,30010
26034,30005
26037,30013
26045,30014
26040,30023
26046,30033
26041,30025
26052,30034
26051,30041
26048,30042
26055,30049
26048,30044
26053,30050
26054,30058
26058,30058
26052,30050
26052,30044
26043,30023
26036,30007
26028,29985
26016,29965
26013,29947
26013,29937
26004,29923
26004,29923
26005,29920
26002,29914
26007,29925
26006,29933
26014,29942
26014,29943
26018,29942
26014,29943
26014,29948
26008,29943
26014,29943
26017,29949
26016,29944
26020,29944
26012,29938
26020,29947
26022,29947
26015,29954
26027,29961
26028,29963
26033,29973
26026,29966
26026,29971
26029,29973
26029,29969
26028,29969
26023,29967
26027,29970
26029,29967
26027,29974
26029,29976
26031,29980
26034,29977
26031,29980
26036,29982
26036,29986
26038,29989
26033,29990
26041,29999
26042,30002
26041,30000
26036,29999
26042,30012
26045,30007
26047,30011
26044,30016
26044,30015
26046,30022
26047,30022
26047,30020
26045,30024
26053,30028
26055,30034
26050,30030
26057,30037
26056,30044
26056,30038
26060,30046
26054,30048
26056,30058
26059,30055
26057,30056
26062,30064
26060,30062
26064,30070
26066,30071
26067,30077
26070,30078
26072,30076
26071,30083
26069,30080
26065,30091
26075,30092
26073,30100
26078,30104
26076,30107
26083,30107
26077,30111
26082,30123
26083,30118
26079,30118
26081,30125
26082,30122
26089,30133
26089,30132
26077,30112
26079,30106
26069,30088
26059,30064
26050,30046
26037,30027
26046,30019
26041,30004
26034,29997
26029,29993
26037,30003
26040,30003
26043,30008
26039,30009
26048,30022
26050,30021
26052,30017
26050,30026
26046,30021
26043,30016
26053,30022
26047,30017
26050,30019
26045,30021
26048,30025
26041,30020
26049,30019
26041,30021
26056,30033
26053,30038
26057,30047
26057,30045
26057,30049
26061,30054
26058,30041
26056,30044
26057,30045
26057,30043
26054,30043
26061,30052
26055,30048
26059,30047
26058,30052
26060,30045
26051,30048
26059,30056
26059,30060
26061,30062
26062,30061
26063,30068
26062,30061
26060,30059
26066,30070
26068,30075
26064,30075
26063,30081
26069,30077
26069,30085
26072,30085
26069,30086
26073,30087
26070,30097
26073,30097
26070,30090
26075,30100
26075,30100
26077,30106
26083,30115
26075,30105
26078,30116
26079,30115
26085,30119
26084,30118
26083,30133
26085,30125
26088,30139
26091,30134
26088,30137
26085,30137
26084,30137
26091,30147
26081,30143
26089,30148
26094,30148
26095,30160
26094,30156
26091,30159
26095,30163
26097,30167
26095,30167
26099,30168
26095,30173
26094,30173
26099,30181
26093,30175
26097,30185
26099,30187
26098,30181
26093,30178
26097,30175
26088,30153
26079,30131
26071,30115
26060,30088
26061,30086
26055,30069
26044,30055
26049,30064
26056,30064
26053,30062
26058,30074
26058,30073
26053,30079
26060,30089
26064,30091
26064,30092
26067,30105
26066,30090
26063,30092
26066,30092
26058,30087
26066,30092
26067,30092
26065,30090
26066,30102
26074,30109
26074,30106
26071,30114
26078,30121
26074,30124
26073,30118
26072,30114
26074,30118
26065,30113
26073,30118
26075,30117
26073,30114
26072,30122
26073,30121
26074,30123
26075,30126
26072,30122
26072,30126
26079,30132
26078,30133
26073,30128
26078,30143
26080,30137
26081,30142
26081,30144
26078,30145
26078,30141
26083,30153
26086,30148
26086,30155
26087,30157
26083,30154
26082,30148
26087,30160
26093,30166
26087,30164
26082,30162
26086,30171
26088,30173
26092,30177
26087,30172
26088,30175
26093,30182
26093,30179
26088,30176
26098,30189
26090,30190
26090,30186
26100,30199
26096,30191
26097,30207
26095,30197
26096,30196
26094,30199
26101,30205
26098,30207
26099,30216
26100,30210
26104,30224
26106,30223
26107,30224
26106,30226
26111,30234
26106,30232
26103,30227
26109,30229
26103,30210
26092,30201
26086,30178
26080,30154
26071,30140
26067,30128
26061,30114
26057,30116
26065,30110
26062,30116
26066,30126
26069,30124
26064,30129
26073,30143
26075,30150
26070,30144
26076,30149
26078,30152
26075,30148
26070,30147
26071,30143
26076,30151
26074,30147
26074,30145
26072,30148
26076,30155
26079,30161
26080,30172
26081,30172
26085,30178
26086,30184
26085,30182
26081,30176
26087,30176
26085,30178
26086,30177
26085,30173
26086,30174
26081,30178
26081,30173
26078,30178
26082,30182
26090,30186
26086,30183
26082,30187
26087,30185
26090,30195
26092,30197
26090,30195
26094,30199
26090,30203
26087,30200
26091,30208
26093,30206
26093,30209
26089,30208
26089,30207
26091,30217
26096,30221
26094,30215
26091,30213
26097,30220
26101,30232
26100,30228
26095,30225
26100,30225
26100,30228
26101,30234
26095,30227
26102,30240
26100,30238
26103,30245
26103,30245
26106,30243
26101,30253
26105,30251
26102,30246
26100,30251
26112,30265
26104,30254
26113,30268
26109,30265
26114,30269
26111,30270
26107,30270
26112,30276
26108,30270
26111,30282
26120,30286
26116,30283
26110,30281
26114,30290
26120,30288
26114,30284
26114,30276
26109,30271
26104,30250
26102,30236
26088,30212
26074,30185
26075,30180
26069,30167
26064,30159
26059,30157
26072,30165
26073,30168
26064,30170
26075,30179
26081,30187
26075,30192
26087,30197
26078,30191
26079,30197
26080,30195
26077,30193
26085,30196
26079,30195
26080,30196
26079,30190
26075,30194
26086,30202
26080,30198
26082,30205
26090,30214
26085,30213
26093,30227
26089,30221
26089,30224
26089,30217
26087,30221
26088,30211
26094,30224
26092,30215
26091,30218
26090,30221
26089,30219
26092,30223
26093,30225
26090,30226
26087,30227
26095,30230
26097,30235
26097,30235
26087,30234
26095,30241
26093,30235
26091,30236
26094,30240
26098,30246
26099,30240
26103,30249
26094,30244
26098,30252
26103,30258
26101,30254
26099,30249
26097,30253
26105,30262
26098,30255
26098,30260
26098,30261
26103,30269
26101,30262
26105,30270
26106,30276
26109,30273
26105,30270
26105,30278
26107,30275
26104,30276
26114,30287
26107,30286
26113,30293
26113,30293
26113,30292
26110,30283
26110,30293
26111,30298
26116,30301
26112,30297
26114,30306
26117,30310
26112,30304
26111,30303
26116,30315
26119,30316
26117,30317
26122,30322
26119,30320
26127,30324
26121,30320
26117,30312
26106,30292
26109,30277
26087,30250
26088,30238
26076,30209
26069,30198
26072,30189
26069,30183
26070,30185
26067,30186
26067,30186
26073,30195
26073,30196
26080,30208
26081,30218
26085,30219
26088,30219
26080,30223
26077,30209
26079,30215
26078,30214
26074,30206
26077,30206
26073,30205
26078,30209
26080,30214
26085,30218
26086,30228
26084,30227
26090,30233
26093,30235
26087,30232
26089,30235
26087,30228
26085,30232
26085,30228
26083,30224
26078,30227
26087,30225
26081,30231
26086,30235
26083,30225
26088,30238
26086,30229
26089,30235
26089,30239
26087,30238
26092,30240
26090,30241
26093,30242
26090,30242
26093,30249
26089,30244
26093,30253
26095,30252
26093,30254
26094,30255
26095,30249
26094,30259
26094,30252
26090,30253
26090,30256
26097,30262
26092,30258
26091,30256
26099,30265
26095,30259
26097,30263
26099,30270
26099,30268
26098,30271
26097,30271
26094,30276
26100,30276
26102,30272
26098,30278
26098,30277
26102,30284
26106,30283
26103,30280
26098,30281
26103,30288
26108,30288
26104,30292
26108,30291
26106,30295
26110,30294
26109,30297
26104,30298
26107,30301
26114,30308
26105,30298
26113,30307
26100,30287
26096,30273
26090,30246
26077,30227
26073,30209
26070,30189
26056,30174
26060,30164
26057,30159
26055,30157
26055,30158
26055,30162
26066,30172
26065,30178
26064,30182
26063,30178
26066,30187
26066,30190
26067,30193
26069,30193
26069,30181
26070,30188
26067,30185
26066,30181
26063,30175
26070,30185
26066,30190
26072,30198
26075,30206
26073,30205
26077,30207
26074,30202
26072,30196
26073,30201
26074,30199
26072,30199
26073,30195
26073,30192
26072,30196
26068,30191
26069,30188
26070,30190
26075,30197
26075,30195
26073,30197
26075,30200
26074,30202
26076,30203
26076,30205
26072,30207
26078,30207
26077,30207
26078,30211
26081,30213
26078,30208
26081,30213
26081,30219
26083,30216
26082,30220
26087,30219
26082,30218
26088,30220
26080,30219
26081,30220
26085,30223
26080,30226
26085,30230
26087,30232
26087,30232
26085,30226
26092,30236
26085,30230
26084,30238
26087,30237
26093,30245
26095,30248
26092,30246
26087,30240
26097,30246
26093,30248
26093,30248
26096,30256
26098,30255
26098,30256
26095,30255
26097,30256
26096,30260
26101,30270
26100,30263
26102,30269
26095,30262
26103,30267
26101,30259
26094,30246
26088,30229
26081,30203
26067,30173
26053,30147
26055,30135
26047,30125
26043,30120
26042,30110
26041,30108
26042,30118
26047,30118
26052,30127
26050,30128
26058,30136
26053,30135
26056,30146
26061,30143
26058,30137
26051,30128
26054,30132
26056,30130
26050,30124
26049,30126
26056,30127
26058,30134
26059,30139
26063,30150
26063,30148
26069,30155
26070,30155
26063,30155
26067,30156
26066,30153
26068,30150
26068,30153
26064,30149
26059,30141
26063,30145
26061,30135
26055,30142
26061,30149
26060,30146
26065,30146
26063,30145
26059,30141
26069,30154
26063,30145
26062,30145
26063,30152
26065,30150
26067,30153
26064,30151
26067,30156
26070,30157
26071,30158
26067,30152
26070,30163
26071,30167
26072,30171
26069,30163
26071,30170
26078,30178
26075,30173
26080,30177
26078,30182
26075,30176
26078,30188
26079,30181
26076,30173
26087,30187
26080,30189
26084,30189
26088,30194
26084,30189
26078,30186
26090,30197
26082,30195
26088,30196
26086,30199
26089,30204
26085,30204
26082,30195
26088,30205
26091,30207
26087,30204
26090,30210
26089,30207
26088,30212
26089,30214
26088,30218
26097,30225
26091,30220
26089,30223
26099,30234
26097,30233
26094,30231
26095,30232
26102,30242
26104,30242
26103,30232
26101,30231
26091,30206
26077,30181
26072,30154
26060,30136
26051,30112
26047,30088
26038,30069
26031,30060
26031,30052
26022,30045
26033,30050
26036,30062
26038,30064
26036,30065
26035,30065
26043,30076
26036,30067
26038,30074
26041,30070
26035,30064
26042,30064
26033,30048
26035,30056
26035,30054
26034,30046
26032,30050
26036,30055
26029,30051
26041,30066
26037,30062
26041,30064
26044,30070
26047,30070
26042,30064
26040,30069
26034,30058
26045,30063
26039,30062
26043,30066
26046,30065
26039,30065
26044,30070
26040,30075
26044,30067
26044,30073
26050,30079
26047,30084
26045,30076
26044,30081
26051,30087
26048,30091
26049,30080
26053,30090
26047,30083
26050,30092
26053,30094
26053,30095
26048,30097
26057,30099
26055,30102
26053,30106
26051,30096
26048,30097
26057,30107
26055,30100
26052,30107
26059,30102
26054,30107
26054,30107
26064,30114
26055,30107
26064,30118
26057,30119
26066,30123
26060,30126
26061,30128
26067,30133
26067,30134
26061,30141
26070,30137
26069,30141
26071,30150
26076,30157
26073,30147
26076,30159
26073,30156
26076,30158
26082,30163
26078,30163
26074,30167
26085,30174
26076,30165
26081,30166
26065,30145
26065,30133
26047,30100
26046,30080
26026,30048
26029,30032
26017,30008
26015,29999
26014,29992
26008,29986
26010,29990
26011,29990
26014,30000
26019,30006
26014,30010
26029,30024
26019,30014
26026,30021
26020,30012
26027,30023
26021,30015
26021,30007
26027,30014
26020,30002
26027,30013
26023,30012
26021,30019
26033,30026
26033,30029
26031,30030
26032,30036
26031,30039
26037,30036
26031,30033
26031,30035
26027,30025
26027,30025
26026,30025
26033,30029
26028,30020
26036,30036
26029,30025
26035,30036
26034,30030
26036,30037
26036,30040
26035,30040
26034,30046
26041,30046
26033,30043
26044,30055
26038,30048
26035,30048
26036,30051
26043,30062
26039,30057
26034,30056
26049,30066
26042,30060
26042,30065
26041,30063
26043,30070
26046,30072
26045,30067
26048,30069
26051,30080
26044,30070
26048,30082
26044,30077
26050,30077
26050,30084
26051,30091
26048,30089
26055,30088
26059,30101
26059,30099
26060,30105
26065,30112
26058,30106
26061,30110
26065,30115
26063,30112
26067,30124
26061,30117
26056,30111
26058,30104
26044,30079
26042,30061
26027,30030
26022,30005
26009,29983
26013,29968
26005,29955
25998,29944
26002,29951
26000,29949
26004,29954
26007,29963
26004,29958
26011,29972
26008,29972
26018,29978
26012,29976
26021,29980
26010,29976
26021,29977
26005,29967
26017,29974
26008,29968
26016,29973
26012,29974
26020,29986
26017,29987
26025,29999
26018,29994
26031,30001
26027,29999
26020,29999
26024,30000
26016,29998
26024,29995
26013,29988
26024,29994
26024,29993
26021,29987
26020,29994
26021,29992
26025,29995
26023,29994
26024,30003
26025,30006
26023,29999
26034,30013
26027,30015
26030,30019
26031,30011
26037,30019
26035,30019
26031,30018
26040,30029
26032,30023
26037,30030
26035,30031
26044,30036
26035,30036
26044,30042
26040,30035
26042,30046
26041,30044
26043,30049
26044,30044
26049,30053
26048,30056
26047,30053
26050,30062
26050,30066
26045,30065
26056,30070
26051,30072
26052,30081
26059,30082
26055,30083
26063,30089
26061,30091
26061,30094
26061,30096
26068,30106
26064,30111
26065,30106
26071,30104
26065,30099
26054,30075
26047,30052
26035,30027
26021,30000
26016,29978
26007,29951
25997,29941
26000,29933
25992,29923
25991,29924
26000,29924
26000,29930
26005,29940
26007,29941
26013,29951
26010,29946
26013,29951
26011,29957
26008,29949
26012,29952
26012,29947
26004,29940
26020,29952
26010,29942
26010,29947
26014,29953
26016,29960
26015,29971
26026,29973
26016,29980
26032,29988
26024,29983
26024,29982
26030,29989
26020,29981
26023,29984
26023,29976
26027,29982
26023,29981
26027,29983
26022,29980
26028,29985
26024,29988
26022,29984
26025,29993
26025,29987
26029,29994
26036,30002
26034,29996
26027,30000
26037,30008
26026,29998
26034,30009
26031,30002
26037,30010
26031,30008
26040,30013
26031,30017
26042,30018
26043,30030
26039,30026
26038,30031
26042,30034
26041,30029
26045,30037
26045,30033
26042,30042
26050,30046
26046,30046
26050,30046
26051,30056
26050,30058
26052,30057
26052,30060
26054,30068
26050,30064
26058,30076
26051,30071
26063,30080
26064,30080
26057,30082
26070,30089
26057,30089
26072,30097
26065,30097
26072,30102
26069,30100
26077,30114
26071,30108
26073,30114
26069,30114
26066,30096
26060,30078
26054,30047
26035,30010
26029,29989
26016,29967
26015,29945
26002,29933
26004,29929
25998,29923
26007,29929
26001,29923
26011,29938
26009,29938
26018,29948
26014,29946
26012,29951
26018,29957
26012,29946
26019,29950
26010,29947
26014,29939
26011,29940
26007,29935
26014,29939
26005,29936
26016,29945
26016,29948
26016,29955
26021,29962
26020,29968
26022,29958
26021,29967
26020,29972
26019,29965
26015,29962
26026,29962
26017,29957
26019,29956
26021,29958
26014,29955
26023,29960
26017,29953
26024,29963
26021,29962
26024,29965
26021,29962
26020,29971
26024,29979
26022,29970
26019,29975
26026,29979
26025,29980
26029,29978
26028,29979
26026,29986
26028,29986
26027,29990
26029,29990
26029,29991
26036,29998
26033,29996
26040,30001
26032,29998
26034,30008
26034,30002
26037,30012
26036,30012
26033,30007
26042,30019
26042,30016
26037,30016
26046,30023
26039,30015
26044,30025
26046,30029
26041,30020
26042,30030
26047,30033
26043,30033
26042,30033
26049,30042
26042,30039
26045,30036
26052,30042
26048,30050
26056,30054
26053,30051
26061,30064
26055,30060
26056,30060
26058,30064
26048,30045
26041,30021
26035,30000
26020,29971
26004,29942
26001,29927
25989,29900
25988,29886
25986,29882
25980,29879
25987,29880
25991,29889
25993,29889
25995,29898
26002,29904
25998,29905
26010,29916
26001,29909
26004,29910
26005,29910
25998,29902
26000,29906
25992,29891
25996,29904
25995,29897
26000,29904
25998,29910
26007,29915
26001,29917
26013,29931
26010,29928
26008,29924
26013,29930
26007,29922
26007,29920
26010,29923
26005,29920
26000,29915
26008,29922
25999,29911
26002,29914
26003,29916
26004,29919
26011,29922
26006,29928
26014,29933
26006,29929
26014,29938
26009,29934
26013,29940
26007,29937
26017,29943
26013,29940
26015,29947
26012,29946
26019,29952
26015,29947
26019,29960
26018,29956
26021,29961
26023,29959
26027,29967
26024,29968
26017,29966
26029,29975
26026,29975
26024,29979
26024,29973
26030,29980
26021,29982
26029,29983
26030,29989
26028,29987
26026,29987
26033,29996
26032,29997
26033,29994
26032,30000
26039,30008
26031,29999
26036,30015
26037,30014
26037,30018
26043,30022
26039,30018
26044,30027
26047,30028
26047,30031
26039,30021
26034,29998
26027,29986
26018,29954
26000,29925
25996,29901
25983,29879
25976,29863
25978,29854
25971,29850
25972,29842
25977,29855
25977,29856
25980,29862
25986,29869
25981,29869
25986,29873
25982,29873
25991,29880
25989,29877
25983,29869
25989,29873
25983,29868
25978,29862
25984,29868
25983,29868
25986,29870
25986,29879
25993,29888
25990,29894
25993,29887
25999,29900
25994,29897
25993,29885
25998,29894
25999,29891
25993,29883
25987,29880
25989,29876
25993,29882
25987,29879
25987,29886
25987,29879
25992,29883
25994,29888
25992,29893
25988,29890
25991,29894
25991,29900
25989,29897
26000,29910
26003,29907
25994,29903
25998,29914
26002,29909
26000,29907
26009,29916
25995,29914
26006,29922
25998,29919
26008,29929
26001,29928
25999,29925
26011,29939
26007,29931
26000,29934
26010,29941
26009,29939
26005,29942
26013,29948
26002,29946
26015,29954
26011,29951
26010,29947
26014,29963
26020,29966
26017,29964
26011,29963
26021,29972
26017,29968
26018,29975
26023,29974
26016,29974
26025,29987
26018,29981
26029,29996
26023,29988
26027,29999
26027,30000
26023,30001
26030,30007
26026,29995
26021,29980
26016,29963
25997,29927
25992,29905
25983,29876
25967,29850
25965,29836
25955,29821
25962,29823
25957,29817
25957,29816
25968,29823
25964,29825
25972,29835
25964,29837
25978,29848
25975,29845
25970,29845
25976,29852
25974,29844
25966,29839
25968,29834
25969,29834
25968,29830
25976,29834
25968,29830
25974,29845
25968,29846
25981,29855
25978,29857
25981,29861
25983,29866
25970,29860
25982,29866
25978,29857
25976,29861
25978,29858
25972,29861
25981,29860
25977,29851
25981,29862
25977,29858
25983,29870
25979,29862
25985,29872
25984,29869
25982,29873
25979,29876
25985,29879
25989,29884
25983,29881
25983,29885
25983,29882
25988,29893
25987,29888
25995,29896
25992,29899
25992,29901
25994,29906
25992,29897
25997,29914
25994,29905
25995,29915
25996,29912
25993,29917
25997,29919
25997,29916
25997,29925
25996,29921
26004,29931
26002,29930
26008,29941
26003,29932
26008,29936
26007,29945
26003,29942
26014,29949
26007,29950
26006,29954
26010,29959
26010,29959
26006,29961
26013,29968
26009,29966
26019,29980
26018,29979
26014,29982
26022,29988
26025,29994
26021,29984
26026,29993
26023,29993
26020,29995
26021,29978
26005,29941
25992,29921
25985,29892
25968,29862
25957,29836
25957,29825
25948,29808
25955,29807
25946,29796
25946,29799
25953,29809
25957,29815
25958,29815
25969,29833
25959,29829
25963,29834
25964,29830
25957,29826
25961,29829
25964,29821
25954,29814
25962,29821
25956,29815
25953,29812
25961,29824
25958,29821
25960,29832
25968,29838
25966,29839
25970,29843
25966,29841
25967,29845
25969,29840
25961,29834
25971,29842
25964,29833
25967,29838
25963,29835
25964,29836
25961,29830
25967,29843
25963,29838
25962,29830
25968,29842
25967,29840
25973,29850
25969,29846
25971,29850
25969,29848
25975,29856
25968,29851
25978,29860
25970,29858
25975,29865
25976,29863
25979,29867
25972,29859
25977,29875
25977,29867
25983,29876
25977,29875
25982,29873
25983,29879
25978,29878
25985,29886
25981,29881
25982,29885
25986,29891
25982,29881
25985,29895
25985,29894
25982,29892
25984,29889
25979,29897
25989,29899
25984,29900
25992,29906
25991,29906
25990,29902
25996,29919
25994,29918
25990,29918
25998,29922
25991,29925
26002,29930
25998,29935
25994,29936
26005,29940
26001,29935
25993,29926
25993,29921
25983,29891
25966,29860
25967,29838
25954,29810
25940,29783
25942,29775
25932,29762
25931,29755
25930,29760
25932,29757
25935,29765
25944,29779
25938,29773
25943,29789
25946,29785
25944,29781
25945,29792
25944,29778
25949,29787
25942,29780
25939,29774
25946,29779
25939,29776
25944,29777
25946,29785
25946,29788
25946,29802
25958,29803
25954,29805
25959,29811
25952,29802
25957,29809
25953,29807
25951,29797
25957,29804
25951,29797
25952,29798
25957,29805
25952,29796
25953,29799
25959,29807
25956,29804
25955,29809
25961,29817
25958,29815
25962,29825
25963,29820
25959,29825
25969,29830
25962,29828
25966,29834
25966,29824
25967,29837
25972,29842
25964,29838
25973,29843
25967,29844
25971,29852
25972,29853
25969,29848
25975,29856
25973,29859
25970,29861
25977,29867
25976,29862
25975,29864
25983,29874
25973,29869
25984,29881
25989,29885
25982,29877
25981,29884
25987,29889
25986,29883
25990,29892
25985,29892
25993,29899
25987,29899
25989,29900
25989,29904
26000,29908
25989,29904
25997,29920
25993,29918
26003,29924
25999,29929
26003,29921
26005,29935
26010,29940
26001,29930
26005,29927
25998,29914
25985,29879
25977,29861
25962,29832
25949,29802
25950,29789
25940,29768
25936,29759
25935,29752
25938,29764
25940,29757
25939,29772
25950,29777
25945,29782
25953,29789
25956,29791
25953,29784
25954,29793
25955,29787
25945,29782
25955,29787
25949,29778
25945,29776
25950,29785
25947,29781
25951,29791
25959,29791
25958,29799
25964,29810
25961,29810
25963,29811
25966,29816
25959,29807
25962,29809
25966,29810
25965,29808
25961,29805
25955,29802
25962,29807
25961,29802
25961,29806
25968,29811
25964,29816
25962,29813
25974,29824
25974,29822
25966,29822
25970,29835
25975,29833
25972,29827
25974,29836
25976,29839
25977,29846
25974,29847
25975,29841
25977,29853
25984,29849
25976,29845
25986,29859
25980,29852
25986,29857
25988,29865
25984,29863
25984,29863
25991,29877
25990,29877
25988,29873
25996,29886
25992,29885
25991,29880
25994,29894
25993,29888
25995,29892
25999,29897
25999,29906
26002,29896
25999,29905
26004,29910
26001,29910
26000,29907
26007,29914
26006,29918
26014,29927
26011,29931
26013,29931
26013,29939
26009,29939
26015,29948
26013,29946
26016,29950
26019,29954
26015,29947
26014,29939
26010,29923
25993,29890
25989,29866
25973,29835
25966,29813
25958,29794
25951,29773
25947,29770
25953,29771
25951,29770
25950,29770
25960,29781
25956,29785
25961,29802
25961,29799
25961,29798
25969,29804
25968,29801
25962,29796
25967,29805
25963,29797
25958,29793
25964,29796
25964,29793
25966,29791
25964,29800
25972,29806
25968,29815
25968,29819
25977,29824
25975,29824
25975,29823
25980,29830
25974,29825
25973,29815
25973,29825
25979,29823
25971,29816
25974,29812
25981,29825
25971,29819
25976,29821
25979,29829
25976,29822
25981,29837
25981,29836
25978,29829
25982,29835
25983,29841
25980,29835
25991,29848
25987,29844
25982,29846
25995,29862
25990,29860
25988,29854
25993,29868
25994,29864
25997,29871
25993,29871
25992,29871
25995,29878
25996,29880
25996,29875
26004,29886
26000,29887
25997,29883
26007,29894
26004,29893
25998,29891
26010,29904
26008,29906
26007,29903
26002,29905
26014,29919
26009,29914
26009,29919
26017,29922
26009,29918
26017,29932
26017,29930
26014,29925
26014,29930
26023,29934
26020,29931
26024,29938
26025,29947
26027,29951
26028,29952
26028,29951
26026,29961
26034,29964
26030,29961
26030,29969
26029,29966
26027,29963
26027,29955
26014,29920
26005,29901
25988,29865
25983,29839
25975,29819
25964,29798
25963,29785
25954,29769
25958,29772
25958,29770
25962,29769
25962,29783
25967,29784
25963,29795
25975,29807
25970,29796
25968,29808
25972,29797
25969,29798
25975,29800
25974,29792
25963,29784
25968,29791
25970,29790
25969,29790
25970,29799
25974,29796
25975,29810
25977,29811
25978,29811
25981,29813
25979,29819
25975,29818
25973,29803
25975,29817
25972,29804
25979,29812
25976,29808
25969,29802
25980,29806
25980,29810
25976,29808
25975,29809
25980,29817
25976,29813
25982,29821
25978,29827
25980,29818
25982,29826
25986,29830
25982,29827
25982,29826
25988,29831
25980,29829
25988,29840
25988,29840
25984,29836
25993,29845
25990,29843
25990,29844
25988,29851
25993,29850
25991,29852
25994,29861
25993,29854
25993,29859
25994,29855
25997,29858
25999,29865
25999,29869
25995,29869
26002,29874
25999,29873
26000,29882
26006,29881
26001,29882
26011,29893
26012,29892
26007,29893
26004,29893
26010,29899
26006,29897
26017,29904
26011,29905
26008,29906
26018,29915
26023,29916
26017,29918
26017,29919
26026,29927
26023,29927
26022,29933
26028,29929
26018,29919
26015,29911
26000,29883
25985,29849
25972,29819
25971,29802
25964,29778
25954,29761
25960,29755
25957,29744
25953,29743
25953,29756
25957,29759
25957,29755
25965,29771
25964,29774
25964,29778
25972,29780
25968,29780
25964,29776
25970,29784
25967,29779
