38650
38665
38681
38675
38685
38672
38707
38693
38707
38684
38712
38699
38708
38692
38707
38689
38681
38688
38691
38715
38700
38727
38712
38719
38698
38722
38705
38721
38700
38690
38711
38638
38707
38704
38701
38707
38717
38694
38697
38691
38725
38707
38733
38710
38737
38720
38738
38717
38742
38715
38729
38711
38707
38719
38710
38744
38728
38745
38735
38743
38727
38752
38721
38743
38707
38743
38742
38740
38745
38756
38732
38770
38751
38755
38744
38732
38753
38743
38767
38754
38770
38753
38768
38759
38761
38762
38732
38764
38768
38782
38757
38774
38765
38784
38760
38773
38754
38771
38757
38765
38770
38794
38778
38785
38771
38794
38784
38762
38773
38754
38798
38771
38808
38787
38811
38784
38802
38784
38799
38780
38791
38772
38753
38788
38778
38809
38782
38812
38794
38791
38785
38805
38786
38801
38765
38801
38768
38759
38778
38769
38800
38780
38804
38785
38792
38776
38794
38776
38805
38784
38773
38780
38765
38794
38776
38802
38791
38799
38792
38809
38770
38791
38802
38776
38787
38802
38782
38812
38788
38811
38784
38784
38791
38775
38810
38790
38809
38790
38812
38802
38816
38792
38806
38791
38782
38803
38782
38823
38795
38821
38789
38814
38792
38811
38801
38821
38814
38805
38812
38808
38799
38833
38820
38828
38816
38838
38811
38829
38815
38811
38813
38809
38838
38818
38851
38824
38833
38815
38855
38834
38846
38834
38830
38813
38833
38829
38849
38850
38847
38845
38825
38858
38843
38856
38846
38862
38832
38860
38845
38852
38840
38817
38845
38838
38856
38838
38857
38849
38858
38842
38859
38832
38845
38836
38820
38840
38827
38837
38827
38858
38857
38824
38850
38834
38850
38829
38842
38825
38840
38824
38844
38810
38809
38817
38808
38826
38812
38836
38815
38826
38801
38822
38808
38832
38796
38808
38782
38786
38825
38790
38796
38799
38796
38815
38788
38802
38784
38776
38786
38780
38805
38789
38802
38776
38794
38771
38801
38775
38776
38776
38755
38779
38769
38786
38767
38781
38754
38792
38771
38786
38791
38751
38777
38769
38783
38784
38767
38789
38769
38789
38763
38796
38759
38766
38766
38746
38786
38774
38790
38776
38789
38777
38789
38787
38789
38773
38764
38773
38766
38790
38781
38810
38791
38807
38767
38778
38798
38813
38788
38805
38793
38813
38788
38793
38793
38780
38805
38790
38818
38792
38809
38791
38820
38799
38816
38798
38820
38797
38772
38796
38789
38825
38796
38812
38793
38806
38788
38809
38804
38813
38786
38802
38783
38772
38790
38781
38813
38785
38807
38790
38800
38789
38791
38776
38785
38781
38754
38790
38769
38788
38773
38784
38768
38792
38755
38764
38765
38749
38763
38742
38746
38731
38759
38729
38730
38729
38711
38743
38711
38735
38711
38727
38709
38716
38695
38713
38693
38707
38691
38689
38680
38659
38688
38665
38692
38668
38695
38669
38658
38655
38658
38676
38660
38643
38633
38642
38624
38651
38635
38643
38627
38635
38603
38629
38599
38615
38587
38574
38604
38579
38601
38585
38595
38575
38591
38577
38590
38559
38552
38555
38556
38563
38557
38548
38660
38543
38558
38532
38555
38527
38537
38532
38508
38548
38515
38542
38522
38536
38507
38534
38504
38527
38496
38501
38499
38480
38500
38473
38506
38477
38502
38476
38488
38467
38461
38473
38494
38466
38490
38456
38477
38452
38469
38453
38439
38449
38435
38477
38453
38460
38448
38459
38438
38467
38436
38460
38430
38434
38441
38422
38444
38424
38456
38434
38446
38423
38427
38421
38425
38424
38403
38442
38423
38447
38435
38435
38417
38437
38416
38420
38415
38410
38444
38414
38439
38413
38439
38423
38445
38422
38419
38425
38412
38438
38425
38450
38422
38446
38442
38428
38449
38443
38446
38433
38430
38438
38421
38458
38434
38461
38446
38460
38443
38456
38439
38458
38435
38448
38441
38421
38460
38443
38470
38462
38477
38460
38484
38450
38512
38469
38475
38488
38470
38483
38466
38484
38470
38495
38465
38480
38471
38458
38481
38470
38513
38479
38504
38482
38503
38488
38516
38486
38500
38488
38462
38521
38487
38511
38509
38516
38512
38513
38495
38521
38496
38526
38502
38492
38515
38510
38536
38515
38527
38501
38523
38507
38506
38512
38491
38530
38505
38538
38518
38533
38507
38533
38515
38539
38504
38509
38508
38505
38506
38522
38528
38533
38538
38523
38540
38511
38536
38519
38497
38530
38512
38545
38514
38542
38519
38537
38527
38539
38525
38515
38522
38512
38553
38526
38560
38526
38544
38529
38549
38524
38549
38540
38544
38541
38532
38540
38530
38537
38532
38560
38543
38560
38533
38570
38543
38564
38540
38549
38541
38536
38565
38542
38575
38555
38581
38556
38580
38563
38583
38568
38582
38564
38563
38588
38594
38571
38572
38558
38574
38567
38594
38582
38600
38579
38603
38581
38606
38587
38610
38593
38581
38594
38586
38607
38598
38617
38596
38627
38608
38631
38606
38607
38609
38598
38627
38603
38638
38606
38617
38618
38648
38616
38635
38619
38623
38647
38626
38657
38636
38656
38640
38660
38649
38668
38647
38646
38642
38638
38672
38647
38665
38660
38677
38652
38684
38665
38664
38650
38662
38674
38663
38680
38670
38684
38673
38685
38668
38688
38663
38697
38670
38679
38665
38644
38682
38660
38696
38669
38684
38665
38694
38663
38684
38659
38687
38661
38640
38671
38658
38670
38662
38652
38641
38667
38639
38633
38647
38635
38656
38648
38674
38656
38660
38641
38656
38641
38655
38629
38624
38652
38633
38658
38631
38653
38625
38657
38631
38625
38632
38625
38646
38616
38633
38637
38650
38632
38652
38627
38648
38622
38646
38631
38603
38630
38634
38646
38618
38648
38624
38637
38618
38635
38608
38602
38626
38592
38628
38603
38621
38614
38620
38625
38545
38601
38604
38608
38614
38592
38606
38593
38570
38593
38589
38603
38593
38598
38585
38591
38568
38583
38561
38567
38566
38537
38575
38558
38587
38557
38575
38561
38565
38555
38572
38550
38545
38526
38553
38542
38518
38561
38530
38558
38540
38554
38528
38551
38533
38526
38530
38513
38548
38524
38547
38533
38542
38525
38535
38516
38546
38523
38548
38517
38509
38516
38507
38524
38518
38534
38512
38513
38513
38533
38519
38523
38511
38538
38512
38520
38511
38501
38510
38502
38536
38502
38518
38504
38517
38507
38533
38495
38513
38487
38494
38497
38474
38510
38497
38520
38489
38498
38490
38503
38499
38506
38519
38501
38517
38493
38478
38490
38480
38510
38498
38508
38486
38502
38484
38517
38476
38499
38487
38477
38483
38483
38515
38490
38511
38485
38509
38489
38485
38492
38502
38502
38471
38482
38504
38474
38480
38474
38475
38500
38473
38511
38492
38503
38483
38501
38474
38496
38472
38468
38494
38479
38507
38490
38512
38488
38511
38490
38504
38488
38500
38517
38506
38499
38498
38498
38500
38511
38487
38529
38512
38537
38517
38534
38524
38548
38520
38547
38514
38514
38534
38519
38554
38537
38559
38541
38553
38538
38565
38549
38566
38540
38553
38561
38555
38560
38570
38562
38583
38565
38562
38570
38560
38586
38573
38577
38569
38582
38565
38594
38565
38552
38573
38571
38593
38581
38595
38572
38594
38576
38589
38557
38542
38574
38563
38570
38561
38556
38564
38545
38565
38546
38573
38550
38569
38540
38555
38531
38557
38530
38529
38533
38517
38536
38511
38532
38513
38521
38499
38530
38487
38492
38480
38471
38507
38476
38464
38475
38467
38474
38477
38457
38469
38457
38424
38456
38428
38452
38423
38440
38422
38433
38408
38429
38400
38399
38400
38393
38421
38384
38404
38391
38403
38375
38391
38354
38351
38476
38348
38370
38382
38353
38367
38371
38348
38368
38342
38365
38341
38341
38335
38318
38358
38340
38356
38338
38357
38332
38349
38332
38343
38323
38308
38345
38322
38351
38330
38353
38330
38344
38348
38350
38357
38362
38354
38357
38333
38363
38342
38359
38347
38334
38358
38347
38382
38351
38366
38364
38387
38369
38388
38363
38380
38373
38354
38378
38365
38396
38380
38393
38375
38403
38386
38387
38393
38374
38393
38378
38398
38387
38363
38399
38377
38415
38384
38412
38387
38415
38400
38427
38409
38400
38401
38407
38449
38406
38432
38414
38429
38416
38445
38425
38414
38422
38428
38441
38433
38428
38430
38440
38465
38438
38445
38457
38450
38486
38460
38483
38468
38482
38474
38493
38474
38489
38474
38471
38494
38496
38523
38503
38521
38501
38527
38501
38528
38504
38519
38530
38535
38533
38555
38542
38538
38553
38537
38549
38539
38555
38539
38571
38542
38548
38536
38525
38552
38537
38563
38553
38561
38543
38567
38544
38579
38540
38567
38545
38536
38551
38563
38564
38549
38562
38567
38588
38557
38571
38556
38583
38548
38548
38567
38554
38586
38556
38580
38555
38573
38560
38583
38553
38548
38577
38567
38586
38563
38582
38558
38582
38562
38574
38581
38584
38575
38554
38565
38566
38567
38556
38574
38558
38583
38555
38568
38550
38565
38539
38533
38554
38537
38564
38539
38555
38538
38555
38525
38543
38532
38500
38537
38512
38554
38519
38508
38522
38529
38526
38523
38515
38519
38500
38510
38494
38507
38496
38515
38488
38473
38497
38492
38500
38485
38497
38473
38498
38471
38462
38479
38458
38494
38475
38498
38478
38490
38475
38471
38489
38469
38470
38496
38475
38496
38471
38490
38469
38463
38471
38465
38500
38471
38483
38476
38491
38463
38485
38468
38452
38466
38463
38491
38475
38491
38472
38481
38465
38493
38475
38491
38471
38470
38483
38510
38476
38503
38469
38496
38477
38495
38471
38469
38484
38451
38483
38474
38490
38475
38490
38480
38498
38482
38504
38475
38483
38479
38465
38496
38481
38506
38486
38491
38482
38484
38486
38492
38476
38508
38487
38497
38477
38498
38473
38475
38470
38451
38482
38470
38507
38472
38487
38469
38502
38457
38469
38467
38446
38484
38463
38486
38467
38471
38448
38461
38461
38445
38450
38454
38447
38467
38434
38423
38436
38432
38453
38437
38443
38432
38444
38419
38440
38418
38420
38422
38408
38444
38410
38432
38404
38423
38407
38416
38405
38383
38405
38400
38393
38401
38409
38394
38399
38384
38396
38377
38392
38364
38354
38378
38363
38390
38363
38378
38365
38387
38356
38375
38362
38348
38364
38358
38377
38353
38377
38352
38368
38347
38370
38351
38352
38354
38340
38345
38355
38342
38354
38347
38350
38339
38330
38356
38336
38348
38333
38350
38335
38353
38320
38317
38336
38326
38344
38328
38356
38316
38343
38322
38337
38324
38318
38326
38337
38350
38325
38345
38322
38345
38317
38339
38325
38312
38317
38319
38333
38306
38330
38320
38332
38311
38337
38311
38318
38318
38300
38342
38319
38342
38325
38335
38320
38339
38309
38321
38315
38338
38339
38327
38312
38309
38340
38319
38343
38321
38345
38313
38338
38312
38321
38311
38303
38333
38323
38344
38330
38331
38319
38357
38319
38332
38306
38305
38326
38307
38346
38324
38342
38317
38318
38322
38342
38334
38343
38323
38342
38329
38312
38335
38328
38347
38327
38351
38331
38358
38313
38356
38330
38310
38317
38316
38350
38334
38356
38341
38356
38340
38370
38345
38362
38323
38359
38336
38350
38340
38332
38372
38351
38368
38340
38369
38344
38363
38347
38370
38348
38351
38349
38335
38371
38356
38379
38341
38373
38364
38372
38345
38341
38354
38370
38291
38363
38364
38340
38338
38328
38352
38333
38363
38350
38364
38338
38352
38335
38360
38326
38320
38334
38307
38340
38323
38344
38312
38324
38309
38336
38309
38315
38301
38291
38328
38294
38291
38283
38285
38290
38296
38277
38281
38277
38287
38259
38236
38272
38247
38270
38251
38268
38240
38264
38233
38233
38219
38210
38232
38211
38234
38212
38223
38203
38220
38196
38201
38182
38211
38180
38189
38177
38170
38171
38161
38190
38146
38183
38154
38176
38146
38178
38144
38154
38136
38132
38152
38127
38152
38130
38148
38134
38145
38112
38137
38114
38099
38138
38112
38145
38114
38115
38107
38119
38111
38120
38097
38106
38097
38078
38095
38081
38113
38095
38117
38081
38109
38085
38090
38081
38056
38103
38080
38101
38089
38098
38075
38100
38065
38066
38077
38058
38075
38062
38077
38092
38082
38060
38066
38068
38050
38089
38071
38093
38067
38098
38073
38082
38075
38090
38060
38053
38076
38070
38080
38069
38095
38071
38090
38069
38069
38062
38049
38060
38082
38059
38066
38073
38082
38084
38059
38083
38060
38058
38058
38043
38063
38060
38084
38071
38078
38057
38086
38063
38077
38062
38072
38055
38040
38068
38056
38072
38054
38064
38051
38058
38074
38051
38055
38051
38046
38047
38076
38044
38069
38050
38065
38036
38064
38034
38026
38053
38042
38065
38051
38073
38047
38057
38043
38068
38039
38032
38059
38047
38066
38048
38065
38036
38090
38051
38055
38051
38046
38047
38076
38044
38069
38050
38065
38036
38064
38034
38026
38053
38042
38065
38051
38073
38047
38057
38043
38068
38039
38032
38059
38047
38066
38048
38065
38036
38088
38074
38101
38082
38096
38082
38109
38090
38092
38089
38071
38105
38083
38109
38091
38106
38083
38107
38098
38111
38093
38086
38104
38095
38110
38108
38125
38107
38121
38110
38126
38036
38148
38115
38115
38115
38115
38115
38115
38155
38134
38134
38134
38134
38134
38134
38134
38129
38129
38129
38129
38129
38129
38129
38151
38151
38151
38151
38151
38151
38151
38106
38106
38106
38184
38154
38183
38167
38180
38161
38193
38155
38169
38162
38171
38163
38151
38190
38159
38195
38163
38193
38171
38188
38172
38188
38162
38162
38174
38171
38204
38151
38151
38106
38106
38106
38168
38190
38178
38193
38171
38174
38177
38200
38175
38198
38188
38200
38186
38197
38178
38195
38170
38163
38203
38187
38220
38194
38195
38188
38209
38189
38181
38185
38185
38208
38195
38217
38203
38198
38180
38209
38200
38194
38197
38169
38216
38201
38212
38185
38216
38200
38210
38189
38178
38203
38201
38214
38204
38224
38188
38230
38205
38206
38192
38186
38226
38199
38208
38194
38195
38207
38206
38208
38190
38234
38193
38215
38199
38211
38208
38213
38195
38215
38196
38176
38201
38188
38220
38203
38217
38206
38216
38195
38222
38193
38197
38200
38176
38223
38208
38215
38185
38199
38204
38218
38190
38191
38195
38202
38215
38201
38221
38198
38220
38194
38219
38205
38185
38217
38201
38221
38205
38227
38200
38228
38199
38227
38208
38189
38218
38211
38232
38215
38225
38208
38212
38238
38244
38211
38230
38218
38200
38218
38213
38245
38226
38222
38215
38240
38221
38232
38216
38208
38232
38221
38252
38229
38236
38231
38251
38219
38249
38220
38218
38233
38214
38242
38232
38227
38229
38259
38230
38258
38226
38237
38231
38225
38265
38232
38263
38248
38261
38241
38264
38242
38225
38259
38248
38266
38262
38282
38261
38278
38255
38250
38277
38265
38261
38278
38288
38274
38300
38280
38310
38287
38307
38292
38305
38289
38284
38314
38305
38328
38306
38323
38314
38343
38312
38310
38310
38301
38344
38315
38343
38313
38328
38318
38339
38265
38308
38344
38322
38329
38331
38344
38324
38339
38320
38352
38325
38308
38326
38317
38344
38338
38347
38324
38346
38326
38342
38318
38303
38339
38314
38344
38320
38334
38318
38339
38317
38344
38308
38334
38314
38315
38332
38332
38345
38321
38335
38316
38328
38306
38296
38335
38316
38336
38317
38331
38326
38339
38320
38310
38319
38292
38335
38318
38335
38317
38330
38318
38322
38312
38337
38321
38315
38328
38316
38343
38311
38327
38304
38294
38322
38306
38325
38306
38328
38305
38325
38309
38316
38299
38285
38319
38312
38325
38303
38319
38301
38329
38296
38318
38295
38284
38294
38311
38310
38293
38305
38296
38326
38298
38323
38302
38328
38297
38292
38300
38288
38325
38301
38322
38316
38329
38322
38326
38307
38293
38323
38311
38335
38311
38328
38315
38337
38306
38325
38327
38339
38323
38308
38314
38329
38306
38314
38318
38297
38329
38313
38321
38306
38325
38306
38334
38289
38298
38313
38282
38306
38284
38304
38296
38302
38283
38300
38270
38271
38260
38262
38254
38257
38270
38269
38260
38245
38266
38233
38253
38239
38249
38225
38243
38214
38198
38236
38204
38225
38207
38222
38197
38219
38180
38193
38185
38161
38199
38187
38188
38178
38194
38184
38161
38173
38153
38150
38139
38166
38153
38168
38143
38151
38139
38156
38134
38149
38125
38112
38135
38121
38139
38124
38142
38112
38147
38115
38100
38114
38103
38137
38108
38123
38102
38133
38124
38133
38124
38122
38110
38122
38103
38086
38111
38102
38119
38117
38128
38104
38122
38109
38103
38104
38091
38123
38105
38123
38114
38124
38104
38116
38104
38096
38121
38097
38126
38104
38115
38106
38104
38100
38120
38108
38103
38094
38083
38114
38099
38116
38091
38114
38095
38107
38093
38081
38095
38078
38102
38096
38110
38096
38097
38085
38106
38085
38087
38083
38126
38076
38090
38082
38112
38106
38088
38101
38076
38099
38080
38066
38082
38069
38096
38076
38092
38068
38098
38068
38088
38063
38066
38078
38068
38090
38075
38099
38077
38089
38065
38091
38070
38076
38080
38060
38086
38082
38086
38065
38078
38060
38083
38055
38056
38055
38047
38080
38060
38081
38054
38071
38049
38074
38064
38039
38071
38054
38072
38048
38065
38050
38075
38053
38057
38045
38062
38067
38088
38066
38061
38078
38060
38065
38061
38044
38078
38070
38088
38062
38084
38057
38083
38064
38077
38072
38048
38087
38072
38099
38073
38086
38070
38093
38061
38095
38065
38066
38077
38074
38100
38087
38085
38073
38097
38070
38089
38075
38095
38077
38067
38065
38060
38094
38072
38087
38069
38081
38064
38083
38059
38043
38087
38064
38069
38049
38079
38049
38066
38059
38053
38049
38063
38072
38047
38060
38038
38060
38044
38060
38026
38021
38037
38019
38063
38025
38046
38022
38056
38014
38019
38033
38007
38036
38020
38030
38014
38032
38007
38034
38006
38004
38020
37998
37993
38018
38005
38005
38036
38001
38019
37995
38015
37995
38018
37991
37987
38002
37994
38014
38000
38007
37992
38009
37983
37999
37989
37967
38004
37979
38004
37981
37993
37983
37994
37982
37963
37990
37968
37999
37966
37990
37975
37968
37966
37949
37973
37965
37972
37954
37978
37956
37974
37944
37933
37962
37948
37978
37970
37972
37944
37975
37950
37937
37968
37974
37943
37948
37966
37966
37944
37968
37944
37965
37945
37960
37947
37947
37963
37951
37983
37958
37980
37962
37974
37957
37946
37969
37956
37985
37956
37978
37969
37983
37965
37951
37981
37959
37994
37963
37972
37993
37971
37990
37969
37990
37967
37985
37967
37947
37983
37965
37992
37974
37983
37969
37988
37968
37960
37970
37955
37990
37973
37982
37960
37993
37958
37951
37981
37975
37962
37965
37961
37972
37964
37971
37958
37972
37954
37972
37952
37936
37972
37957
37976
37969
37980
37962
37980
37959
37938
37976
37959
37972
37967
37976
37954
37977
37957
37950
37961
37975
37938
37965
37956
37963
37961
37984
37959
37958
37965
37941
37978
37951
37985
37947
37978
37960
37955
37958
37951
37979
37960
37973
37956
37981
37952
37940
37966
37957
37978
37948
37973
37934
37942
37974
37937
37945
37939
37954
37942
37926
37957
37939
37963
37939
37968
37936
37966
37932
37922
37940
37936
37964
37924
37952
37931
37952
37916
37948
37920
37920
37945
37924
37955
37929
37946
37916
37930
37942
37935
37953
37929
37953
37928
37907
37930
37924
37952
37938
37955
37926
37943
37920
37924
37938
37925
37948
37929
37955
37921
37935
37926
37947
37926
37933
37939
37957
37953
37931
37945
37954
37936
37934
37911
37928
37917
37951
37942
37953
37926
37944
37930
37943
37935
37923
37932
37915
37957
37934
37951
37920
37941
37928
37951
37931
37906
37925
37929
37926
37913
37919
37910
37919
37914
37903
37945
37923
37936
37917
37939
37922
37938
37907
37901
37926
37906
37934
37922
37926
37908
37941
37903
37909
37925
37909
37928
37916
37917
37906
37936
37932
37911
37902
37935
37943
37905
37884
37923
37914
37932
37915
37934
37924
37931
37912
37899
37919
37908
37943
37925
37940
37914
37941
37915
37934
37917
37903
37943
37925
37947
37922
37946
37936
37924
37938
37929
37927
37907
37948
37923
37949
37933
37961
37922
37950
37920
37933
37927
37920
37956
37936
37949
37925
37950
37938
37955
37920
37924
37934
37913
37960
37930
37946
37946
37884
37937
37930
37919
37949
37952
37922
37944
37919
37941
37917
37936
37917
37913
37919
37902
37932
37907
37930
37909
37929
37899
37915
37887
37877
37895
37879
37899
37889
37896
37867
37885
37720
37893
37864
37868
37848
37847
37854
37841
37861
37823
37841
37818
37795
37826
37804
37817
37791
37822
37787
37806
37774
37768
37768
37751
37774
37758
37768
37748
37755
37732
37716
37721
37720
37723
37722
37684
37687
37681
37671
37697
37662
37689
37656
37675
37643
37669
37636
37616
37639
37632
37661
37625
37641
37610
37624
37602
37586
37617
37593
37610
37585
37597
37583
37596
37570
37563
37594
37568
37561
37566
37580
37557
37574
37545
37538
37552
37533
37567
37547
37549
37538
37558
37527
37542
37531
37501
37543
37532
37553
37521
37540
37513
37537
37509
37500
37518
37524
37513
37530
37506
37518
37530
37507
37533
37503
37522
37494
37516
37498
37479
37505
37486
37522
37502
37507
37485
37511
37483
37470
37499
37471
37512
37494
37501
37482
37493
37480
37490
37473
37479
37500
37460
37483
37468
37477
37462
37451
37478
37480
37475
37464
37471
37467
37480
37460
37450
37455
37432
37456
37449
37472
37454
37463
37444
37462
37455
37429
37467
37442
37458
37445
37448
37468
37424
37451
37437
37459
37448
37465
37451
37462
37441
37464
37440
37427
37450
37443
37465
37444
37461
37448
37455
37443
37447
37439
37418
37471
37443
37467
37438
37465
37442
37456
37460
37439
37439
37440
37438
37448
37434
37466
37446
37452
37448
37457
37442
37448
37441
37420
37455
37439
37458
37434
37453
37432
37454
37435
37429
37435
37416
37451
37437
37453
37427
37442
37440
37427
37441
37434
37441
37440
37450
37428
37440
37432
37415
37442
37420
37448
37430
37447
37416
37453
37421
37432
37433
37405
37434
37425
37437
37425
37444
37423
37451
37419
37427
37428
37409
37423
37424
37437
37411
37406
37439
37425
37441
37409
37445
37420
37425
37413
37405
37442
37430
37442
37425
37433
37428
37440
37414
37394
37419
37406
37443
37421
37429
37412
37425
37428
37424
37424
37420
37414
37402
37429
37406
37393
37403
37396
37424
37395
37419
37399
37413
37399
37377
37406
37404
37421
37412
37420
37392
37418
37389
37391
37400
37392
37413
37404
37414
37401
37404
37398
37398
37384
37391
37390
37402
37392
37418
37406
37413
37399
37421
37395
37379
37397
37398
37429
37401
37417
37401
37430
37405
37416
37405
37395
37426
37414
37423
37412
37438
37414
37423
37412
37423
37415
37421
37451
37427
37413
37441
37429
37465
37447
37465
37444
37468
37452
37456
37458
37458
37488
37477
37483
37471
37491
37471
37491
37475
37472
37500
37491
37518
37517
37530
37509
37503
37502
37494
37530
37504
37536
37520
37547
37518
37546
37526
37538
37533
37508
37545
37551
37562
37550
37552
37548
37565
37543
37536
37562
37554
37574
37555
37580
37562
37562
37586
37570
37580
37579
37595
37561
37589
37575
37560
37596
37583
37599
37583
37600
37586
37605
37581
37579
37613
37587
37614
37598
37621
37585
37605
37591
37583
37618
37604
37624
37600
37622
37605
37619
37616
37604
37619
37607
37628
37608
37630
37618
37633
37616
37608
37613
37611
37653
37629
37638
37639
37636
37631
37640
37632
37612
37655
37645
37664
37631
37666
37645
37657
37643
37653
37658
37652
37664
37682
37658
37642
37684
37662
37687
37670
37691
37674
37697
37687
37671
37678
37675
37701
37679
37701
37688
37715
37693
37712
37694
37692
37704
37700
37718
37708
37711
37721
37714
37721
37711
37743
37724
37731
37723
37745
37714
37720
37733
37717
37749
37738
37746
37738
37748
37731
37723
37744
37736
37759
37744
37762
37746
37762
37738
37731
37749
37708
37752
37748
37756
37763
37766
37746
37767
37748
37737
37770
37757
37770
37755
37768
37744
37767
37740
37731
37756
37747
37762
37749
37763
37738
37745
37744
37725
37762
37741
37755
37729
37753
37752
37727
37743
37728
37723
37722
37739
37725
37739
37717
37725
37710
37702
37739
37711
37734
37722
37723
37716
37720
37700
37686
37722
37699
37728
37705
37714
37700
37709
37697
37682
37706
37716
37698
37692
37690
37689
37712
37681
37671
37694
37686
37709
37689
37708
37681
37706
37688
37686
37681
37664
37701
37679
37705
37677
37707
37675
37699
37684
37691
37683
37660
37700
37688
37702
37707
37692
37678
37673
37684
37698
37676
37653
37678
37682
37700
37680
37699
37678
37697
37681
37690
37671
37648
37679
37665
37688
37675
37694
37664
37687
37657
37665
37679
37658
37686
37674
37642
37662
37652
37653
37629
37674
37648
37679
37645
37663
37643
37669
37640
37631
37634
37625
37662
37630
37644
37624
37644
37625
37633
37613
37632
37602
37595
37607
37596
37620
37597
37595
37595
37613
37588
37584
37580
37600
37582
37594
37574
37553
37572
37563
37586
37560
37573
37558
37564
37534
37545
37530
37508
37544
37516
37522
37502
37523
37485
37490
37487
37464
37497
37463
37466
37464
37465
37452
37461
37436
37438
37416
37410
37430
37404
37415
37399
37404
37371
37394
37354
37337
37349
37331
37354
37317
37336
37313
37318
37294
37289
37277
37258
37284
37254
37261
37260
37237
37228
37218
37240
37204
37216
37193
37157
37186
37154
37180
37153
37158
37139
37166
37124
37139
37110
37088
37108
37094
37109
37093
37096
37076
37086
37060
37076
37045
37014
37032
37051
37029
37032
37000
37028
37012
37043
37009
37023
37003
37020
36990
36994
36992
36978
37010
36988
36998
36983
36992
36978
36996
36969
36958
36979
36964
36987
36969
36974
36959
37014
36951
36980
36959
36974
36981
36964
36948
36959
36947
36973
36962
36985
36963
36984
36954
36980
36954
36938
36957
36949
36971
36943
36978
36937
36970
36955
36950
36951
36931
36965
36951
36962
36951
36970
36956
36940
36942
36945
36970
36945
36960
36935
36970
36940
36924
36935
36928
36968
36932
36946
36927
36956
36928
36929
36935
36930
36957
36934
36946
36923
36948
36929
36930
36928
36965
36944
36943
36933
36953
36936
36965
36946
36961
36948
36980
36954
36961
36968
36954
36990
36978
37000
36977
37004
36989
36997
36995
36979
37041
37017
37042
37021
37054
37039
37050
37051
37046
37059
37089
37092
37091
37071
37104
37116
37126
37126
37145
37152
37175
37158
37165
37161
37167
37212
37198
37218
37222
37241
37237
37246
37240
37246
37280
37277
37295
37293
37318
37300
37304
37333
37326
37329
37337
37353
37347
37329
37375
37359
37394
37373
37392
37372
37389
37385
37371
37412
37401
37419
37408
37425
37423
37436
37410
37433
37421
37413
37438
37429
37447
37431
37460
37438
37435
37427
37465
37465
37439
37469
37448
37463
37444
37424
37477
37443
37451
37449
37475
37443
37428
37450
37435
37468
37444
37458
37441
37461
37436
37419
37438
37436
37453
37427
37431
37427
37427
37424
37433
37435
37409
37405
37404
37394
37430
37412
37417
37397
37418
37395
37393
37389
37373
37394
37380
37401
37382
37390
37367
37394
37361
37354
37375
37368
37372
37360
37370
37343
37347
37343
37346
37364
37345
37366
37336
37339
37338
37318
37360
37341
37354
37328
37349
37328
37296
37327
37319
37333
37321
37334
37310
37328
37307
37304
37300
37290
37324
37290
37292
37300
37273
37297
37282
37306
37273
37277
37264
37247
37290
37267
37289
37261
37277
37245
37267
37256
37227
37272
37256
37273
37247
37268
37239
37263
37234
37250
37232
37225
37252
37290
37209
37235
37249
37254
37217
37260
37229
37219
37225
37222
37248
37232
37242
37231
37239
37216
37248
37214
37214
37207
37196
37235
37215
37242
37224
37217
37202
37226
37200
37210
37197
37189
37209
37206
37205
37229
37213
37227
37200
37217
37220
37233
37201
37222
37205
37190
37220
37214
37226
37210
37235
37209
37233
37214
37216
37223
37214
37242
37215
37241
37221
37244
37229
37214
37211
37244
37235
37237
37239
37257
37236
37254
37234
37255
37241
37238
37234
37230
37265
37243
37257
37252
37261
37238
37241
37249
37242
37270
37245
37275
37255
37278
37255
37268
37259
37239
37273
37281
37250
37271
37255
37292
37259
37281
37257
37289
37267
37248
37292
37272
37293
37279
37300
37274
37307
37270
37289
37268
37265
37293
37273
37304
37280
37296
37283
37303
37279
37278
37276
37276
37294
37286
37276
37314
37275
37290
37278
37310
37281
37270
37290
37279
37296
37267
37298
37266
37284
37265
37257
37282
37262
37290
37267
37283
37271
37291
37262
37242
37285
37272
37287
37262
37270
37258
37276
37274
37261
37292
37268
37260
37278
37268
37297
37281
37306
37284
37313
37288
37278
37306
37288
37316
37295
37320
37302
37320
37292
37283
37318
37307
37328
37314
37307
37304
37337
37339
37326
37340
37312
37340
37318
37303
37323
37318
37345
37326
37339
37319
37342
37313
37318
37319
37305
37351
37317
37335
37323
37332
37316
37328
37310
37300
37336
37319
37318
37326
37346
37322
37316
37338
37316
37339
37312
37307
37335
37333
37352
37324
37345
37320
37340
37335
37310
37347
37331
37358
37347
37365
37333
37357
37343
37327
37362
37345
37376
37359
37358
37376
37354
37364
37380
37361
37375
37364
37352
37386
37371
37389
37371
37384
37373
37396
37380
37365
37377
37375
37400
37385
37401
37378
37411
37379
37377
37381
37371
37405
37378
37359
37287
37407
37378
37374
37375
37359
37359
37367
37355
37380
37350
37366
37351
37375
37337
37347
37319
37315
37350
37327
37337
37311
37330
37300
37323
37303
37284
37305
37287
37306
37276
37292
37287
37268
37287
37249
37278
37271
37234
37269
37229
37251
37215
37204
37230
37204
37234
37203
37221
37193
37205
37182
37164
37187
37167
37188
37162
37170
37143
37166
37127
37103
37136
37109
37116
37125
37081
37095
37081
37071
37059
37094
37070
37075
37057
37058
37041
37057
37031
37015
37044
37014
37039
37014
37023
36984
37010
36988
36974
36982
36979
36997
36964
36976
36951
36978
36947
36966
36947
36950
36937
36923
36929
36905
36931
36915
36930
36910
36922
36902
36907
36895
36876
36921
36899
36918
36891
36906
36886
36885
36878
36869
36899
36880
36891
36870
36897
36873
36882
36880
36899
36878
36894
36886
36880
36852
36891
36877
36905
36875
36903
36876
36899
36893
36871
36903
36885
36907
36896
36903
36892
36902
36886
36878
36897
36890
36912
36895
36915
36897
36898
36906
36899
36916
36904
36923
36899
36920
36901
36902
36912
36897
36931
36911
36928
36911
36919
36915
36896
36926
36913
36930
36907
36926
36909
36911
36914
36903
36936
36910
36940
36919
36916
36927
36913
36923
36924
36937
36912
36924
36905
36885
36920
36906
36929
36907
36924
36900
36936
36904
36907
36891
36892
36925
36910
36923
36911
36930
36921
36937
36908
36905
36923
36905
36918
36932
36931
36926
36933
36912
36913
36924
36913
36951
36925
36951
36935
36959
36933
36956
36940
36923
36964
36960
36966
36961
36969
36963
36970
36967
36944
36989
36970
36996
36973
36993
36996
36982
37000
36989
37004
36979
36999
36987
37009
36993
36974
37016
36993
37006
36998
37008
36990
37011
37004
36990
37014
37003
37036
37009
37023
37016
37033
37001
36996
37024
37005
36993
37004
37007
37018
37002
37005
36996
37023
37022
37028
37012
37031
37011
37027
37012
36993
37036
37011
37029
37014
37032
37003
37012
36997
36989
37025
36999
37018
36994
37020
36982
37003
36992
37004
37002
37000
36995
36991
36970
36979
36985
37003
36980
36992
36974
36992
36969
36975
36976
36965
36995
36964
36989
36963
36985
36963
36977
36964
36953
36995
36965
36986
36972
36996
36973
36981
36988
36988
36975
36975
37002
36981
37007
36987
36997
36986
36979
36996
37001
37023
37003
37032
36999
37028
37004
37010
37005
36994
37021
37011
37038
37021
37029
37028
37041
37024
37005
37057
37047
37025
37028
37057
37032
37025
37057
37046
37068
37039
37081
37043
37061
37053
37044
37069
37063
37085
37060
37080
37056
37081
37058
37043
37074
37060
37090
37074
37082
37066
37091
37087
37072
37081
37097
37091
37072
37104
37077
37060
37075
37078
37108
37077
37105
37085
37104
37077
37096
37087
37064
37106
37084
37104
37083
37097
37083
37100
37081
37078
37085
37067
37104
37087
37094
37090
37107
37099
37118
37102
37110
37102
37116
37087
37089
37116
37106
37131
37111
37126
37114
37127
37113
37128
37113
37104
37122
37123
37145
37120
37152
37129
37145
37123
37141
37123
37138
37129
37136
37137
37121
37148
37131
37155
37125
37156
37128
37113
37149
37132
37149
37131
37147
37124
37154
37118
37109
37137
37124
37148
37127
37158
37129
37150
37122
37122
37137
37162
37126
37119
37137
37136
37131
37137
37118
37105
37135
37123
37139
37129
37137
37129
37147
37116
37111
37136
37116
37151
37128
37156
37120
37148
37124
37106
37138
37121
37156
37132
37141
37128
37140
37155
37132
37129
37113
37155
37137
37161
37140
37163
37144
37161
37144
37141
37134
37136
37158
37137
37156
37140
37157
37134
37133
37134
37116
37152
37145
37148
37134
37149
37141
37164
37155
37134
37142
37157
37114
37156
37129
37152
37143
37156
37143
37162
37131
37117
37169
37136
37162
37141
37163
37136
37167
37142
37120
37168
37145
37170
37145
37156
37146
37164
37154
37164
37155
37161
37145
37166
37148
37180
37152
37134
37156
37148
37178
37156
37167
37158
37179
37156
37145
37175
37152
37186
37160
37163
37150
37163
37153
37135
37178
37151
37173
37153
37179
37152
37155
37165
37147
37141
37166
37138
37172
37144
37168
37141
37156
37142
37132
37147
37137
37169
37144
37163
37146
37163
37140
37136
37138
37128
37172
37134
37159
37147
37162
37136
37161
37159
37161
37150
37147
37157
37133
37145
37145
37130
37165
37146
37154
37141
37154
37141
37121
37138
37146
37165
37140
37153
37136
37153
37137
37134
37131
37134
37148
37132
37147
37130
37139
37123
37118
37121
37138
37112
37120
37113
37140
37099
37127
37099
37102
37095
37082
37109
37094
37110
37087
37091
37079
37093
37066
37052
37067
37056
37074
37053
37051
37030
37060
37026
37039
37017
37019
37019
36998
37021
36991
36999
36970
36982
36964
36970
36949
36938
36936
36923
36942
36917
36928
36910
36912
36885
36898
36878
36847
36884
36850
36867
36848
36854
36822
36826
36815
36810
36823
36807
36789
36787
36765
36784
36763
36785
36760
36773
36756
36765
36740
36760
36742
36709
36733
36715
36746
36725
36735
36715
36730
36701
36701
36696
36681
36717
36698
36715
36689
36701
36699
36708
36697
36694
36682
36703
36685
36687
36686
36658
36691
36676
36695
36672
36701
36678
36702
36676
36661
36697
36681
36707
36692
36698
36679
36703
36681
36682
36700
36675
36713
36688
36695
36711
36704
36693
36713
36721
36715
36698
36687
36715
36703
36729
36713
36731
36712
36727
36703
36706
36720
36703
36741
36707
36739
36732
36749
36714
36718
36727
36716
36746
36713
36740
36737
36721
36725
36729
36755
36734
36717
36746
36732
36754
36744
36755
36733
36766
36728
36737
36737
36721
36757
36739
36750
36732
36754
36729
36758
36733
36725
36747
36738
36758
36742
36740
36740
36746
36741
36765
36751
36740
36761
36750
36758
36735
36762
36741
36723
36743
36726
36773
36742
36760
36745
36754
36743
36769
36736
36741
36778
36755
36765
36754
36776
36763
36768
36741
36760
36762
36777
36765
36773
36785
36762
36785
36758
36760
36772
36761
36785
36777
36796
36774
36796
36776
36757
36793
36772
36803
36793
36795
36785
36814
36785
36769
36802
36792
36811
36794
36779
36810
36808
36811
36805
36805
36782
36803
36798
36827
36799
36819
36803
36813
36793
36784
36811
36806
36820
36800
36818
36807
36829
36815
36802
36824
36809
36841
36812
36830
36807
36818
36828
36831
36805
36817
36817
36837
36813
36835
36822
36810
36840
36823
36845
36827
36846
36816
36814
36825
36804
36840
36823
36831
36817
36845
36820
36806
36812
36814
36835
36822
36830
36808
36803
36816
36821
36833
36833
36806
36825
36807
36828
36794
36788
36809
36790
36828
36806
36824
36800
36815
36798
36813
36792
36781
36820
36801
36817
36797
36814
36788
36798
36786
36771
36814
36802
36802
36794
36805
36799
36813
36790
36809
36797
36813
36798
36782
36827
36799
36822
36796
36819
36809
36792
36829
36803
36828
36799
36835
36807
36816
36814
36804
36828
36818
36839
36816
36814
36813
36820
36812
36834
36822
36843
36820
36835
36818
36812
36842
36824
36837
36810
36832
36811
36812
36823
36807
36849
36819
36835
36820
36833
36812
36800
36844
36817
36836
36839
36841
36822
36817
36809
36818
36791
36832
36814
36829
36819
36836
36813
36829
36829
36817
36851
36822
36839
36825
36843
36819
36824
36820
36812
36855
36830
36848
36830
36859
36839
36831
36851
36946
36844
36850
36861
36867
36850
36836
36871
36865
36888
36871
36894
36877
36887
36880
36869
36910
36900
36917
36897
36918
36895
36918
36909
36901
36949
36930
36947
36920
36957
36938
36940
36946
36964
36946
36976
36963
36978
36960
36995
36967
36986
36964
36983
36983
36966
36990
36991
37010
36992
37020
36987
37024
37003
36989
37017
37008
37038
37013
37040
37022
37042
37023
37005
37025
37042
37037
37051
37039
37048
37070
37048
37085
37061
37061
37077
37066
37103
37094
37112
37091
37119
37105
37104
37127
37113
37139
37119
37145
37126
37119
37143
37144
37186
37152
37173
37176
37167
37180
37164
37187
37162
37193
37175
37154
37196
37184
37202
37185
37202
37183
37168
37198
37191
37210
37192
37200
37177
37213
37180
37178
37206
37186
37207
37191
37207
37193
37207
37203
37185
37198
37186
37182
37186
37173
37191
37176
37189
37163
37185
37172
37140
37175
37168
37191
37165
37180
37165
37172
37149
37140
37156
37155
37163
37154
37162
37144
37156
37131
37120
37158
37141
37139
37161
37137
37147
37129
37108
37130
37119
37144
37111
37133
37113
37130
37096
37091
37125
37104
37124
37095
37119
37091
37084
37082
37071
37107
37077
37090
37063
37079
37061
37075
37055
37046
37039
37050
37037
37030
37033
37059
37031
37040
37021
37029
37011
36996
37004
36998
37024
36991
37012
36987
37017
36978
36978
36996
36979
37005
36974
36995
36970
36975
36968
36982
36964
36972
36987
36954
36944
36966
36951
36980
36964
36974
36954
36966
36947
36948
36964
36932
36962
36949
36973
36939
36958
36930
36919
36936
36920
36957
36924
36951
36926
36937
36968
36836
36918
36939
36928
36911
36897
36907
36891
36920
36886
36903
36892
36914
36883
36868
36885
36878
36900
36871
36891
36872
36888
36872
36847
36869
36856
36869
36848
36868
36839
36860
36837
36762
36835
36823
36863
36847
36833
36816
36833
36812
36797
36820
36799
36831
36800
36815
36793
36808
36789
36765
36799
36788
36814
36788
36804
36771
36783
36782
36758
36807
36775
36801
36776
36762
36777
36784
36792
36772
36772
36806
36780
36802
36782
36772
36794
36792
36807
36788
36806
36788
36805
36787
36787
36809
36803
36810
36802
36835
36817
36826
36825
36804
36853
36823
36846
36828
36838
36837
36853
36866
36874
36839
36862
36845
36837
36842
36844
36883
36860
36882
36859
36887
36863
36859
36904
36884
36893
36881
36895
36880
36859
36903
36884
36908
36894
36904
36893
36899
36892
36903
36907
36905
36928
36907
36926
36908
36923
36914
36904
36938
36912
36924
36912
36933
36909
36922
36924
36911
36938
36916
36940
36920
36938
36920
36922
36917
36901
36941
36921
36912
36940
36941
36913
36946
36934
36918
36911
36915
36914
36947
36918
36942
36912
36943
36911
36901
36916
36903
36927
36911
36919
36912
36921
36902
36886
36921
36902
36915
36901
36921
36893
36903
36896
36904
36907
36909
36908
36888
36914
36890
36866
36891
36883
36907
36885
36904
36873
36894
36874
36869
36885
36869
36897
36879
36892
36880
36905
36881
36875
36880
36882
36901
36884
36890
36911
36906
36889
36888
36906
36890
36869
36908
36899
36910
36895
36906
36887
36908
36886
36877
36899
36886
36906
36896
36907
36893
36902
36892
36890
36919
36905
36911
36891
36905
36895
36897
36879
36897
36864
36875
36891
36888
36873
36901
36882
36897
36868
36889
36862
36844
36883
36858
36876
36854
36863
36847
36854
36828
36819
36847
36833
36843
36812
36828
36798
36795
36895
36660
36799
36788
36817
36790
36805
36769
36778
36765
36785
36744
36736
36757
36736
36758
36722
36746
36718
36734
36710
36682
36711
36692
36712
36689
36699
36681
36698
36672
36651
36671
36643
36660
36649
36638
36639
36642
36623
36656
36630
36640
36606
36633
36602
36587
36608
36596
36616
36591
36613
36594
36613
36580
36570
36590
36585
36602
36587
36600
36580
36601
36583
36563
36611
36615
36569
36593
36581
36586
36600
36579
36598
36586
36575
36583
36585
36614
36592
36609
36600
36604
36577
36577
36602
36599
36617
36593
36605
36591
36613
36596
36587
36622
36604
36628
36601
36597
36612
36615
36618
36606
36606
36627
36609
36624
36612
36635
36601
36593
36624
36607
36638
36608
36632
36610
36631
36611
36601
36626
36621
36645
36617
36645
36619
36629
36615
36599
36637
36625
36619
36638
36637
36613
36639
36621
36634
36618
36630
36608
36602
36635
36621
36630
36608
36627
36596
36599
36594
36596
36611
36594
36604
36588
36596
36573
36568
36579
36561
36584
36568
36575
36576
36549
36548
36535
36541
36515
36540
36507
36505
36490
36468
36506
36473
36486
36448
36461
36437
36447
36422
36390
36410
36390
36398
36373
36381
36350
36346
36340
36309
36341
36316
36317
36302
36278
36273
36280
36268
36279
36251
36265
36241
36230
36236
36217
36239
36232
36240
36208
36220
36200
36172
36209
36195
36214
36188
36206
36183
36199
36176
36157
36195
36171
36206
36174
36176
36182
36163
36171
36184
36184
36162
36191
36178
36193
36192
36196
36191
36182
36207
36207
36223
36214
36228
36214
36244
36219
36215
36240
36232
36267
36256
36267
36253
36280
36263
36270
36270
36278
36286
36271
36290
36283
36312
36279
36312
36293
36312
36292
36284
36308
36292
36322
36304
36332
36300
36332
36318
36305
36327
36312
36343
36322
36349
36339
36350
36338
36263
36455
36360
36354
36347
36384
36371
36386
36380
36398
36377
36401
36386
36366
36410
36407
36418
36405
36436
36404
36416
36414
36408
36440
36425
36447
36430
36446
36434
36419
36445
36439
36478
36455
36474
36461
36446
36448
36443
36474
36453
36464
36459
36476
36448
36446
36463
36458
36478
36460
36468
36457
36452
36454
36443
36474
36450
36477
36452
36469
36452
36424
36463
36451
36468
36439
36456
36439
36451
36472
36445
36467
36442
36468
36439
36434
36453
36441
36460
36448
36459
36445
36465
36447
36434
36466
36444
36474
36448
36485
36463
36477
36468
36453
36501
36480
36502
36483
36481
36509
36507
36499
36469
36486
36488
36507
36496
36509
36488
36491
36478
36470
36504
36483
36504
36484
36495
36469
36473
36460
36451
36474
36447
36473
36444
36459
36423
36428
36417
36428
36417
36408
36396
36378
36355
36370
36355
36367
36342
36351
36323
36328
36303
36273
36307
36273
36294
36253
36269
36238
36256
36222
36189
36222
36200
36210
36183
36191
36165
36171
36144
36136
36131
36128
36126
36129
36122
36097
36115
36086
36077
36082
36074
36099
36073
36087
36069
36082
36060
36041
36091
36060
36085
36060
36077
36052
36040
36082
36069
36094
36070
36091
36063
36083
36089
36099
36092
36118
36122
36106
36119
36108
36123
36110
36103
36147
36118
36154
36143
36164
36146
36131
36168
36169
36180
36170
36191
36185
36206
36194
36178
36223
36207
36240
36212
36218
36250
36263
36259
36278
36264
36282
36273
36268
36309
36297
36318
36311
36338
36319
36350
36340
36339
36363
36351
36399
36375
36410
36386
36423
36404
36395
36422
36414
36447
36431
36449
36448
36465
36470
36461
36456
36435
36484
36467
36491
36476
36497
36494
36491
36493
36484
36525
36511
36538
36521
36542
36535
36517
36557
36545
36564
36552
36575
36571
36580
36571
36556
36449
36763
36606
36619
36604
36608
36629
36619
36628
36627
36616
36666
36638
36665
36661
36677
36674
36690
36676
36676
36713
36699
36726
36700
36733
36708
36708
36742
36733
36765
36743
36769
36749
36763
36771
36778
36797
36791
36807
36790
36801
36799
36813
36802
36794
36828
36812
36834
36816
36839
36829
36833
36827
36826
36858
36832
36855
36844
36865
36840
36854
36865
36845
36882
36863
36855
36867
36883
36874
36883
36857
36890
36880
36908
36894
36915
36892
36904
36896
36896
36933
36919
36940
36916
36942
36924
36920
36946
36946
36963
36957
36977
36955
36972
36969
36961
36990
36974
36980
37010
36995
36987
37006
36999
36993
37013
37006
37042
37013
37041
37025
37039
37013
37020
37056
37042
37053
37046
37068
37049
37048
37053
37037
37077
37069
37084
37058
37088
37055
37072
37088
37076
37064
37081
37065
37081
37071
37098
37082
37096
37074
37106
37087
37071
37073
37082
37113
37093
37116
37096
37118
37099
37088
37126
37108
37125
37106
37133
37112
37123
37124
37136
37150
37143
37136
37081
37167
37161
37159
37168
37181
37158
37140
37177
37177
37193
37179
37208
37183
37207
37189
37186
37218
37208
37230
37213
37226
37210
37240
37222
37214
37251
37226
37237
37233
37246
37244
37255
37230
37278
37255
37262
37261
37284
37262
37250
37290
37275
37297
37272
37310
37285
37295
37290
37289
37312
37295
37310
37293
37312
37297
37274
37321
37300
37321
37328
37308
37304
37324
37339
37306
37322
37310
37315
37304
37300
37320
37311
37330
37300
37331
37302
37289
37307
37303
37326
37309
37326
37303
37321
37290
37272
37309
37291
37312
37285
37303
37284
37288
37290
37284
37295
37272
37291
37264
37286
37267
37252
37295
37272
37290
37262
37289
37259
37253
37271
37262
37275
37257
37279
37263
37269
37250
37249
37277
37264
37286
37257
37303
37260
37264
37271
37277
37284
37292
37271
37247
37265
37258
37281
37260
37290
37265
37282
37265
37255
37290
37261
37283
37267
37284
37267
37277
37263
37258
37291
37265
37287
37274
37282
37266
37260
37288
37266
37264
37262
37255
37277
37263
37267
37257
37270
37239
37229
37261
37243
37252
37232
37246
37220
37226
37199
37186
37209
37193
37211
37170
37185
37157
37183
37138
37120
37157
37176
37137
37108
37097
37124
37073
37110
37071
37076
37054
37063
37043
37027
37013
37000
37028
36999
37011
36988
36999
36959
36969
36939
36912
36941
36918
36935
36900
36913
36883
36891
36877
36869
36864
36866
36857
36835
36853
36817
36821
36821
36815
36834
36805
36824
36802
36815
36789
36786
36789
36768
36810
36787
36793
36774
36795
36775
36775
36764
36757
36797
36777
36781
36763
36754
36764
36776
36785
36785
36766
36785
36759
36771
36768
36733
36773
36752
36784
36770
36782
36756
36781
36760
36749
36775
36759
36793
36775
36794
36772
36801
36779
36775
36776
36782
36804
36792
36783
36793
36792
36785
36812
36802
36823
36805
36827
36802
36793
36826
36804
36835
36821
36834
36820
36840
36820
36815
36857
36836
36856
36832
36855
36831
36823
36837
36820
36854
36836
36856
36826
36830
36844
36844
36847
36835
36815
36853
36836
36862
36844
36855
36835
36847
36839
36818
36859
36836
36854
36826
36861
36818
36809
36838
36828
36851
36825
36836
36818
36823
36818
36835
36793
36822
36813
36827
36793
36811
36792
36805
36783
36774
36784
36768
36799
36780
36794
36779
36781
36762
36744
36778
36766
36770
36753
36760
36736
36742
36744
36723
36767
36732
36744
36741
36738
36756
36722
36715
36726
36723
36702
36740
36722
36737
36707
36741
36710
36715
36730
36717
36738
36715
36739
36713
36705
36734
36724
36757
36727
36751
36734
36755
36733
36718
36744
36810
36763
36765
36754
36752
36773
36767
36779
36759
36781
36768
36734
36790
36768
36787
36775
36799
36779
36803
36781
36775
36798
36782
36819
36796
36811
36796
36816
36802
36795
36832
36809
36810
36803
36816
36834
36839
36818
36808
36850
36839
36860
36843
36863
36835
36848
36851
36832
36880
36864
36871
36858
36888
36872
36863
36888
36883
36904
36882
36899
36880
36885
36901
36900
36892
36903
36908
36906
36908
36912
36893
36934
36920
36945
36922
36954
36932
36934
36942
36942
36974
36952
36974
36956
36982
36955
36957
36960
36972
36990
36980
37000
36987
36979
36984
36963
36986
36999
37001
37001
37019
36999
36992
37032
37001
37028
37011
37039
37018
37001
37023
37026
37037
37022
37045
37025
37040
37025
37014
37062
37039
37049
37039
37057
37040
37060
37042
37026
37039
37048
37076
37068
37045
37067
37055
37083
37068
37086
37057
37062
37081
37070
37095
37080
37098
37093
37075
37097
37085
37121
37095
37109
37105
37132
37109
37097
37129
37110
37132
37120
37134
37137
37126
37122
37142
37132
37119
37147
37143
37160
37137
37162
37136
37135
37151
37137
37171
37144
37158
37139
37156
37144
37126
37158
37128
37152
37130
37150
37135
37122
37148
37118
37131
37126
37118
37116
37123
37126
37132
37115
37137
37112
37099
37130
37111
37142
37119
37135
37112
37123
37106
37097
37121
37107
37128
37108
37117
37101
37086
37111
37098
37127
37106
37125
37111
37100
37115
37120
37103
37084
37121
37104
37125
37103
37125
37104
37088
37132
37110
37127
37109
37139
37117
37108
37123
37111
37140
37107
37138
37119
37136
37102
37098
37142
37124
37140
37121
37132
37131
37114
37115
37139
37118
37126
37117
37110
37146
37115
37139
37114
37131
37111
37094
37144
37116
37128
37106
37131
37098
37086
37118
37103
37128
37106
37121
37093
37098
37140
37076
37094
37100
37096
37111
37082
37100
37086
37115
37093
37118
37080
37095
37086
37069
37094
37072
37104
37077
37095
37067
37059
37077
37067
37093
37061
37076
37065
37088
37071
37044
37085
37076
37091
37048
37075
37066
37078
37050
37091
37044
37064
37058
37045
37093
37059
37074
37050
37078
37058
37046
37077
37064
37073
37064
37083
37060
37069
37060
37050
37098
37069
37079
37060
37084
37090
37065
37065
37089
37090
37073
37095
37066
37056
37092
37074
37092
37082
37101
37067
37066
37093
37084
37111
37079
37113
37081
37096
37087
37073
37105
37082
37110
37094
37119
37096
37101
37106
37121
37119
37111
37126
37097
37114
37104
37107
37106
37100
37144
37122
37131
37111
37139
37113
37113
37130
37113
37146
37130
37144
37133
37142
37137
37139
37152
37136
37156
37141
37148
37145
37165
37170
37163
37145
37129
37178
37159
37176
37167
37193
37170
37176
37166
37156
37199
37173
37189
37176
37191
37183
37167
37197
37176
37203
37183
37199
37175
37190
37185
37180
37204
37170
37186
37179
37191
37183
37168
37195
37190
37207
37185
37203
37185
37200
37184
37185
37207
37193
37226
37194
37212
37192
37183
37205
37199
37207
37205
37221
37199
37185
37200
37212
37209
37214
37230
37229
37272
37221
37212
37237
37229
37241
37236
37252
37235
37248
37238
37226
37265
37243
37273
37260
37279
37245
37283
37249
37248
37284
37264
37283
37266
37286
37266
37258
37279
37286
37301
37271
37280
37304
37284
37307
37285
37274
37303
37291
37313
37283
37315
37291
37301
37283
37275
37320
37293
37314
37301
37317
37284
37291
37303
37292
37311
37293
37318
37258
37267
37298
37308
37305
37313
37292
37298
37287
37321
37293
37311
37298
37315
37286
37269
37305
37285
37315
37297
37312
37274
37283
37283
37276
37305
37279
37307
37278
37276
37270
37262
37291
37115
37266
37277
37279
37245
37245
37238
37246
37226
37263
37228
37235
37217
37227
37206
37180
37219
37196
37211
37182
37194
37175
37144
37171
37154
37175
37146
37159
37134
37146
37115
37106
37115
37123
37115
37109
37104
37115
37084
37094
37076
37082
37064
37040
37067
37051
37062
37033
37051
37022
37022
37030
37003
37037
37010
37010
36992
37012
36992
36976
37008
36978
36989
36988
36986
36960
36976
36974
36971
36965
36971
36992
36967
36991
36971
36995
36967
36966
36965
36973
36987
36973
36992
36970
36991
36972
36967
36976
36971
37002
36976
36991
36978
36993
36974
36959
36991
36995
36991
37006
37022
37015
36994
37018
37000
37007
37002
36999
37033
37015
37029
37008
37029
37004
36993
37026
37017
37030
37014
37039
37017
37019
37010
37005
37046
37025
37043
37029
37059
37035
37028
37037
37025
37032
37054
37045
37057
37036
37053
37032
37030
37058
37039
37055
37047
37053
37044
37034
37066
37056
37064
37045
37071
37041
37037
37070
37052
37070
37061
37078
37074
37056
37062
37061
37079
37063
37029
37079
37069
37078
37062
37076
37064
37080
37056
37049
37082
37074
37084
37067
37086
37072
37060
37077
37074
37092
37074
37093
37073
37068
37081
37078
37091
37075
37087
37086
37134
37077
37070
37066
37082
37100
37085
37091
37075
37089
37090
37073
37108
37074
37087
37070
37096
37089
37076
37108
37084
37113
37083
37107
37074
37067
37106
37085
37116
37079
37099
37082
37118
37087
37068
37100
37094
37114
37096
37113
37096
37107
37098
37089
37117
37107
37124
37093
37128
37114
37090
37140
37114
37139
37116
37132
37113
37104
37134
37085
37157
37142
37121
37132
37150
37123
37116
37160
37134
37153
37135
37154
37130
37124
37157
37138
37165
37147
37170
37143
37140
37150
37137
37166
37153
37173
37153
37145
37149
37151
37166
37148
37135
37151
37163
37167
37140
37172
37158
37171
37149
37141
37168
37153
37185
37143
37175
37148
37154
37143
37141
37174
37147
37165
37153
37172
37135
37131
37149
37141
37168
37140
37157
37134
37135
37143
37152
37131
37126
37129
37117
37114
37142
37120
37137
37106
37134
37101
37083
37114
37093
37115
37108
37120
37098
37089
37102
37096
37119
37099
37109
37090
37095
37088
37085
37130
37086
37089
37127
37092
37125
37097
37121
37095
37125
37102
37128
37095
37089
37125
37118
37127
37112
37127
37099
37103
37118
37109
37134
37121
37129
37117
37120
37118
37116
37138
37123
37132
37139
37108
37131
37124
37134
37120
37136
37129
37141
37121
37117
37131
37129
37147
37124
37148
37123
37123
37142
37138
37162
37135
37157
37132
37133
37149
37141
37150
37141
37166
37147
37144
37157
37175
37181
37166
37165
37155
37149
37173
37171
37187
37175
37194
37160
37184
37183
37172
37207
37172
37201
37187
37203
37186
37173
37205
37196
37221
37189
37222
37208
37202
37205
37192
37239
37212
37215
37198
37217
37213
37224
37197
37235
37209
37193
37230
37211
37227
37213
37236
37215
37198
37242
37223
37233
37217
37241
37220
37200
37242
37218
37238
37233
37224
37215
37203
37204
37228
37224
37224
37204
37221
37196
37196
37229
37203
37234
37219
37230
37210
37195
37223
37214
37236
37214
37239
37210
37216
37219
37205
37234
37213
37242
37213
37240
37212
37206
37241
37231
37218
37216
37248
37223
37244
37228
37215
37243
37227
37247
37234
37255
37233
37239
37248
37229
37261
37245
37258
37243
37264
37232
37227
37265
37251
37252
37240
37280
37244
37234
37241
37328
37256
37259
37268
37252
37233
37274
37266
37287
37260
37286
37264
37271
37276
37284
37291
37279
37311
37283
37278
37290
37296
37323
37297
37318
37291
37317
37305
37285
37336
37302
37330
37328
37305
37321
37306
37330
37320
37319
37345
37327
37352
37321
37315
37342
37347
37359
37333
37366
37341
37344
37352
37337
37372
37348
37363
37349
37344
37349
37352
37380
37352
37387
37347
37373
37373
37373
37371
37358
37380
37367
37389
37366
37342
37377
37366
37387
37374
37392
37364
37368
37369
37369
37388
37366
37386
37349
37341
37378
37356
37378
37351
37378
37350
37342
37352
37349
37337
37358
37322
37358
37337
37354
37338
37358
37327
37351
37320
37298
37341
37313
37325
37304
37318
37285
37267
37298
37278
37291
37261
37286
37258
37233
37259
37249
37253
37229
37242
37224
37212
37207
37224
37204
37191
37179
37204
37167
37183
37158
37176
37147
37128
37163
37132
37141
37124
37133
37125
37099
37115
37097
37110
37091
37093
37068
37054
37085
37063
37077
37049
37068
37044
37057
37048
37055
37050
37030
37051
37024
37010
37046
37018
37034
37006
37027
37003
36998
37031
37009
37023
36997
37025
36999
36980
37016
37000
37013
36990
37018
36995
36990
37000
37006
37026
37003
36991
36998
36997
37005
36994
37019
36999
36990
37025
37004
37028
36998
37019
37007
36986
37027
37004
37031
37008
37007
37012
36987
37023
37011
37045
37005
37024
37010
36992
37015
37017
37032
37017
37026
37023
37021
37041
37014
37040
37024
37033
37017
37011
37049
37024
37043
37031
37051
37036
37008
37056
37029
37055
37031
37062
37040
37025
37059
37048
37058
37031
37034
37044
37037
37065
37037
37054
37041
37030
37060
37040
37058
37050
37060
37040
37032
37043
37038
37066
37046
37055
37041
37054
37041
37029
37059
37039
37056
37041
37057
37043
37020
37031
37073
37053
37057
37044
37039
37032
37054
37043
37057
37040
37056
37034
37031
37053
37037
37068
37047
37065
37056
37055
37040
37026
37071
37057
37068
37052
37066
37055
37032
37068
37068
37082
37073
37048
37087
37048
37084
37077
37065
37073
37059
37084
37075
37094
37070
37067
37093
37077
37099
37083
37099
37074
37083
37094
37082
37114
37095
37114
37086
37118
37091
37080
37119
37101
37097
37121
37119
37104
37098
37112
37101
37132
37115
37120
37113
37122
37108
37103
37141
37124
37141
37120
37147
37120
37116
37146
37134
37151
37126
37150
37120
37114
37154
37132
37143
37130
37140
37144
37133
37134
37155
37134
37114
37166
37137
37162
37134
37151
37134
37124
37167
37142
37154
37137
37158
37139
37128
37164
37143
37152
37133
37139
37135
37132
37160
37147
37159
37140
37137
37156
37140
37129
37129
37147
37129
37121
37156
37137
37150
37125
37158
37126
37112
37142
37126
37148
37131
37159
37123
37119
37145
37138
37147
37139
37148
37146
37122
37146
37138
37159
37143
37131
37156
37137
37147
37143
37150
37128
37154
37138
37138
37165
37138
37154
37147
37129
37127
37132
37160
37134
37156
37127
37136
37131
37121
37157
37135
37151
37129
37128
37133
37129
37151
37131
37132
37149
37152
37143
37130
37133
37129
37127
37149
37140
37162
37137
37136
37137
37136
37166
37151
37159
37138
37142
37143
37138
37173
37149
37162
37148
37159
37156
37146
37177
37149
37160
37171
37173
37165
37160
37185
37163
37191
37168
37157
37188
37175
37197
37172
37197
37178
37157
37178
37179
37202
37186
37198
37173
37156
37195
37182
37200
37180
37201
37184
37163
37196
37196
37178
37189
37177
37198
37192
37203
37188
37198
37180
37178
37186
37179
37203
37169
37202
37171
37173
37192
37183
37196
37182
37198
37170
37154
37184
37180
37196
37173
37191
37163
37259
37174
37174
37198
37184
37170
37183
37179
37201
37190
37202
37181
37202
37194
37192
37220
37187
37213
37191
37208
37190
37187
37227
37198
37233
37201
37234
37209
37203
37233
37221
37241
37259
37249
37220
37243
37241
37232
37250
37246
37233
37266
37252
37276
37257
37282
37256
37249
37286
37273
37296
37268
37299
37281
37257
37288
37300
37310
37287
37318
37292
37277
37324
37305
37287
37313
37325
37319
37308
37324
37323
37325
37307
37335
37316
37307
37333
37320
37335
37322
37342
37321
37307
37348
37335
37345
37328
37343
37330
37320
37331
37334
37361
37333
37353
37336
37355
37326
37332
37339
37340
37320
37352
37334
37360
37343
37363
37350
37338
37345
37341
37367
37354
37370
37348
37362
37355
37339
37369
37354
37387
37356
37350
37357
37340
37380
37350
37382
37376
37369
37352
37376
37360
37362
37354
37370
37365
37386
37370
37391
37371
37382
37367
37367
37389
37379
37396
37364
37377
37379
37353
37395
37380
37394
37383
37402
37383
37366
37412
37383
37409
37379
37381
37409
37370
37391
37394
37391
37410
37381
37405
37382
37386
37394
37387
37405
37390
37411
37381
37368
37393
37385
37392
37376
37399
37370
37359
37404
37381
37395
37371
37393
37360
37359
37375
37375
37380
37377
37356
37348
37344
37328
37362
37338
37354
37324
37318
37325
37322
37334
37321
37328
37301
37297
37315
37295
37314
37277
37307
37284
37287
37277
37263
37282
37257
37271
37254
37249
37246
37245
37227
37259
37229
37248
37216
37218
37210
37211
37221
37212
37221
37192
37175
37209
37190
37203
37182
37201
37178
37153
37195
37171
37193
37165
37176
37155
37155
37161
37158
37165
37131
37162
37142
37161
37139
37151
37134
37115
37144
37125
37138
37113
37138
37109
37092
37138
37115
37129
37102
37115
37107
37084
37128
37109
37115
37096
37095
37155
37134
37115
37102
37091
37095
37099
37094
37078
37119
37102
37111
37094
37102
37094
37087
37133
37100
37120
37103
37107
37095
37108
37134
37115
37134
37108
37123
37118
37114
37144
37121
37146
37134
37133
37118
37136
37125
37121
37152
37145
37161
37138
37159
37146
37119
37149
37146
37166
37143
37172
37147
37143
37170
37159
37174
37148
37175
37153
37138
37176
37159
37179
37157
37176
37157
37175
37165
37165
37162
37162
37148
37185
37172
37188
37166
37186
37167
37167
37195
37184
37195
37175
37179
37200
37176
37203
37189
37204
37182
37183
37203
37194
37221
37198
37212
37194
37203
37205
37219
37215
37215
37223
37205
37199
37243
37214
37236
37213
37230
37222
37211
37251
37225
37247
37232
37249
37233
37220
37258
37238
37261
37247
37261
37245
37246
37271
37251
37268
37265
37258
37250
37271
37272
37257
37284
37254
37277
37253
37243
37286
37270
37277
37255
37282
37259
37237
37293
37275
37294
37274
37284
37269
37252
37292
37268
37295
37269
37304
37275
37268
37288
37288
37299
37290
37289
37281
37309
37287
37309
37286
37285
37299
37279
37306
37290
37305
37288
37302
37283
37270
37327
37299
37317
37294
37289
37311
37307
37318
37310
37326
37302
37294
37301
37304
37323
37299
37327
37301
37289
37330
37314
37326
37313
37328
37299
37287
37338
37308
37325
37308
37330
37308
37289
37315
37312
37319
37292
37326
37290
37278
37311
37292
37320
37290
37310
37290
37296
37306
37282
37269
37302
37295
37306
37294
37293
37281
37263
37288
37279
37300
37273
37301
37278
37262
37292
37279
37302
37279
37290
37268
37267
37304
37286
37301
37280
37290
37332
37284
37298
37295
37295
37295
37314
37299
37292
37295
37301
37336
37305
37332
37299
37293
37325
37311
37337
37308
37327
37311
37304
37331
37327
37344
37329
37340
37329
37327
37357
37333
37350
37355
37338
37328
37344
37347
37333
37358
37338
37360
37343
37317
37360
37343
37362
37342
37364
37342
37347
37345
37338
37372
37345
37363
37354
37357
37341
37337
37368
37350
37374
37334
37350
37364
37381
37353
37355
37371
37354
37339
37383
37368
37385
37359
37385
37364
37348
37383
37363
37382
37368
37394
37361
37355
37396
37371
37397
37379
37393
37375
37372
37397
37383
37403
37365
37382
37395
37377
37388
37399
37407
37394
37380
37416
37401
37423
37410
37424
37401
37396
37425
37407
37436
37409
37422
37407
37401
37448
37427
37435
37425
37422
37439
37438
37455
37425
37429
37445
37432
37430
37439
37454
37436
37428
37459
37436
37453
37436
37456
37436
37436
37470
37447
37468
37455
37454
37454
37448
37476
37463
37462
37443
37462
37456
37451
37480
37464
37467
37470
37448
37485
37470
37461
37471
37458
37465
37458
37469
37460
37430
37477
37451
37466
37451
37481
37460
37442
37483
37463
37493
37458
37487
37463
37459
37496
37468
37489
37461
37470
37475
37468
37465
37500
37490
37471
37465
37508
37484
37500
37479
37483
37496
37494
37525
37492
37518
37491
37500
37516
37513
37527
37515
37532
37507
37497
37549
37524
37548
37531
37531
37535
37529
37544
37543
37541
37552
37551
37575
37552
37541
37583
37563
37580
37572
37574
37560
37554
37589
37570
37595
37564
37567
37589
37569
37602
37581
37605
37584
37584
37614
37602
37617
37587
37616
37616
37583
37609
37603
37585
37620
37617
37640
37614
37636
37609
37609
37638
37620
37646
37615
37623
37634
37630
37646
37628
37644
37622
37607
37654
37642
37656
37629
37653
37642
37635
37616
37645
37659
37653
37648
37641
37633
37665
37655
37671
37654
37637
37675
37650
37669
37664
37678
37654
37643
37663
37669
37683
37662
37690
37664
37650
37666
37657
37693
37669
37674
37651
37648
37578
37653
37657
37654
37673
37669
37649
37667
37643
37626
37653
37634
37652
37629
37643
37616
37602
37631
37612
37631
37611
37623
37591
37573
37618
37587
37605
37578
37581
37572
37565
37592
37578
37559
37549
37546
37548
37538
37550
37527
37533
37529
37521
37530
37500
37533
37502
37482
37519
37490
37503
37484
37477
37468
37456
37485
37465
37480
37459
37443
37449
37434
37463
37443
37466
37455
37422
37426
37416
37416
37419
37413
37433
37406
37427
37400
37375
37418
37399
37408
37398
37409
37390
37369
37410
37392
37408
37381
37391
37379
37371
37402
37377
37397
37371
37369
37392
37369
37372
37369
37371
37387
37373
37390
37371
37361
37405
37380
37398
37375
37379
37379
37375
37410
37386
37403
37364
37368
37393
37373
37393
37381
37402
37371
37370
37402
37375
37396
37376
37392
37395
37399
37386
37396
37407
37385
37402
37381
37391
37416
37390
37410
37392
37366
37413
37388
37415
37391
37406
37394
37379
37425
37398
37424
37394
37403
37394
37394
37414
37387
37395
37388
37378
37400
37397
37394
37403
37384
37364
37411
37394
37405
37380
37388
37390
37389
37420
37378
37403
37378
37370
37403
37382
37402
37380
37399
37381
37377
37406
37388
37405
37382
37416
37386
37390
37400
37422
37387
37373
37414
37390
37404
37391
37390
37399
37397
37410
37392
37429
37397
37385
37425
37396
37423
37403
37413
37395
37390
37422
37403
37424
37407
37385
37423
37407
37420
37398
37402
37416
37400
37401
37421
37409
37424
37394
37387
37406
37407
37426
37405
37422
37409
37385
37432
37402
37429
37397
37414
37398
37393
37418
37388
37411
37401
37397
37423
37369
37404
37431
37390
37405
37385
37407
37386
37374
37392
37369
37411
37386
37402
37382
37370
37401
37384
37402
37373
37381
37398
37376
37396
37380
37399
37373
37359
37390
37380
37392
37384
37369
37389
37374
37376
37366
37360
37382
37353
37384
37356
37336
37384
37361
37365
37348
37354
37347
37345
37370
37343
37369
37337
37330
37351
37340
37355
37330
37348
37326
37317
37349
37327
37328
37315
37322
37326
37336
37330
37307
37297
37324
37296
37320
37295
37274
37308
37295
37309
37288
37306
37277
37259
37298
37274
37289
37272
37290
37254
37250
37279
37265
37284
37255
37256
37284
37260
37261
37242
37240
37245
37269
37238
37243
37242
37237
37265
37247
37259
37242
37246
37250
37237
37262
37232
37260
37225
37213
37255
37238
37252
37224
37239
37227
37225
37257
37229
37241
37266
37248
37248
37242
37241
37246
37242
37236
37254
37218
37217
37265
37228
37254
37238
37237
37244
37238
37244
37239
37258
37244
37222
37266
37249
37263
37240
37219
37264
37245
37254
37244
37250
37266
37253
37268
37242
37283
37253
37266
37247
37268
37250
37256
37276
37248
37268
37245
37246
37264
37248
37267
37244
37273
37243
37233
37261
37251
37258
37243
37267
37235
37234
37262
37230
37249
37223
37248
37265
37245
37270
37234
37233
37247
37224
37261
37239
37251
37230
37223
37243
37239
37253
37231
37257
37225
37240
37259
37235
37254
37245
37254
37241
37235
37275
37248
37238
37239
37258
37235
37238
37249
37247
37266
37252
37275
37246
37233
37273
37246
37269
37251
37276
37237
37237
37285
37256
37280
37250
37272
37259
37243
37277
37249
37280
37258
37262
37261
37232
37268
37259
37269
37262
37275
37254
37232
37276
37260
37272
37253
37264
37247
37238
37268
37256
37269
37243
37269
37249
37219
37275
37245
37264
37247
37242
37243
37236
37274
37262
37277
37242
37251
37269
37233
37259
37265
37235
37236
37268
37249
37267
37249
37263
37245
37238
37276
37244
37284
37253
37279
37247
37242
37284
37264
37273
37263
37280
37265
37268
37289
37273
37277
37279
37296
37293
37284
37280
37273
37307
37290
37335
37306
37322
37305
37293
37340
37314
37334
37322
37333
37328
37329
37358
37328
37359
37340
37320
37361
37351
37362
37352
37380
37347
37371
37375
37366
37397
37390
37375
37391
37378
37391
37392
37392
37418
37395
37417
37398
37373
37424
37407
37425
37413
37430
37405
37398
37434
37418
37435
37421
37418
37446
37441
37463
37436
37445
37444
37455
37473
37433
37429
37473
37456
37476
37459
37469
37456
37437
37480
37465
37483
37463
37483
37470
37462
37485
37467
37488
37477
37497
37462
37475
37506
37481
37503
37483
37485
37478
37487
37491
37472
37485
37479
37477
37501
37485
37497
37491
37505
37480
37458
37500
37491
37497
37480
37492
37482
37468
37478
37465
37488
37466
37499
37461
37458
37460
37449
37472
37454
37440
37443
37441
37446
37434
37445
37418
37398
37427
37416
37426
37394
37416
37391
37369
37411
37381
37395
37357
37349
37359
37352
37375
37355
37362
37323
37312
37362
37324
37340
37307
37324
37321
37294
37296
37275
37291
37289
37268
37290
37251
37237
37272
37248
37265
37237
37246
37228
37196
37236
37221
37226
37210
37212
37198
37177
37215
37192
37202
37177
37187
37168
37151
37187
37162
37153
37160
37169
37142
37131
37156
37151
37166
37136
37154
37131
37112
37146
37130
37152
37123
37159
37128
37116
37148
37132
37147
37127
37151
37114
37108
37148
37130
37146
37126
37187
37121
37102
37132
37126
37141
37106
37126
37136
37128
37136
37119
37141
37128
37107
37147
37128
37146
37129
37142
37124
37115
37153
37132
37142
37116
37145
37126
37111
37148
37114
37144
37127
37099
37123
37129
37120
37128
37123
37106
37100
37132
37114
37131
37104
37114
37113
37097
37144
37109
37126
37108
37094
37118
37102
37121
37101
37116
37103
37107
37090
37094
37131
37100
37124
37099
37102
37111
37123
37125
37099
37120
37109
37113
37100
37087
37118
37109
37138
37112
37099
37112
37119
37134
37120
37132
37115
37108
37121
37119
37140
37121
37144
37113
37112
37148
37125
37141
37121
37142
37116
37126
37160
37140
37156
37144
37165
37129
37116
37163
37153
37165
37151
37166
37143
37120
37159
37155
37166
37154
37180
37152
37139
37163
37151
37181
37157
37175
37152
37163
37159
37180
37151
37174
37177
37152
37184
37159
37147
37181
37171
37183
37151
37178
37160
37148
37187
37169
37187
37158
37189
37164
37144
37188
37169
37192
37160
37189
37167
37157
37189
37186
37171
37174
37195
37163
37185
37207
37182
37195
37178
37184
37215
37192
37212
37191
37205
37200
37196
37230
37200
37227
37202
37211
37207
37202
37231
37214
37230
37215
37228
37214
37212
37205
37232
37217
37213
37215
37213
37223
37212
37211
37230
37212
37229
37208
37190
37228
37203
37225
37207
37217
37194
37188
37221
37198
37214
37190
37216
37178
37188
37213
37190
37201
37191
37194
37179
37199
37189
37187
37199
37181
37168
37188
37189
37209
37186
37202
37186
37167
37202
37185
37206
37185
37208
37171
37166
37192
37191
37202
37186
37200
37180
37164
37202
37185
37208
37182
37183
37200
37205
37195
37183
37198
37187
37183
37213
37185
37207
37185
37176
37205
37191
37208
37181
37208
37188
37174
37207
37190
37204
37173
37207
37179
37165
37204
37196
37212
37208
37206
37192
37188
37197
37223
37202
37181
37208
37198
37212
37195
37210
37200
37169
37207
37198
37220
37190
37217
37183
37180
37213
37197
37202
37191
37212
37187
37170
37209
37190
37215
37197
37252
37188
37186
37212
37218
37211
37188
37213
37200
37183
37224
37198
37219
37203
37223
37200
37187
37239
37221
37227
37216
37245
37217
37207
37244
37212
37237
37232
37226
37230
37222
37255
37252
37237
37243
37237
37248
37231
37256
37234
37266
37247
37246
37274
37257
37286
37249
37275
37259
37236
37287
37270
37289
37259
37281
37265
37266
37300
37284
37299
37276
37290
37291
37294
37302
37283
37300
37305
37302
37301
37284
37332
37309
37336
37312
37310
37319
37314
37327
37312
37330
37310
37299
37320
37314
37341
37317
37342
37317
37301
37344
37328
37348
37332
37338
37326
37334
37338
37324
37349
37341
37333
37361
37346
37364
37334
37354
37343
37336
37362
37356
37372
37343
37355
37364
37336
37378
37361
37381
37355
37376
37369
37358
37393
37376
37403
37391
37370
37389
37395
37408
37404
37409
37420
37402
37422
37409
37415
37408
37397
37441
37422
37436
37433
37448
37416
37421
37458
37440
37470
37440
37467
37439
37444
37486
37461
37478
37453
37466
37473
37479
37502
37495
37464
37490
37484
37492
37490
37473
37484
37488
37509
37484
37504
37486
37474
37504
37482
37510
37485
37503
37475
37462
37492
37491
37513
37479
37504
37467
37461
37499
37486
37481
37497
37491
37472
37479
37497
37473
37455
37492
37476
37500
37472
37489
37475
37456
37477
37477
37498
37472
37496
37466
37459
37477
37467
37492
37469
37492
37466
37472
37461
37469
37483
37465
37466
37467
37473
37474
37460
37475
37467
37481
37458
37443
37467
37457
37477
37452
37471
37459
37454
37460
37452
37472
37453
37474
37441
37429
37450
37437
37459
37439
37444
37424
37483
37301
37442
37419
37426
37400
37420
37402
37415
37389
37377
37410
37382
37400
37374
37393
37373
37362
37387
37352
37373
37356
37359
37333
37320
37352
37329
37333
37315
37340
37305
37292
37332
37301
37308
37292
37282
37299
37285
37265
37293
37264
37275
37252
37257
37240
37226
37261
37240
37253
37231
37240
37210
37199
37236
37215
37220
37200
37225
37199
37174
37214
37199
37207
37186
37185
37182
37212
37188
37188
37176
37166
37202
37179
37199
37170
37178
37182
37165
37198
37187
37197
37187
37189
37174
37181
37223
37196
37215
37194
37209
37194
37204
37227
37213
37217
37206
37205
37221
37214
37221
37225
37242
37222
37243
37228
37246
37231
37208
37241
37223
37249
37227
37245
37221
37222
37238
37231
37258
37236
37252
37239
37224
37239
37230
37254
37237
37246
37233
37234
37234
37251
37255
37239
37261
37236
37262
37237
37221
37246
37234
37255
37241
37255
37247
37233
37252
37253
37262
37254
37270
37243
37234
37277
37247
37271
37255
37267
37250
37238
37272
37255
37278
37252
37247
37258
37269
37249
37269
37245
37235
37279
37256
37274
37254
37252
37264
37259
37275
37253
37280
37247
37244
37275
37264
37264
37249
37259
37263
37252
37286
37264
37278
37287
37285
37269
37269
37258
37290
37282
37298
37271
37264
37291
37281
37293
37280
37299
37284
37273
37304
37281
37298
37277
37302
37283
37282
37310
37288
37304
37287
37271
37310
37291
37314
37308
37291
37285
37303
37286
37278
37317
37299
37327
37300
37316
37302
37302
37327
37315
37330
37310
37314
37320
37321
37337
37317
37346
37317
37304
37356
37329
37344
37335
37335
37329
37338
37341
37355
37342
37333
37351
37356
37337
37362
37343
37331
37362
37358
37356
37339
37363
37345
37331
37355
37346
37370
37346
37366
37343
37354
37352
37352
37382
37357
37382
37352
37371
37338
37436
37354
37377
37386
37367
37352
37393
37373
37395
37375
37366
37389
37362
37404
37387
37392
37382
37371
37393
37391
37414
37391
37419
37405
37376
37412
37410
37431
37420
37435
37407
37406
37436
37427
37419
37409
37439
37463
37431
37416
37465
37445
37463
37444
37462
37445
37447
37475
37457
37477
37452
37437
37482
37461
37488
37463
37480
37466
37466
37501
37468
37496
37463
37454
37474
37473
37490
37474
37477
37476
37454
37487
37486
37489
37467
37493
37472
37473
37497
37471
37496
37473
37483
37474
37472
37503
37484
37501
37477
37466
37502
37484
37495
37479
37490
37479
37483
37485
37500
37505
37488
37470
37489
37474
37509
37481
37508
37484
37477
37520
37482
37509
37482
37498
37491
37497
37511
37494
37518
37491
37475
37513
37492
37518
37500
37515
37490
37476
37516
37481
37509
37497
37511
37521
37503
37507
37500
37505
37517
37497
37520
37495
37486
37512
37501
37522
37499
37526
37505
37494
37529
37504
37519
37496
37516
37509
37500
37516
37505
37537
37507
37510
37523
37498
37511
37516
37501
37527
37503
37524
37488
37480
37526
37494
37518
37498
37499
37497
37495
37511
37494
37519
37489
37469
37514
37499
37505
37494
37510
37487
37477
37514
37515
37507
37484
37500
37494
37494
37489
37509
37496
37511
37484
37476
37517
37487
37508
37480
37477
37491
37481
37508
37478
37508
37490
37479
37512
37489
37495
37498
37485
37494
37486
37504
37504
37484
37494
37510
37521
37489
37508
37494
37479
37525
37500
37516
37493
37510
37499
37498
37522
37513
37531
37507
37489
37507
37506
37521
37507
37528
37498
37497
37520
37510
37531
37504
37503
37505
37528
37532
37525
37508
37529
37504
37516
37504
37493
37529
37507
37524
37501
37516
37509
37494
37526
37496
37510
37498
37486
37506
37495
37522
37505
37520
37494
37478
37519
37504
37488
37509
37485
37500
37497
37498
37526
37493
37519
37490
37488
37513
37504
37512
37501
37516
37492
37484
37520
37493
37514
37488
37496
37484
37481
37512
37488
37500
37494
37496
37498
37487
37488
37484
37474
37488
37496
37475
37506
37493
37498
37484
37467
37499
37484
37502
37489
37493
37478
37467
37505
37477
37504
37474
37489
37473
37472
37508
37473
37495
37487
37466
37488
37475
37487
37477
37493
37479
37495
37501
37467
37462
37500
37479
37497
37471
37482
37471
37468
37498
37483
37499
37479
37459
37496
37474
37498
37478
37507
37474
37456
37502
37474
37494
37477
37492
37504
37483
37482
37463
37467
37464
37458
37494
37473
37473
37458
37468
37455
37435
37490
37445
37466
37442
37457
37435
37431
37456
37429
37452
37425
37399
37420
37413
37423
37412
37416
37385
37365
37386
37398
37393
37370
37388
37367
37378
37348
37330
37357
37333
37355
37330
37349
37315
37302
37327
37306
37317
37307
37306
37282
37266
37303
37281
37281
37260
37285
37240
37230
37271
37234
37241
37243
37229
37228
37199
37233
37215
37230
37194
37207
37199
37180
37205
37185
37201
37174
37169
37165
37162
37167
37151
37178
37144
37131
37175
37136
37152
37121
37136
37127
37107
37126
37110
37119
37125
37122
37133
37104
37116
37097
37107
37100
37067
37115
37085
37103
37079
37087
37075
37063
37104
37074
37096
37057
37057
37074
37055
37079
37056
37075
37046
37039
37074
37075
37056
37036
37067
37044
37028
37066
37038
37059
37043
37059
37042
37030
37061
37039
37059
37025
37028
37047
37026
37062
37041
37048
37028
37034
37034
37025
37047
37018
37048
37030
36997
37021
37030
37029
37020
37027
37040
37025
37040
37020
37026
37045
37033
37050
37024
37009
37042
37037
37048
37025
37038
37025
37024
37055
37035
37049
37030
37024
37033
37035
37039
37028
36997
37089
37042
37051
37060
37063
37066
37045
37047
37057
37047
37072
37045
37077
37050
37050
37078
37068
37081
37062
37086
37067
37048
37086
37075
37087
37072
37071
37069
37075
37095
37071
37100
37089
37077
37070
37073
37058
37065
37064
37075
37076
37098
37080
37099
37079
37063
37109
37089
37103
37079
37095
37086
37076
37114
37085
37112
37088
37071
37104
37090
37105
37095
37106
37095
37098
37098
37090
37123
37125
37117
37101
37082
37127
37104
37123
37102
37124
37097
37099
37123
37105
37117
37101
37099
37119
37108
37118
37111
37128
37096
37095
37138
37105
37131
37111
37130
37135
37142
37113
37101
37131
37114
37132
37140
37119
37142
37122
37154
37127
37118
37127
37125
37157
37134
37143
37127
37113
37158
37134
37155
37131
37137
37130
37140
37160
37127
37147
37128
37161
37138
37151
37132
37144
37142
37137
37126
37154
37140
37147
37140
37156
37136
37124
37158
37140
37153
37126
37111
37143
37133
37152
37124
37154
37127
37095
37142
37123
37147
37124
37148
37128
37093
37130
37130
37130
37139
37114
37137
37111
37094
37137
37117
37126
37117
37120
37098
37105
37127
37105
37130
37105
37091
37116
37101
37125
37101
37128
37105
37084
37119
37107
37126
37101
37118
37103
37110
37114
37101
37128
37110
37127
37114
37096
37120
37110
37130
37113
37134
37110
37098
37131
37117
37128
37117
37143
37106
37108
37145
37120
37136
37127
37143
37124
37103
37142
37139
37134
37130
37114
37157
37144
37159
37138
37155
37142
37129
37169
37145
37170
37149
37158
37168
37156
37181
37159
37189
37161
37149
37185
37172
37179
37169
37175
37166
37170
37103
37187
37188
37175
37162
37177
37174
37198
37186
37179
37184
37179
37205
37181
37200
37172
37154
37193
37176
37202
37174
37199
37177
37170
37212
37181
37207
37175
37171
37193
37189
37208
37181
37211
37165
37162
37202
37179
37168
37215
37183
37205
37182
37181
37190
37184
37206
37185
37211
37179
37186
37209
37196
37211
37186
37175
37198
37201
37218
37201
37222
37199
37186
37232
37218
37211
37232
37202
37224
37214
37234
37218
37226
37217
37212
37246
37229
37251
37227
37215
37239
37239
37265
37230
37262
37232
37228
37260
37250
37269
37249
37275
37249
37238
37283
37258
37268
37255
37270
37303
37251
37276
37265
37286
37260
37268
37289
37273
37286
37270
37290
37268
37258
37293
37277
37302
37265
37284
37292
37274
37286
37274
37294
37267
37270
37286
37279
37297
37287
37286
37280
37288
37314
37298
37283
37273
37314
37291
37307
37277
37304
37281
37290
37309
37293
37318
37288
37290
37304
37292
37322
37288
37317
37286
37278
37317
37304
37314
37292
37291
37305
37313
37288
37287
37301
37309
37297
37321
37301
37326
37295
37282
37320
37300
37321
37302
37321
37301
37286
37322
37293
37323
37300
37318
37301
37291
37336
37311
37328
37306
37319
37309
37303
37317
37322
37323
37318
37316
37321
37332
37313
37312
37333
37325
37341
37327
37349
37323
37315
37346
37338
37358
37332
37355
37345
37336
37372
37347
37368
37345
37351
37360
37356
37375
37353
37360
37351
37382
37393
37390
37368
37389
37366
37351
37390
37367
37395
37369
37392
37379
37360
37405
37381
37395
37384
37386
37385
37380
37398
37378
37413
37373
37391
37394
37390
37409
37382
37417
37383
37393
37406
37381
37361
37406
37388
37406
37381
37396
37374
37370
37392
37367
37396
37371
37367
37368
37361
37388
37366
37376
37357
37370
37357
37337
37363
37337
37357
37327
37382
37244
37354
37324
37325
37316
37325
37309
37289
37336
37294
37314
37295
37292
37292
37277
37300
37268
37291
37262
37267
37266
37255
37276
37258
37271
37245
37242
37242
37249
37262
37234
37251
37244
37240
37234
37236
37221
37214
37243
37217
37227
37206
37189
37224
37208
37226
37211
37205
37205
37207
37243
37209
37226
37209
37195
37230
37212
37223
37209
37213
37217
37211
37233
37205
37212
37222
37237
37199
37212
37218
37218
37240
37221
37248
37224
37223
37231
37226
37251
37239
37247
37232
37220
37266
37240
37260
37246
37256
37244
37242
37268
37242
37258
37243
37251
37261
37246
37238
37252
37273
37279
37246
37277
37265
37279
37256
37256
37250
37250
37275
37259
37265
37248
37232
37272
37251
37262
37236
37263
37242
37235
37263
37243
37257
37232
37248
37230
37233
37242
37238
37235
37240
37238
37245
37221
37253
37231
37255
37227
37239
37252
37238
37252
37232
37251
37234
37214
37248
37243
37254
37237
37240
37234
37233
37255
37243
37247
37231
37227
37248
37248
37248
37243
37252
37258
37241
37264
37260
37275
37251
37289
37259
37253
37288
37270
37285
37272
37281
37275
37258
37298
37284
37299
37279
37290
37305
37294
37317
37286
37320
37295
37281
37328
37309
37302
37340
37329
37328
37308
37342
37319
37302
37331
37327
37357
37326
37352
37323
37317
37359
37347
37355
37337
37349
37344
37342
37367
37351
37369
37354
37334
37368
37362
37374
37352
37350
37347
37371
37383
37359
37343
37357
37362
37372
37344
37365
37352
37343
37383
37357
37388
37340
37349
37358
37344
37364
37346
37361
37345
37329
37366
37333
37351
37331
37340
37319
37307
37323
37303
37318
37323
37292
37296
37295
37285
37301
37273
37291
37259
37259
37275
37255
37261
37246
37258
37240
37229
37253
37226
37234
37217
37196
37217
37198
37219
37181
37206
37319
37105
37172
37182
37180
37179
37184
37160
37181
37154
37137
37148
37144
37165
37128
37157
37130
37118
37153
37122
37136
37119
37116
37124
37110
37130
37091
37112
37095
37083
37116
37088
37117
37105
37082
37100
37083
37082
37086
37099
37078
37099
37068
37073
37102
37076
37097
37080
37063
37087
37081
37103
37077
37099
37082
37066
37109
37078
37099
37083
37097
37080
37080
37116
37091
37101
37098
37094
37101
37083
37116
37095
37115
37096
37118
37098
37096
37123
37104
37132
37108
37113
37114
37106
37143
37118
37139
37125
37103
37138
37132
37143
37129
37143
37133
37117
37159
37134
37145
37160
37140
37154
37145
37174
37143
37174
37166
37156
37171
37159
37183
37164
37192
37182
37175
37209
37179
37206
37185
37208
37203
37188
37226
37194
37218
37204
37188
37238
37218
37212
37213
37234
37241
37221
37248
37226
37223
37262
37240
37266
37241
37239
37255
37237
37268
37267
37278
37255
37248
37276
37277
37283
37275
37296
37275
37259
37305
37279
37303
37292
37295
37293
37285
37311
37294
37221
37291
37326
37299
37326
37294
37313
37317
37309
37343
37318
37342
37328
37324
37359
37331
37365
37342
37343
37365
37346
37373
37364
37393
37364
37360
37403
37383
37384
37390
37373
37388
37424
37396
37379
37411
37408
37427
37405
37429
37425
37387
37439
37430
37448
37425
37440
37427
37419
37456
37436
37464
37444
37456
37452
37456
37465
37453
37479
37451
37455
37471
37477
37488
37497
37472
37485
37474
37449
37493
37471
37475
37467
37452
37479
37462
37496
37475
37488
37472
37474
37501
37492
37499
37478
37470
37497
37484
37502
37490
37513
37483
37497
37490
37482
37521
37501
37498
37528
37505
37529
37505
37486
37538
37508
37528
37507
37526
37511
37518
37548
37527
37540
37528
37522
37555
37530
37563
37539
37531
37562
37541
37566
37483
37631
37564
37572
37563
37568
37537
37577
37573
37587
37579
37587
37582
37576
37613
37597
37609
37590
37588
37604
37596
37625
37599
37623
37601
37600
37627
37603
37633
37619
37612
37612
37628
37631
37622
37650
37626
37647
37657
37633
37654
37632
37612
37656
37638
37662
37636
37659
37644
37631
37671
37644
37671
37647
37644
37686
37654
37674
37652
37656
37664
37662
37679
37651
37686
37647
37667
37683
37687
37652
37663
37651
37676
37658
37673
37657
37639
37681
37654
37672
37658
37630
37654
37647
37663
37644
37638
37635
37628
37639
37627
37648
37621
37600
37637
37612
37627
37632
37622
37620
37595
37588
37593
37591
37595
37582
37590
37571
37578
37571
37557
37578
37548
37569
37536
37522
37564
37547
37545
37530
37497
37546
37520
37531
37512
37505
37503
37500
37519
37530
37491
37509
37496
37485
37492
37480
37492
37477
37497
37458
37456
37495
37449
37482
37459
37443
37465
37450
37467
37451
37464
37457
37450
37471
37458
37470
37445
37436
37470
37440
37470
37450
37434
37463
37443
37455
37443
37449
37471
37442
37457
37446
37434
37473
37446
37468
37444
37443
37482
37445
37474
37449
37439
37471
37454
37480
37455
37461
37453
37462
37476
37457
37483
37462
37466
37469
37485
37482
37488
37470
37479
37462
37449
37491
37464
37484
37460
37450
37483
37481
37483
37455
37475
37456
37461
37490
37464
37487
37465
37465
37486
37469
37486
37455
37450
37472
37446
37463
37459
37451
37475
37466
37477
37450
37439
37483
37450
37476
37455
37453
37463
37454
37474
37461
37475
37462
37459
37484
37467
37483
37459
37438
37482
37462
37489
37466
37444
37468
37479
37464
37478
37473
37464
37458
37487
37466
37495
37467
37457
37502
37472
37495
37475
37470
37502
37482
37505
37483
37478
37490
37485
37512
37495
37510
37503
37491
37523
37503
37444
37561
37497
37515
37507
37515
37531
37510
37535
37515
37526
37516
37523
37550
37534
37551
37522
37516
37554
37535
37555
37543
37527
37550
37539
37551
37543
37560
37546
37542
37570
37546
37567
37561
37541
37569
37531
37571
37573
37559
37578
37562
37573
37561
37561
37576
37566
37586
37564
37562
37595
37572
37590
37574
37550
37593
37571
37588
37569
37547
37593
37586
37598
37577
37570
37560
37574
37572
37581
37570
37561
37591
37572
37563
37587
37575
37604
37566
37557
37594
37578
37590
37575
37602
37574
37568
37597
37577
37590
37574
37561
37604
37572
37593
37573
37576
37570
37572
37596
37581
37587
37572
37597
37562
37562
37601
37572
37595
37559
37567
37576
37593
37583
37570
37591
37568
37566
37589
37568
37590
37564
37556
37597
37565
37592
37553
37545
37581
37576
37557
37583
37574
37563
37566
37588
37557
37577
37554
37546
37573
37563
37575
37566
37562
37567
37556
37577
37550
37582
37546
37533
37574
37564
37572
37543
37555
37557
37555
37572
37551
37568
37564
37556
37556
37536
37558
37542
37526
37555
37544
37566
37545
37555
37539
37539
37572
37533
37554
37533
37523
37541
37542
37547
37533
37532
37544
37528
37551
37538
37554
37530
37505
37551
37521
37541
37528
37527
37523
37526
37538
37525
37547
37528
37518
37542
37529
37551
37525
37512
37538
37526
37544
37522
37534
37532
37523
37543
37524
37537
37512
37510
37544
37522
37544
37524
37546
37514
37540
37525
37530
37532
37555
37521
37540
37522
37526
37532
37517
37539
37519
37510
37533
37519
37540
37509
37508
37530
37518
37541
37511
37534
37512
37508
37518
37500
37533
37524
37503
37510
37506
37505
37517
37507
37485
37529
37499
37518
37498
37477
37516
37488
37504
37487
37485
37491
37488
37506
37489
37489
37479
37480
37505
37484
37503
37486
37449
37496
37482
37498
37503
37478
37489
37476
37479
37479
37489
37467
37463
37492
37467
37487
37463
37451
37498
37477
37496
37470
37453
37491
37477
37488
37472
37481
37481
37476
37495
37487
37497
37476
37462
37506
37498
37506
37473
37480
37489
37472
37486
37473
37504
37476
37499
37479
37472
37501
37486
37490
37473
37461
37501
37482
37496
37466
37472
37499
37474
37494
37470
37457
37501
37476
37490
37463
37484
37470
37476
37487
37467
37476
37483
37459
37477
37460
37461
37483
37460
37485
37462
37455
37482
37470
37468
37451
37441
37477
37452
37477
37457
37453
37472
37451
37466
37451
37455
37463
37466
37450
37464
37460
37473
37467
37485
37458
37447
37485
37470
37481
37456
37478
37471
37476
37494
37466
37490
37474
37457
37504
37475
37492
37475
37484
37483
37479
37499
37493
37496
37489
37521
37486
37527
37505
37500
37488
37513
37500
37503
37527
37502
37519
37507
37510
37527
37511
37527
37504
37480
37526
37510
37526
37498
37531
37505
37496
37519
37502
37518
37503
37479
37509
37498
37510
37502
37477
37502
37479
37489
37464
37449
37487
37463
37484
37444
37450
37446
37437
37453
37430
37434
37418
37413
37429
37402
37419
37391
37376
37416
37385
37396
37372
37351
37380
37381
37350
37356
37356
37354
37330
37319
37335
37320
37330
37306
37317
37299
37299
37307
37282
37291
37271
37250
37290
37261
37279
37250
37231
37248
37238
37252
37225
37233
37222
37215
37244
37211
37226
37187
37213
37197
37174
37216
37190
37207
37172
37193
37161
37156
37190
37163
37188
37154
37133
37175
37158
37165
37146
37145
37155
37146
37155
37138
37139
37133
37125
37167
37244
37112
37138
37138
37115
37145
37135
37123
37140
37111
37096
37129
37122
37129
37102
37108
37105
37103
37132
37095
37119
37101
37083
37118
37102
37123
37092
37084
37113
37101
37100
37095
37105
37112
37096
37097
37111
37104
37092
37087
37093
37085
37094
37084
37107
37078
37067
37109
37082
37100
37060
37049
37092
37067
37083
37061
37043
37083
37055
37074
37050
37045
37064
37049
37072
37040
37035
37029
37040
37064
37028
37034
37037
37029
37038
37020
37043
37023
37005
37047
37021
37050
37023
37020
37027
37019
37032
37022
37038
37021
37012
37044
37026
37034
37013
37006
37039
37018
37047
37027
37015
37017
37018
37010
37029
37016
37042
37041
37045
37024
37017
37051
37029
37045
37030
37011
37046
37040
37055
37031
37030
37059
37044
37058
37037
37042
37062
37046
37069
37038
37048
37062
37063
37041
37049
37038
37069
37060
37083
37063
37080
37059
37063
37088
37071
37090
37074
37070
37099
37075
37097
37073
37067
37096
37081
37096
37084
37080
37082
37082
37097
37085
37062
37108
37083
37092
37096
37079
37105
37091
37118
37088
37089
37115
37104
37124
37100
37089
37129
37112
37136
37105
37124
37127
37109
37139
37130
37136
37120
37133
37149
37133
37152
37127
37130
37138
37147
37156
37145
37169
37145
37137
37169
37157
37170
37147
37134
37165
37160
37181
37159
37153
37170
37158
37173
37162
37179
37162
37146
37195
37169
37183
37154
37168
37168
37182
37165
37169
37180
37192
37161
37161
37181
37178
37198
37163
37183
37168
37170
37192
37167
37196
37170
37150
37190
37177
37193
37174
37161
37179
37178
37194
37184
37196
37177
37166
37207
37189
37210
37197
37182
37213
37196
37217
37186
37171
37219
37209
37214
37199
37193
37213
37201
37221
37190
37218
37206
37196
37230
37208
37247
37218
37198
37235
37230
37247
37222
37213
37207
37245
37223
37233
37232
37225
37212
37249
37239
37252
37239
37245
37240
37233
37260
37245
37273
37235
37227
37262
37239
37265
37237
37264
37229
37221
37259
37247
37266
37239
37247
37234
37239
37245
37230
37243
37258
37245
37240
37238
37263
37240
37247
37242
37231
37243
37237
37253
37249
37253
37240
37233
37257
37238
37256
37244
37221
37263
37243
37265
37239
37261
37238
37242
37269
37231
37246
37247
37254
37261
37272
37256
37248
37253
37258
37268
37249
37280
37254
37232
37281
37257
37285
37267
37254
37284
37271
37290
37271
37295
37284
37260
37300
37296
37312
37299
37314
37304
37325
37291
37286
37309
37296
37325
37297
37299
37331
37314
37329
37305
37305
37333
37320
37343
37319
37338
37327
37327
37357
37331
37357
37344
37325
37364
37350
37364
37345
37349
37361
37375
37380
37369
37384
37364
37402
37382
37402
37387
37381
37409
37408
37424
37396
37422
37411
37408
37427
37414
37441
37429
37418
37439
37431
37447
37439
37446
37446
37445
37468
37450
37472
37475
37460
37468
37454
37476
37466
37481
37462
37493
37469
37500
37475
37461
37500
37484
37510
37479
37472
37500
37492
37506
37489
37502
37491
37488
37513
37493
37529
37493
37481
37526
37497
37492
37512
37506
37499
37505
37490
37521
37499
37523
37501
37501
37518
37505
37524
37504
37523
37512
37499
37526
37495
37532
37498
37478
37532
37497
37522
37494
37489
37513
37494
37504
37494
37495
37491
37486
37481
37490
37490
37493
37482
37484
37475
37483
37497
37469
37489
37465
37453
37481
37454
37475
37450
37450
37474
37467
37471
37444
37433
37458
37447
37466
37439
37450
37494
37370
37446
37460
37431
37435
37410
37456
37427
37445
37422
37403
37435
37423
37434
37402
37401
37427
37404
37430
37406
37418
37407
37394
37421
37389
37411
37386
37383
37403
37386
37408
37384
37268
37372
37395
37365
37374
37362
37369
37362
37350
37370
37344
37361
37343
37322
37353
37329
37344
37319
37294
37338
37314
37329
37301
37291
37326
37296
37306
37284
37269
37299
37275
37285
37268
37251
37268
37255
37239
37243
37230
37225
37247
37218
37238
37200
37193
37229
37207
37214
37185
37178
37188
37176
37187
37162
37170
37155
37153
37174
37146
37161
37127
37104
37151
37126
37120
37102
37118
37100
37116
37114
37093
37084
37098
37078
37096
37071
37083
37057
37049
37071
37048
37063
37037
37020
37049
37040
37051
37028
37030
37016
37007
37034
36999
37021
37012
37000
37027
37005
37008
37003
36993
37016
36986
36981
37013
36982
37013
36987
36972
36999
36990
37014
36985
37003
36976
36975
37005
36988
36998
36985
36962
37007
36982
36990
36967
36977
36981
36980
36990
36991
36981
36974
37011
36965
37000
36974
36999
36980
36971
36997
36975
36999
36979
36985
36988
36987
36997
36990
37000
36979
36978
37012
36992
37002
36978
36970
36997
36980
37007
36992
36997
36988
37008
37013
36979
36988
37011
36995
37004
36992
36992
37004
36984
36989
36983
36992
37011
36981
37011
36983
36982
37008
36979
37009
36981
36962
37006
36985
37007
36979
36971
37002
36980
36985
36992
36997
36972
37014
36985
37002
36988
36977
37005
36993
37015
36998
37022
36992
36986
37036
37012
37028
37001
36987
37030
37013
37024
37015
37036
37013
37016
37039
37020
37047
37019
37029
37032
37037
37040
37052
37026
37048
37039
37036
37057
37038
37060
37037
37031
37069
37057
37078
37048
37034
37073
37050
37065
37058
37055
37064
37054
37074
37065
37077
37066
37047
37103
37062
37060
37089
37078
37078
37077
37053
37076
37071
37087
37075
37079
37065
37071
37096
37074
37100
37077
37064
37090
37081
37095
37081
37075
37083
37087
37097
37076
37088
37084
37083
37103
37110
37100
37100
37075
37106
37092
37121
37092
37081
37122
37097
37127
37095
37095
37106
37093
37123
37096
37101
37110
37097
37123
37103
37115
37111
37108
37127
37107
37135
37111
37103
37104
37113
37122
37129
37117
37129
37118
37139
37113
37141
37121
37113
37149
37128
37140
37113
37108
37146
37120
37142
37125
37108
37140
37126
37141
37121
37122
37125
37120
37148
37125
37137
37127
37096
37131
37119
37127
37131
37127
37141
37131
37129
37130
37130
37144
37118
37138
37134
37127
37151
37128
37152
37138
37138
37166
37136
37151
37138
37118
37166
37151
37167
37148
37123
37175
37147
37162
37180
37168
37183
37166
37190
37170
37170
37181
37177
37195
37185
37200
37182
37189
37209
37200
37223
37201
37180
37237
37216
37244
37226
37211
37234
37227
37249
37229
37259
37248
37262
37244
37260
37168
37253
37236
37296
37275
37293
37282
37268
37303
37287
37303
37280
37302
37298
37290
37323
37304
37323
37305
37304
37324
37333
37337
37313
37298
37341
37330
37350
37350
37348
37339
37332
37347
37345
37357
37344
37340
37355
37332
37354
37343
37359
37349
37343
37373
37360
37387
37353
37342
37372
37362
37387
37358
37377
37357
37358
37379
37364
37389
37373
37393
37379
37390
37367
37364
37392
37377
37397
37374
37368
37406
37384
37410
37376
37360
37395
37389
37420
37391
37408
37401
37397
37417
37398
37422
37406
37386
37411
37411
37428
37411
37411
37427
37411
37410
37447
37420
37411
37453
37416
37445
37431
37419
37449
37440
37452
37434
37459
37436
37433
37466
37453
37475
37442
37441
37463
37448
37477
37453
37476
37453
37454
37473
37411
37495
37478
37463
37469
37465
37459
37489
37466
37460
37471
37467
37484
37468
37483
37460
37464
37488
37482
37491
37464
37467
37495
37473
37490
37461
37460
37500
37477
37509
37479
37453
37503
37495
37494
37493
37481
37494
37485
37496
37482
37499
37508
37493
37512
37503
37476
37516
37501
37522
37501
37500
37514
37502
37523
37505
37521
37511
37509
37536
37506
37533
37513
37515
37549
37504
37519
37531
37500
37531
37520
37519
37551
37530
37564
37533
37535
37551
37546
37566
37554
37565
37564
37556
37577
37566
37567
37554
37555
37587
37570
37601
37577
37561
37592
37587
37600
37587
37610
37609
37588
37602
37586
37586
37624
37608
37632
37614
37632
37622
37612
37647
37623
37651
37625
37619
37660
37637
37668
37641
37622
37668
37646
37675
37650
37646
37676
37667
37680
37644
37662
37677
37684
37687
37682
37667
37703
37673
37695
37680
37678
37702
37685
37701
37670
37665
37705
37691
37699
37685
37690
37696
37678
37704
37681
37705
37669
37660
37691
37668
37701
37670
37683
37687
37685
37662
37660
37667
37658
37658
37673
37650
37670
37639
37630
37671
37641
37665
37640
37607
37640
37641
37646
37626
37621
37620
37616
37638
37604
37624
37586
37593
37614
37591
37583
37596
37585
37595
37564
37595
37565
37556
37592
37562
37582
37550
37527
37571
37543
37562
37533
37554
37534
37535
37547
37520
37535
37524
37508
37526
37503
37524
37483
37479
37505
37504
37485
37485
37503
37508
37469
37489
37472
37481
37471
37465
37488
37466
37474
37460
37458
37474
37455
37482
37457
37447
37466
37454
37468
37442
37430
37456
37454
37472
37436
37470
37447
37444
37457
37469
37450
37447
37436
37467
37441
37462
37440
37430
37454
37445
37460
37437
37447
37457
37443
37461
37432
37460
37434
37441
37460
37442
37464
37444
37435
37456
37444
37462
37447
37482
37451
37439
37450
37464
37444
37469
37442
37431
37473
37453
37471
37437
37441
37471
37454
37474
37449
37451
37461
37452
37477
37452
37470
37458
37451
37485
37449
37482
37462
37438
37480
37482
37444
37468
37457
37490
37461
37487
37462
37460
37486
37461
37485
37464
37465
37496
37468
37498
37468
37452
37483
37481
37492
37468
37472
37489
37476
37501
37475
37494
37477
37480
37507
37494
37487
37494
37493
37502
37497
37505
37495
37488
37519
37497
37529
37505
37488
37541
37512
37531
37519
37510
37523
37513
37536
37524
37544
37522
37518
37547
37530
37556
37532
37535
37549
37539
37533
37557
37549
37548
37532
37557
37551
37572
37554
37555
37559
37561
37580
37549
37583
37552
37550
37587
37564
37579
37564
37545
37593
37578
37586
37570
37577
37602
37568
37598
37569
37568
37586
37576
37571
37586
37592
37567
37583
37571
37576
37601
37566
37595
37573
37555
37594
37566
37596
37568
37555
37586
37566
37591
37575
37560
37568
37569
37584
37565
37577
37566
37569
37567
37569
37567
37584
37573
37588
37564
37573
37561
37561
37581
37564
37584
37563
37533
37588
37571
37570
37561
37553
37570
37563
37581
37550
37557
37552
37549
37570
37546
37567
37538
37545
37553
37544
37561
37545
37546
37566
37532
37557
37548
37525
37568
37542
37559
37538
37527
37556
37541
37555
37538
37530
37551
37549
37551
37537
37547
37541
37540
37553
37541
37557
37537
37523
37538
37521
37539
37544
37538
37543
37565
37538
37562
37536
37536
37545
37547
37566
37534
37555
37549
37543
37563
37543
37564
37537
37532
37563
37560
37572
37553
37544
37562
37544
37573
37543
37544
37559
37546
37573
37553
37550
37584
37558
37586
37552
37544
37592
37555
37572
37556
37545
37584
37565
37586
37558
37539
37592
37564
37588
37564
37567
37590
37580
37587
37582
37562
37543
37633
37574
37593
37581
37587
37597
37601
37595
37600
37609
37602
37618
37599
37586
37610
37606
37619
37617
37625
37607
37592
37623
37622
37636
37615
37623
37619
37620
37640
37619
37659
37624
37633
37652
37642
37632
37649
37650
37632
37626
37659
37641
37659
37643
37627
37676
37646
37660
37649
37627
37678
37655
37674
37647
37659
37650
37644
37680
37654
37680
37649
37639
37685
37665
37717
37652
37642
37632
37649
37650
37632
37626
37659
37641
37659
37643
37627
37676
37646
37660
37649
37627
37678
37655
37674
37647
37659
37650
37644
37680
37654
37680
37649
37639
37685
37665
37741
37730
37726
37733
37740
37740
37753
37742
37756
37748
37744
37772
37746
37764
37755
37745
37776
37761
37787
37761
37745
37785
37762
37784
37767
37759
37793
37779
37790
37768
37779
37790
37767
37767
37767
37767
37789
37789
37789
37789
37789
37789
37789
37778
37778
37778
37778
37778
37778
37778
37799
37799
37799
37799
37799
37799
37799
37808
37768
37768
37768
37768
37768
37768
37817
37815
37792
37799
37823
37797
37815
37799
37782
37822
37794
37814
37788
37782
37813
37793
37821
37803
37775
37818
37798
37824
37798
37790
37824
37803
37820
37805
37768
37768
37768
37768
37810
37823
37830
37808
37802
37836
37806
37799
37828
37811
37830
37811
37798
37829
37811
37829
37805
37782
37824
37803
37827
37805
37791
37824
37800
37823
37802
37780
37821
37806
37812
37796
37788
37802
37788
37798
37792
37810
37785
37777
37799
37773
37794
37786
37787
37771
37759
37788
37772
37790
37765
37745
37777
37754
37772
37752
37731
37760
37737
37754
37720
37714
37754
37796
37576
37721
37710
37738
37714
37715
37692
37701
37672
37674
37698
37670
37686
37647
37637
37676
37650
37654
37628
37612
37652
37630
37632
37602
37595
37602
37597
37597
37574
37569
37568
37564
37413
37552
37540
37547
37533
37540
37519
37505
37524
37502
37523
37487
37486
37490
37485
37505
37467
37481
37465
37473
37481
37446
37472
37449
37424
37459
37430
37454
37419
37405
37444
37411
37413
37424
37413
37426
37396
37428
37391
37383
37421
37391
37414
37379
37359
37395
37369
37397
37374
37357
37391
37368
37386
37363
37359
37366
37365
37381
37360
37371
37354
37359
37380
37355
37368
37348
37369
37344
37366
37356
37363
37352
37371
37355
37356
37359
37352
37370
37343
37367
37348
37339
37365
37353
37377
37353
37324
37370
37347
37373
37350
37349
37368
37361
37368
37361
37354
37362
37364
37362
37365
37343
37380
37361
37378
37366
37361
37378
37365
37389
37361
37372
37375
37371
37387
37371
37395
37364
37368
37392
37376
37392
37374
37361
37396
37368
37394
37377
37368
37391
37385
37371
37381
37384
37365
37393
37392
37402
37386
37377
37405
37385
37412
37383
37395
37400
37401
37413
37394
37397
37392
37399
37430
37409
37402
37422
37405
37443
37419
37417
37402
37410
37418
37417
37438
37418
37443
37427
37447
37442
37435
37467
37438
37469
37437
37432
37462
37452
37465
37448
37437
37484
37454
37480
37459
37454
37479
37465
37485
37468
37456
37501
37478
37478
37475
37487
37492
37492
37514
37488
37505
37498
37492
37515
37494
37524
37491
37490
37535
37519
37528
37506
37501
37535
37517
37538
37514
37502
37547
37526
37542
37516
37494
37533
37519
37545
37519
37522
37539
37515
37500
37546
37524
37536
37523
37497
37542
37512
37526
37513
37504
37516
37504
37530
37500
37498
37513
37510
37516
37506
37503
37505
37496
37514
37502
37533
37485
37508
37497
37515
37496
37519
37489
37519
37487
37481
37524
37493
37500
37484
37474
37503
37483
37507
37491
37493
37495
37481
37504
37488
37505
37482
37476
37511
37492
37503
37487
37478
37485
37493
37487
37510
37495
37510
37495
37483
37496
37495
37513
37486
37489
37506
37500
37514
37482
37491
37504
37494
37519
37498
37513
37503
37493
37534
37499
37521
37504
37495
37534
37510
37517
37538
37530
37504
37525
37503
37540
37523
37536
37516
37519
37525
37525
37545
37523
37540
37519
37534
37549
37533
37551
37532
37520
37556
37533
37543
37531
37506
37567
37549
37561
37545
37550
37543
37567
37533
37550
37547
37577
37545
37549
37561
37551
37568
37558
37573
37554
37554
37587
37562
37581
37561
37551
37595
37569
37591
37566
37558
37597
37573
37605
37578
37559
37601
37611
37598
37583
37612
37585
37590
37580
37608
37591
37619
37593
37592
37605
37614
37631
37607
37600
37637
37620
37648
37609
37609
37653
37632
37643
37637
37624
37660
37647
37662
37637
37625
37646
37654
37660
37642
37657
37662
37649
37673
37644
37647
37682
37655
37680
37660
37656
37666
37668
37683
37653
37670
37673
37671
37686
37674
37675
37693
37669
37694
37673
37677
37691
37680
37683
37691
37700
37681
37704
37692
37673
37661
37699
37685
37704
37683
37681
37689
37681
37703
37678
37670
37690
37678
37700
37676
37670
37695
37685
37705
37674
37680
37683
37677
37705
37681
37690
37663
37692
37675
37680
37708
37672
37668
37698
37681
37703
37683
37665
37698
37677
37698
37680
37664
37686
37689
37701
37673
37697
37676
37680
37708
37683
37701
37672
37659
37703
37680
37702
37669
37696
37706
37682
37675
37703
37688
37700
37676
37663
37706
37669
37699
37676
37667
37714
37684
37700
37675
37663
37696
37691
37711
37684
37674
37713
37687
37710
37695
37671
37680
37750
37718
37700
37682
37695
37694
37718
37689
37687
37726
37700
37725
37699
37684
37722
37713
37727
37703
37711
37721
37715
37729
37716
37727
37719
37715
37732
37723
37723
37726
37725
37748
37750
37744
37729
37735
37726
37732
37751
37731
37719
37756
37744
37756
37736
37744
37748
37740
37756
37752
37769
37743
37742
37769
37753
37771
37740
37729
37767
37747
37756
37741
37734
37766
37740
37757
37730
37733
37755
37756
37727
37718
37754
37733
37750
37725
37734
37722
37717
37734
37701
37710
37722
37698
37723
37701
37691
37697
37692
37712
37685
37708
37697
37685
37697
37669
37683
37668
37666
37676
37662
37667
37674
37654
37667
37648
37654
37661
37640
37656
37637
37629
37660
37638
37656
37625
37618
37631
37619
37638
37606
37621
37598
37592
37624
37589
37614
37580
37589
37596
37586
37570
37575
37567
37580
37564
37583
37563
37553
37579
37549
37574
37550
37533
37548
37545
37558
37538
37535
37547
37535
37551
37528
37543
37531
37528
37542
37521
37543
37514
37539
37516
37530
37525
37575
37524
37548
37513
37491
37542
37520
37532
37508
37501
37532
37526
37538
37518
37507
37548
37519
37560
37527
37520
37550
37535
37565
37539
37519
37555
37548
37562
37567
37572
37547
37583
37583
37558
37548
37582
37565
37581
37555
37556
37595
37570
37593
37571
37561
37601
37577
37604
37585
37572
37607
37588
37614
37594
37598
37593
37599
37613
37588
37617
37592
37598
37618
37623
37624
37610
37617
37619
37623
37635
37615
37619
37625
37620
37638
37623
37641
37625
37623
37650
37637
37658
37632
37621
37661
37639
37663
37637
37637
37676
37646
37669
37637
37653
37650
37656
37667
37643
37646
37677
37662
37675
37660
37655
37672
37661
37682
37657
37660
37677
37659
37664
37676
37668
37692
37663
37662
37678
37667
37692
37671
37677
37680
37669
37681
37673
37690
37703
37680
37700
37662
37664
37702
37686
37698
37685
37678
37682
37678
37701
37682
37697
37682
37695
37705
37682
37689
37684
37683
37702
37681
37688
37691
37678
37701
37676
37681
37690
37700
37691
37686
37671
37706
37688
37698
37679
37659
37692
37680
37692
37679
37660
37684
37676
37692
37672
37664
37678
37676
37682
37677
37667
37683
37676
37682
37655
37667
37673
37669
37669
37662
37648
37662
37655
37654
37665
37662
37665
37660
37648
37650
37652
37662
37658
37641
37654
37647
37662
37642
37650
37657
37649
37666
37637
37645
37644
37642
37655
37635
37659
37652
37636
37645
37639
37663
37645
37627
37648
37633
37625
37651
37636
37640
37630
37627
37648
37625
37639
37623
37618
37655
37630
37644
37633
37622
37650
37633
37657
37629
37620
37652
37634
37616
37637
37626
37623
37623
37645
37622
37654
37632
37613
37667
37634
37662
37639
37622
37655
37636
37663
37643
37645
37674
37648
37674
37648
37642
37687
37661
37674
37655
37636
37686
37660
37654
37676
37672
37686
37696
37651
37686
37670
37690
37667
37655
37698
37688
37697
37678
37681
37688
37699
37713
37690
37693
37706
37700
37725
37690
37696
37720
37706
37737
37716
37722
37716
37749
37729
37726
37722
37745
37739
37745
37734
37732
37754
37749
37752
37743
37748
37773
37748
37768
37754
37756
37776
37761
37770
37773
37759
37783
37779
37772
37791
37786
37806
37785
37799
37797
37797
37801
37824
37822
37806
37796
37830
37810
37834
37816
37804
37831
37814
37853
37831
37809
37845
37835
37844
37841
37833
37856
37852
37864
37850
37818
37872
37850
37877
37855
37799
37922
37877
37858
37868
37847
37899
37869
37893
37875
37873
37908
37881
37905
37876
37875
37911
37898
37918
37887
37878
37927
37894
37933
37898
37897
37929
37912
37931
37906
37900
37937
37908
37965
37929
37922
37932
37919
37935
37923
37923
37952
37933
37953
37934
37917
37949
37925
37957
37930
37924
37958
37948
37957
37940
37928
37969
37947
37965
37938
37927
37964
37951
37967
37944
37965
37975
37982
37950
37960
37974
37960
37969
37973
37957
37979
37965
37950
37984
37972
37986
37967
37952
37994
37971
37993
37961
37945
37986
37970
37988
37969
37964
37970
37971
37989
37979
37966
37975
37969
37973
37963
37945
38000
37969
37975
37962
37959
37975
37970
37974
37958
37965
37971
37955
37981
37955
37973
37958
37958
37997
37960
37982
37951
37951
37968
37953
37965
37955
37961
37975
37969
37952
37953
37957
37977
37951
37940
37977
37961
37980
37955
37946
37993
37960
37983
37951
37956
37990
37962
37983
37958
37952
37981
37963
37992
37950
37954
37994
37961
37977
37962
37975
37968
37969
37967
37971
37966
37995
37972
37993
37974
37963
37999
37982
37998
37976
37967
37984
37971
37984
37973
37962
37986
37974
37986
37956
37956
37975
37955
37980
37948
37943
37967
37959
37938
37927
37950
37940
37928
37944
37915
37934
37904
37908
37919
37905
37918
37888
37885
37895
37880
37872
37868
37855
37885
37839
37854
37850
37841
37854
37821
37838
37825
37818
37809
37816
37798
37804
37792
37813
37765
37766
37774
37757
37769
37750
37754
37743
37739
37753
37732
37744
37722
37712
37727
37705
37738
37695
37703
37716
37698
37698
37685
37681
37686
37661
37665
37666
37652
37671
37662
37669
37647
37634
37662
37637
37662
37643
37646
37637
37641
37642
37633
37643
37623
37617
37640
37626
37640
37618
37615
37636
37615
37634
37612
37610
37637
37661
37640
37630
37632
37627
37608
37609
37641
37628
37641
37611
37605
37645
37619
37644
37619
37603
37643
37624
37649
37630
37603
37652
37631
37658
37633
37607
37658
37633
37657
37636
37618
37667
37640
37660
37642
37631
37656
37648
37629
37660
37648
37666
37643
37638
37672
37657
37665
37649
37635
37680
37657
37663
37656
37639
37686
37660
37682
37652
37646
37682
37667
37682
37664
37654
37660
37668
37666
37676
37677
37670
37667
37674
37683
37676
37687
37677
37679
37695
37679
37688
37679
37691
37710
37679
37678
37700
37684
37699
37676
37698
37698
37686
37713
37683
37714
37687
37683
37687
37686
37688
37693
37692
37718
37700
37704
37702
37688
37715
37699
37711
37687
37698
37724
37691
37718
37689
37707
37719
37704
37721
37702
37714
37719
37707
37728
37707
37705
37731
37728
37726
37725
37718
37721
37722
37738
37725
37711
37726
37714
37743
37715
37728
37736
37721
37745
37712
37733
37730
37725
37752
37723
37743
37723
37734
37744
37734
37744
37726
37723
37749
37733
37736
37746
37745
37737
37734
37758
37737
37718
37764
37733
37751
37730
37717
37749
37730
37750
37724
37723
37759
37728
37747
37718
37702
37757
37730
37746
37728
37703
37736
37722
37740
37728
37736
37710
37709
37719
37702
37689
37725
37693
37719
37695
37691
37706
37695
37716
37693
37703
37703
37680
37708
37685
37694
37683
37678
37696
37679
37699
37671
37666
37702
37670
37690
37681
37664
37669
37678
37684
37661
37685
37652
37637
37681
37663
37674
37655
37635
37683
37668
37686
37662
37637
37672
37648
37672
37652
37633
37674
37654
37669
37647
37640
37674
37656
37674
37680
37656
37657
37673
37662
37660
37670
37663
37681
37664
37653
37674
37667
37683
37644
37664
37683
37665
37671
37667
37653
37686
37678
37691
37668
37662
37688
37675
37691
37673
37678
37674
37672
37710
37694
37675
37697
37681
37697
37679
37667
37700
37687
37695
37688
37673
37702
37691
37702
37673
37678
37700
37681
37708
37682
37687
37703
37696
37714
37685
37684
37723
37684
37687
37672
37705
37695
37700
37669
37715
37698
37712
37679
37701
37720
37686
37704
37702
37699
37721
37698
37710
37695
37703
37724
37698
37728
37704
37715
37731
37712
37716
37712
37719
37747
37719
37739
37711
37731
37711
37739
37734
37748
37735
37734
37744
37744
37748
37737
37743
37743
37741
37767
37740
37749
37756
37757
37779
37754
37750
37774
37764
37787
37754
37755
37784
37774
37791
37767
37799
37772
37794
37771
37779
37787
37790
37775
37804
37784
37799
37789
37778
37817
37782
37805
37784
37757
37814
37798
37807
37792
37768
37802
37790
37816
37791
37767
37802
37798
37814
37780
37798
37787
37800
37799
37782
37802
37798
37789
37828
37802
37800
37815
37800
37819
37795
37809
37802
37801
37816
37798
37829
37802
37805
37829
37809
37817
37804
37803
37831
37809
37833
37819
37818
37826
37806
37833
37816
37830
37812
37793
37833
37821
37842
37816
37803
37850
37821
37847
37811
37800
37850
37828
37843
37826
37805
37842
37819
37857
37812
37801
37854
37836
37850
37850
37824
37836
37821
37833
37818
37840
37823
37841
37821
37817
37834
37828
37847
37822
37817
37836
37817
37837
37808
37803
37825
37826
37827
37801
37802
37829
37816
37826
37810
37824
37809
37813
37828
37805
37832
37852
37808
37819
37813
37797
37829
37811
37819
37799
37794
37835
37808
37827
37797
37794
37839
37806
37820
37803
37781
37835
37818
37832
37805
37780
37832
37801
37832
37823
37825
37821
37806
37816
37805
37822
37809
37799
37809
37804
37819
37796
37794
37802
37789
37806
37782
37795
37780
37784
37803
37777
37794
37772
37766
37790
37762
37791
37752
37766
37832
37648
37759
37733
37764
37752
37762
37744
37732
37748
37726
37750
37717
37733
37723
37714
37738
37717
37722
37696
37691
37718
37695
37710
37685
37691
37699
37687
37698
37679
37662
37682
37666
37648
37652
37656
37666
37648
37633
37652
37631
37611
37637
37617
37637
37620
37579
37622
37600
37610
37585
37586
37595
37577
37596
37570
37562
37568
37559
37576
37557
37557
37560
37542
37556
37527
37546
37535
37531
37539
37523
37528
37545
37514
37514
37520
37511
37533
37503
37508
37515
37505
37523
37498
37499
37511
37504
37523
37491
37509
37496
37486
37519
37497
37516
37482
37485
37510
37509
37485
37507
37498
37508
37498
37496
37515
37499
37515
37504
37498
37520
37495
37527
37495
37491
37525
37507
37523
37505
37488
37535
37501
37524
37505
37496
37530
37503
37525
37503
37517
37508
37520
37510
37531
37506
37524
37508
37498
37529
37509
37534
37500
37491
37523
37496
37517
37499
37484
37526
37504
37515
37490
37474
37515
37492
37511
37477
37467
37508
37490
37505
37485
37478
37496
37480
37531
37489
37483
37489
37502
37481
37490
37491
37484
37500
37478
37500
37491
37487
37505
37479
37508
37484
37488
37501
37479
37488
37488
37488
37512
37492
37482
37505
37493
37489
37499
37494
37500
37508
37519
37493
37487
37516
37499
37520
37506
37507
37505
37507
37522
37498
37505
37518
37501
37531
37508
37523
37512
37513
37539
37514
37519
37528
37525
37541
37528
37529
37533
37546
37534
37539
37532
37537
37543
37537
37563
37540
37540
37547
37549
37575
37549
37545
37560
37558
37570
37548
37560
37576
37570
37579
37563
37571
37559
37556
37585
37562
37566
37559
37571
37564
37567
37562
37583
37572
37597
37564
37550
37601
37575
37593
37574
37561
37603
37574
37595
37570
37558
37596
37569
37593
37573
37554
37600
37561
37587
37564
37556
37562
37556
37554
37579
37569
37583
37563
37555
37588
37565
37583
37560
37539
37577
37560
37580
37564
37543
37593
37564
37586
37565
37541
37572
37580
37579
37555
37560
37570
37564
37591
37574
37576
37556
37560
37573
37551
37563
37585
37563
37554
37574
37563
37586
37555
37548
37590
37570
37590
37572
37554
37589
37569
37594
37564
37556
37595
37565
37594
37576
37581
37601
37584
37601
37581
37587
37584
37588
37576
37601
37587
37601
37589
37571
37620
37589
37617
37588
37582
37622
37601
37621
37608
37620
37604
37601
37618
37599
37612
37610
37615
37622
37610
37618
37616
37623
37629
37627
37610
37607
37612
37627
37608
37602
37631
37616
37635
37602
37594
37636
37606
37627
37608
37610
37641
37626
37637
37609
37609
37642
37621
37630
37611
37595
37632
37611
37636
37614
37593
37626
37622
37630
37628
37619
37645
37634
37650
37618
37609
37649
37630
37643
37639
37627
37656
37627
37629
37644
37642
37658
37640
37637
37640
37636
37655
37638
37653
37641
37638
37666
37633
37654
37648
37635
37661
37659
37640
37669
37655
37680
37647
37654
37681
37655
37654
37652
37657
37677
37651
37668
37658
37655
37680
37664
37682
37665
37660
37677
37655
37667
37656
37661
37688
37692
37675
37653
37693
37697
37687
37669
37689
37661
37657
37694
37666
37687
37668
37654
37686
37672
37684
37671
37654
37688
37677
37695
37681
37668
37702
37693
37703
37681
37667
37706
37686
37709
37702
37705
37699
37695
37719
37690
37693
37718
37702
37726
37705
37721
37720
37708
37737
37716
37743
37723
37718
37748
37732
37754
37732
37722
37763
37742
37765
37733
37726
37768
37747
37759
37752
37774
37759
37764
37784
37749
37746
37792
37758
37792
37766
37763
37801
37781
37795
37762
37766
37802
37792
37802
37773
37773
37809
37795
37814
37792
37781
37816
37795
37811
37747
37813
37811
37822
37807
37814
37819
37791
37793
37819
37802
37826
37798
37789
37826
37798
37828
37807
37785
37823
37801
37820
37807
37798
37808
37805
37832
37800
37808
37809
37795
37824
37805
37813
37803
37823
37814
37804
37795
37816
37795
37814
37811
37783
37825
37808
37833
37798
37779
37825
37800
37822
37797
37777
37822
37808
37830
37802
37792
37826
37798
37820
37795
37793
37816
37792
37790
37812
37798
37783
37783
37767
37820
37784
37808
37771
37763
37807
37774
37788
37768
37751
37781
37744
37776
37744
37736
37758
37730
37743
37737
37727
37741
37720
37705
37725
37705
37720
37700
37695
37690
37715
37700
37666
37657
37697
37662
37681
37649
37644
37663
37642
37650
37628
37632
37635
37626
37626
37607
37601
37630
37598
37601
37586
37584
37610
37576
37584
37567
37574
37572
37565
37561
37556
37540
37524
37560
37534
37566
37538
37524
37553
37529
37525
37521
37511
37532
37505
37514
37519
37503
37523
37500
37486
37505
37493
37522
37485
37474
37508
37495
37497
37492
37486
37505
37515
37465
37500
37490
37505
37482
37469
37493
37490
37498
37485
37474
37490
37484
37494
37475
37471
37498
37481
37507
37467
37460
37502
37489
37504
37484
37468
37502
37467
37494
37506
37486
37506
37503
37495
37470
37511
37489
37507
37491
37471
37517
37500
37505
37489
37476
37523
37484
37518
37499
37471
37516
37490
37518
37497
37477
37519
37507
37519
37498
37508
37513
37502
37509
37519
37503
37521
37507
37491
37523
37505
37533
37508
37496
37517
37508
37524
37502
37494
37530
37500
37511
37492
37480
37528
37496
37515
37493
37491
37527
37501
37498
37552
37518
37499
37502
37519
37521
37506
37498
37535
37498
37523
37512
37501
37533
37511
37509
37520
37512
37537
37506
37539
37526
37525
37552
37523
37558
37533
37524
37564
37534
37569
37539
37608
37558
37559
37576
37559
37563
37580
37569
37565
37592
37566
37594
37569
37582
37594
37568
37587
37577
37586
37610
37592
37613
37589
37596
37617
37591
37601
37607
37607
37626
37607
37614
37608
37617
37604
37638
37626
37636
37627
37650
37636
37633
37664
37646
37666
37646
37641
37670
37646
37677
37655
37631
37669
37650
37679
37659
37645
37687
37664
37683
37658
37659
37684
37661
37648
37663
37664
37689
37678
37662
37690
37663
37690
37663
37654
37691
37659
37678
37662
37662
37684
37656
37683
37664
37662
37691
37663
37690
37665
37654
37680
37664
37690
37667
37653
37680
37668
37664
37669
37664
37689
37676
37661
37677
37661
37631
37692
37664
37678
37661
37637
37681
37653
37673
37651
37667
37674
37655
37660
37664
37665
37690
37656
37654
37667
37668
37679
37665
37688
37679
37660
37673
37673
37649
37678
37659
37658
37690
37669
37669
37668
37668
37687
37669
37668
37673
37674
37694
37658
37671
37674
37685
37700
37674
37663
37697
37681
37700
37680
37687
37703
37690
37685
37686
37707
37707
37696
37721
37699
37686
37707
37698
37713
37694
37695
37717
37710
37726
37694
37696
37711
37698
37731
37700
37711
37714
37716
37737
37715
37712
37723
37727
37718
37744
37724
37715
37730
37700
37747
37721
37748
37729
37713
37745
37734
37745
37736
37730
37746
37740
37753
37726
37738
37761
37733
37765
37745
37728
37759
37746
37764
37739
37716
37774
37745
37747
37764
37758
37748
37732
37781
37751
37774
37758
37762
37783
37762
37766
37765
37760
37785
37754
37765
37764
37760
37776
37766
37754
37790
37761
37790
37765
37758
37791
37764
37774
37767
37782
37780
37750
37784
37764
37769
37786
37768
37782
37762
37781
37789
37768
37770
37768
37772
37780
37763
37756
37780
37770
37799
37762
37746
37790
37773
37795
37767
37763
37790
37781
37767
37773
37765
37761
37769
37754
37788
37761
37786
37762
37769
37789
37760
37782
37778
37773
37789
37771
37762
37776
37770
37788
37768
37743
37779
37768
37787
37770
37757
37789
37777
37799
37781
37773
37802
37793
37776
37806
37779
37808
37762
37770
37799
37778
37807
37772
37778
37799
37779
37800
37786
37780
37800
37783
37789
37788
37775
37802
37779
37779
37802
37782
37811
37774
37807
37784
37792
37797
37775
37791
37810
37786
37772
37805
37789
37812
37783
37771
37811
37798
37805
37781
37782
37809
37795
37806
37787
37787
37817
37784
37801
37797
37796
37814
37795
37801
37797
37800
37797
37804
37797
37807
37801
37827
37805
37801
37813
37809
37820
37803
37786
37823
37801
37831
37799
37799
37837
37808
37832
37819
37804
37827
37806
37817
37806
37801
37831
37814
37802
37813
37810
37818
37829
37829
37808
37806
37826
37807
37821
37813
37808
37829
37800
37811
37821
37809
37822
37803
37798
37817
37807
37819
37805
37781
37821
37805
37807
37790
37779
37804
37791
37800
37802
37762
37780
37763
37777
37755
37752
37773
37751
37744
37757
37738
37750
37725
37722
37725
37725
37724
37710
37692
37700
37683
37700
37667
37648
37681
37650
37664
37644
37616
37630
37624
37637
37613
37604
37623
37586
37562
37595
37566
37585
37556
37536
37561
37530
37556
37515
37511
37527
37494
37516
37493
37477
37495
37469
37459
37468
37454
37456
37441
37421
37448
37433
37425
37429
37425
37408
37409
37387
37386
37398
37391
37402
37372
37357
37390
37370
37376
37348
37333
37377
37346
37370
37344
37323
37361
37342
37348
37329
37322
37347
37326
37333
37448
37340
37329
37327
37317
37348
37312
37343
37318
37300
37337
37317
37342
37316
37313
37347
37317
37346
37319
37304
37335
37326
37341
37330
37329
37347
37330
37313
37341
37341
37357
37335
37320
37340
37352
37337
37369
37348
37354
37352
37363
37349
37340
37377
37351
37382
37354
37339
37385
37360
37387
37358
37340
37376
37364
37388
37361
37371
37395
37377
37391
37374
37373
37402
37385
37386
37404
37381
37383
37410
37370
37404
37385
37409
37383
37367
37408
37396
37407
37396
37380
37417
37402
37414
37394
37375
37430
37398
37413
37401
37382
37430
37396
37419
37397
37387
37428
37414
37400
37418
37403
37421
37421
37410
37441
37418
37435
37432
37424
37449
37439
37443
37427
37433
37456
37438
37437
37462
37453
37471
37459
37436
37476
37459
37485
37464
37461
37486
37472
37483
37469
37487
37483
37487
37483
37502
37499
37514
37493
37484
37516
37502
37535
37516
37496
37547
37525
37541
37521
37515
37555
37536
37567
37534
37526
37567
37544
37565
37555
37549
37576
37554
37568
37580
37556
37587
37576
37568
37588
37559
37572
37578
37565
37590
37568
37561
37602
37580
37597
37575
37572
37604
37577
37607
37574
37592
37603
37583
37609
37589
37594
37615
37584
37591
37587
37597
37593
37594
37592
37619
37592
37576
37619
37598
37625
37590
37595
37616
37603
37595
37607
37601
37617
37593
37590
37611
37606
37622
37610
37580
37625
37607
37626
37598
37580
37628
37592
37592
37599
37596
37633
37602
37611
37604
37607
37627
37604
37587
37637
37617
37634
37615
37584
37638
37610
37633
37607
37606
37633
37612
37630
37621
37612
37633
37615
37603
37628
37613
37621
37621
37619
37598
37643
37625
37644
37617
37606
37641
37617
37646
37623
37611
37639
37619
37633
37613
37610
37641
37617
37642
37615
37615
37634
37614
37624
37622
37622
37636
37628
37616
37631
37617
37608
37624
37607
37649
37626
37633
37615
37617
37652
37625
37635
37627
37615
37639
37611
37630
37620
37625
37635
37601
37607
37635
37618
37632
37612
37602
37647
37623
37640
37616
37620
37616
37629
37631
37619
37614
37645
37628
37652
37630
37612
37646
37637
37653
37617
37613
37656
37640
37655
37627
37627
37667
37640
37666
37636
37628
37660
37649
37664
37637
37627
37641
37639
37663
37652
37673
37673
37649
37647
37671
37654
37674
37644
37639
37670
37652
37670
37653
37633
37681
37656
37673
37651
37637
37682
37652
37670
37643
37638
37673
37645
37669
37646
37642
37657
37659
37637
37664
37636
37618
37655
37635
37653
37629
37612
37663
37631
37650
37639
37609
37647
37630
37639
37620
37610
37643
37622
37649
37616
37616
37642
37619
37642
37603
37594
37622
37633
37642
37611
37636
37595
37631
37606
37631
37614
37593
37631
37615
37626
37594
37594
37629
37611
37633
37609
37591
37622
37614
37615
37611
37609
37620
37607
37622
37612
37606
37626
