RED,IR
74693,107162
74693,107162
74693,107162
74737,107162
74721,107208
74721,107208
74721,107208
74721,107208
74721,107208
74721,107208
74721,107208
74719,107173
74719,107173
74719,107173
74719,107173
74719,107173
74719,107173
74719,107173
74670,107188
74670,107188
74670,107188
74670,107188
74670,107188
74670,107188
74670,107188
74765,107188
74710,107180
74710,107180
74710,107180
74710,107180
74710,107180
74710,107180
74746,107223
74745,107249
74773,107192
74768,107194
74705,107172
74797,107202
74745,107252
74785,107208
74784,107232
74786,107207
74777,107252
74734,107205
74776,107135
74772,107207
74807,107217
74764,107266
74794,107217
74794,107238
74766,107216
74813,107236
74758,107280
74790,107214
74809,107201
74759,107236
74844,107234
74751,107280
74810,107209
74805,107246
74710,107180
74710,107180
74710,107180
74710,107180
74784,107235
74820,107211
74734,107240
74803,107233
74808,107261
74815,107241
74789,107222
74762,107268
74844,107233
74803,107253
74814,107249
74784,107187
74806,107279
74852,107226
74800,107273
74758,107259
74814,107204
74785,107288
74833,107234
74806,107285
74837,107257
74789,107281
74838,107228
74827,107184
74784,107251
74849,107264
74807,107279
74849,107231
74814,107221
74778,107292
74830,107245
74807,107270
74864,107244
74831,107231
74804,107297
74813,107211
74822,107250
74860,107218
74812,107289
74851,107252
74812,107285
74856,107236
74814,107225
74756,107251
74850,107230
74788,107281
74872,107243
74822,107264
74770,107274
74832,107221
74824,107280
74889,107251
74821,107269
74775,107269
74854,107232
74844,107284
74878,107244
74821,107289
74860,107265
74796,107265
74844,107237
74865,107188
74814,107277
74870,107259
74823,107257
74860,107204
74853,107254
74845,107274
74821,107296
74827,107235
74907,107230
74849,107259
74842,107259
74852,107193
74856,107284
74910,107221
74862,107284
74880,107267
74844,107249
74839,107243
74879,107200
74835,107285
74914,107242
74860,107294
74922,107246
74879,107269
74846,107274
74894,107227
74885,107306
74921,107236
74877,107295
74848,107268
74903,107242
74911,107299
74940,107228
74870,107259
74994,107314
74921,107325
74859,107266
74925,107261
74896,107281
74942,107280
74911,107337
74936,107256
74928,107290
74938,107260
74896,107265
74869,107270
74955,107259
74935,107286
74937,107264
74920,107260
74916,107294
74976,107269
74963,107294
74956,107290
74915,107314
74877,107273
74978,107239
74943,107306
74978,107293
74948,107310
74973,107261
74956,107285
74974,107277
74959,107276
74912,107275
75006,107268
74994,107314
74945,107274
74979,107305
74956,107246
75007,107299
74988,107317
74967,107304
74981,107247
74964,107309
75035,107284
74977,107317
75009,107315
74968,107315
75030,107281
75010,107306
74954,107266
75012,107268
74960,107331
75048,107288
75019,107310
75013,107293
74999,107256
75007,107354
75061,107296
75043,107305
74984,107343
75059,107306
75021,107328
75095,107282
75026,107328
75026,107337
75019,107254
75092,107320
75097,107278
75032,107320
75062,107289
75008,107292
75057,107328
75106,107311
75067,107360
75081,107327
75047,107279
75076,107350
75116,107305
75078,107377
75074,107313
75072,107271
75082,107325
75120,107314
75067,107378
75105,107332
75099,107356
75139,107304
75098,107349
75069,107347
75103,107277
75087,107368
75136,107306
75092,107384
75086,107323
75100,107283
75120,107384
75121,107315
75097,107378
75078,107351
75097,107332
75123,107294
75121,107345
75082,107346
75125,107286
75127,107360
75161,107316
75126,107374
75149,107353
75095,107361
75162,107325
75118,107321
75079,107345
75158,107336
75112,107391
75169,107319
75122,107342
75073,107363
75166,107345
75137,107376
75174,107325
75129,107338
75081,107354
75154,107336
75156,107402
75168,107332
75131,107368
75148,107351
75111,107360
75156,107326
75126,107295
75134,107349
75160,107357
75120,107324
75177,107332
75115,107329
75170,107339
75111,107371
75178,107312
75155,107346
75102,107357
75192,107331
75125,107377
75185,107324
75146,107334
75151,107341
75127,107370
75110,107327
75167,107274
75130,107348
75207,107334
75157,107406
75179,107326
75167,107341
75117,107307
75195,107331
75153,107377
75187,107322
75160,107310
75134,107353
75219,107347
75147,107375
75216,107337
75172,107341
75170,107312
75104,107341
75203,107341
75216,107337
75132,107315
75202,107318
75157,107381
75216,107335
75200,107358
75175,107324
75203,107318
75169,107373
75229,107336
75198,107361
75169,107337
75201,107322
75192,107390
75239,107339
75182,107351
75188,107348
75200,107299
75156,107360
75271,107307
75201,107381
75253,107371
75183,107383
75210,107342
75225,107343
75173,107334
75237,107333
75183,107391
75224,107350
75221,107363
75215,107339
75242,107374
75259,107326
75245,107381
75206,107345
75236,107329
75193,107408
75251,107343
75251,107401
75256,107356
75235,107436
75247,107355
75232,107403
75239,107356
75250,107300
75219,107420
75259,107347
75244,107394
75196,107342
75278,107353
75225,107428
75252,107367
75262,107381
75206,107363
75275,107381
75226,107437
75282,107368
75257,107388
75267,107374
75256,107416
75246,107381
75241,107379
75276,107373
75277,107396
75277,107409
75241,107416
75244,107373
75285,107331
75252,107440
75281,107399
75244,107393
75243,107388
75309,107361
75260,107447
75299,107402
75263,107417
75286,107380
75281,107336
75230,107429
75295,107386
75280,107437
75328,107378
75276,107441
75303,107403
75262,107421
75227,107386
75315,107357
75270,107444
75299,107403
75272,107372
75296,107406
75320,107381
75281,107433
75276,107401
75293,107376
75305,107391
75281,107430
75250,107421
75286,107343
75271,107417
75343,107377
75283,107474
75304,107405
75262,107414
75328,107400
75306,107353
75264,107423
75311,107413
75294,107444
75296,107395
75306,107348
75289,107466
75301,107421
75277,107424
75315,107382
75277,107355
75255,107434
75332,107385
75311,107435
75327,107379
75284,107455
75322,107412
75255,107415
75320,107381
75164,107376
75272,107397
75289,107455
75261,107404
75293,107409
75298,107442
75293,107390
75278,107436
75210,107386
75323,107366
75257,107426
75275,107383
75253,107428
75225,107368
75278,107332
75206,107377
75272,107369
75236,107430
75262,107373
75254,107379
75247,107347
75215,107338
75193,107389
75251,107353
75225,107379
75182,107321
75221,107356
75170,107400
75235,107341
75199,107362
75137,107364
75202,107336
75164,107376
75198,107321
75194,107335
75183,107347
75125,107332
75136,107339
75168,107305
75146,107281
75114,107347
75174,107322
75132,107348
75179,107285
75124,107248
75102,107339
75126,107306
75132,107327
75122,107284
75087,107242
75081,107315
75113,107289
75105,107318
75111,107268
75089,107324
75097,107296
75057,107294
75036,107273
75079,107209
75052,107336
75076,107269
75059,107299
75053,107256
75061,107209
75041,107310
75054,107239
75050,107275
75038,107232
75042,107321
75055,107267
75014,107263
74998,107236
75059,107194
75008,107299
75041,107254
75025,107291
75055,107218
75000,107263
75017,107266
74973,107266
74937,107222
75047,107185
74995,107283
74992,107248
74974,107240
74966,107227
75043,107207
74982,107275
74999,107222
74950,107209
74983,107220
75028,107202
74984,107279
74993,107199
74960,107242
75004,107191
74958,107202
74969,107258
74963,107189
74958,107234
74986,107164
74949,107253
74987,107217
74954,107238
74949,107152
75013,107169
74958,107255
74976,107195
74938,107220
74931,107177
75012,107164
74965,107261
74979,107196
74946,107226
74979,107184
74942,107207
74975,107207
74942,107181
74931,107185
75019,107174
74967,107247
74989,107194
74930,107222
74943,107175
75011,107154
74963,107229
74970,107196
74946,107197
74977,107195
74928,107160
74958,107191
74935,107161
74964,107162
74995,107170
74950,107216
74953,107195
74945,107159
74954,107191
74999,107154
74950,107226
74968,107189
74948,107211
74946,107184
74988,107169
74947,107244
74963,107183
74951,107212
74929,107183
75011,107153
74956,107227
74977,107169
74970,107192
74939,107169
74961,107124
74896,107199
74974,107160
74964,107207
74989,107154
74939,107205
74946,107175
74947,107180
74984,107185
74951,107151
74926,107202
74946,107181
74980,107159
74965,107176
74967,107155
74942,107218
74871,107163
74994,107128
74967,107193
74976,107159
74945,107205
74959,107144
74969,107162
74917,107121
74946,107138
74936,107200
74981,107143
74976,107173
74959,107125
74965,107117
74918,107198
74982,107138
74972,107163
74889,107127
74975,107168
74962,107174
74991,107133
74966,107177
74924,107151
74933,107165
74934,107165
74958,107166
74979,107117
75005,107173
74943,107186
74904,107142
75025,107129
74981,107171
74998,107182
74959,107193
74931,107149
75034,107119
74967,107192
74999,107184
74953,107190
74941,107155
75019,107118
74992,107220
75006,107172
74961,107181
75038,107153
74986,107170
74944,107193
75004,107133
74990,107199
75063,107135
75002,107180
75004,107189
74979,107109
75027,107206
75051,107147
74996,107183
74997,107195
74999,107205
75030,107197
75004,107142
74992,107178
75048,107199
75004,107212
75072,107171
75021,107182
75033,107190
74994,107194
74966,107150
75061,107128
75026,107207
75061,107196
75011,107198
75032,107168
75057,107126
75027,107211
75042,107204
75019,107203
74998,107158
75079,107136
75026,107230
75042,107188
75031,107203
75020,107159
75041,107119
74982,107207
75075,107182
75046,107221
75055,107137
75007,107158
75011,107199
74997,107151
75026,107168
75069,107160
75019,107219
75019,107187
75024,107110
75042,107213
75066,107156
75017,107220
74990,107173
75063,107148
75055,107177
75058,107155
75026,107227
75042,107159
75026,107185
75036,107145
75051,107118
75020,107190
75045,107146
75051,107198
75077,107126
75046,107131
75031,107200
75048,107164
75045,107177
74997,107145
75052,107142
75046,107221
75041,107241
75051,107159
75054,107174
75057,107187
75036,107164
75019,107111
75016,107170
75097,107126
75024,107226
75061,107182
75034,107207
75071,107159
75056,107143
75038,107185
75093,107178
75036,107182
75080,107157
75053,107109
75036,107228
75057,107169
75062,107176
75056,107164
75063,107129
75018,107202
75082,107156
75073,107210
75083,107135
75045,107210
75072,107172
75029,107175
75020,107159
75088,107133
75041,107241
75024,107181
75074,107161
75077,107183
75060,107176
75052,107162
75041,107199
75095,107173
75071,107196
75064,107159
75067,107141
75026,107203
75120,107166
75080,107204
75098,107178
75056,107229
75094,107177
75092,107180
75042,107168
75096,107143
75047,107217
75094,107171
75092,107187
75032,107175
75125,107191
75075,107224
75104,107169
75113,107177
75041,107199
75127,107198
75072,107231
75133,107179
75074,107197
75083,107208
75082,107224
75083,107199
75148,107190
75100,107190
75090,107193
75062,107220
75139,107197
75116,107216
75119,107199
75121,107180
75088,107235
75158,107185
75112,107215
75109,107201
75100,107161
75093,107207
75175,107192
75120,107221
75138,107218
75101,107251
75113,107205
75138,107201
75060,107201
75166,107216
75113,107267
75166,107223
75140,107233
75089,107207
75146,107187
75102,107259
75074,107206
75140,107204
75109,107170
75135,107197
75147,107207
75170,107201
75153,107250
75157,107237
75122,107235
75092,107225
75181,107186
75129,107232
75178,107225
75134,107268
75172,107221
75188,107252
75122,107218
75211,107224
75146,107280
75208,107227
75172,107219
75124,107237
75194,107243
75139,107266
75218,107206
75161,107213
75117,107249
75178,107187
75146,107271
75225,107231
75174,107257
75201,107242
75147,107247
75158,107239
75179,107223
75158,107269
75171,107262
75153,107275
75215,107217
75186,107250
75161,107249
75192,107211
75151,107292
75242,107215
75181,107245
75186,107256
75173,107205
75167,107246
75240,107223
75184,107280
75212,107250
75161,107278
75218,107228
75200,107264
75145,107254
75216,107216
75175,107282
75239,107238
75202,107250
75148,107266
75221,107230
75175,107280
75243,107252
75197,107241
75200,107237
75211,107253
75217,107230
75236,107245
75171,107262
75210,107228
75171,107267
75254,107242
75230,107270
75231,107225
75205,107303
75173,107233
75255,107189
75229,107288
75239,107266
75205,107276
75156,107250
75281,107220
75217,107275
75245,107265
75193,107268
75149,107241
75256,107176
75216,107275
75244,107253
75196,107281
75251,107232
75217,107251
75191,107226
75205,107194
75194,107264
75252,107212
75230,107216
75223,107249
75207,107235
75196,107243
75234,107251
75179,107209
75246,107228
75212,107267
75261,107224
75226,107254
75250,107198
75198,107262
75164,107230
75236,107178
75208,107208
75269,107240
75213,107283
75222,107217
75236,107244
75188,107219
75245,107230
75215,107270
75233,107211
75224,107224
75169,107195
75261,107220
75215,107263
75248,107201
75232,107224
75197,107206
75219,107169
75174,107216
75221,107209
75223,107229
75191,107242
75199,107231
75185,107200
75242,107185
75233,107150
75207,107249
75228,107216
75215,107224
75236,107180
75261,107154
75231,107273
75219,107190
75236,107220
75212,107185
75222,107134
75185,107244
75230,107204
75249,107226
75267,107168
75209,107247
75238,107207
75214,107187
75201,107192
75273,107169
75210,107261
75237,107187
75238,107231
75211,107189
75272,107197
75221,107266
75194,107188
75266,107183
75249,107198
75244,107220
75201,107244
75231,107148
75252,107218
75297,107172
75238,107273
75262,107212
75237,107232
75298,107169
75242,107235
75207,107223
75261,107150
75252,107244
75311,107182
75255,107246
75206,107227
75273,107182
75287,107240
75317,107192
75239,107233
75221,107218
75306,107186
75285,107251
75297,107188
75283,107267
75279,107222
75259,107235
75264,107179
75221,107266
75352,107227
75280,107266
75291,107235
75289,107195
75286,107221
75322,107213
75282,107240
75238,107196
75362,107190
75311,107249
75308,107235
75259,107278
75248,107213
75344,107194
75287,107263
75338,107246
75286,107271
75325,107229
75321,107249
75330,107212
75292,107276
75250,107233
75347,107217
75315,107279
75323,107219
75307,107262
75271,107224
75382,107217
75304,107259
75322,107238
75320,107209
75296,107243
75346,107227
75319,107216
75319,107259
75291,107259
75323,107238
75321,107256
75363,107226
75312,107312
75343,107246
75351,107260
75339,107217
75319,107212
75310,107298
75341,107247
75335,107279
75325,107250
75374,107242
75345,107308
75348,107263
75351,107284
75321,107232
75339,107228
75311,107296
75406,107246
75368,107295
75387,107277
75345,107320
75346,107245
75365,107264
75304,107247
75373,107253
75332,107316
75346,107256
75344,107214
75345,107275
75320,107266
75328,107244
75361,107255
75356,107280
75346,107242
75332,107252
75267,107267
75384,107230
75340,107301
75366,107253
75329,107320
75328,107255
75343,107266
75341,107237
75318,107228
75284,107269
75342,107244
75325,107266
75326,107215
75297,107243
75272,107268
75318,107214
75307,107243
75296,107217
75289,107205
75258,107238
75343,107229
75285,107222
75299,107217
75226,107238
75247,107207
75267,107216
75277,107204
75252,107208
75212,107199
75241,107156
75260,107226
75252,107182
75218,107230
75166,107190
75255,107133
75228,107218
75236,107177
75166,107226
75134,107162
75247,107156
75198,107188
75205,107160
75159,107177
75188,107136
75192,107167
75170,107117
75156,107103
75139,107156
75180,107139
75149,107151
75147,107120
75113,107102
75092,107157
75162,107103
75126,107140
75092,107142
75094,107137
75101,107132
75118,107084
75084,107103
75077,107107
75054,107086
75013,107104
75120,107049
75049,107114
75107,107111
75056,107143
75067,107076
75047,107063
75012,107092
75059,107105
75009,107113
75032,107076
75027,107010
74996,107106
75033,107089
74977,107090
75042,107049
74998,107003
74940,107080
75030,107038
74973,107092
75028,107033
74979,107065
74991,107057
74935,107075
74953,107031
74968,107019
74944,107050
74930,107060
74936,107012
74945,106998
74972,106970
74918,107058
74942,107021
74908,107017
74908,107014
74969,106991
74902,107078
74924,107008
74891,107003
74940,106972
74900,106967
74845,107015
74900,106945
74892,107022
74947,106966
74880,107029
74916,107001
74861,106978
74861,106983
74925,106949
74866,107028
74894,106996
74852,106928
74877,106986
74889,106953
74863,107026
74881,106980
74859,106948
74890,106974
74883,106950
74840,106995
74842,106976
74876,107007
74896,106963
74844,107004
74873,106990
74850,106940
74851,106958
74883,106940
74835,107008
74826,106960
74862,106917
74871,106984
74870,106933
74837,106994
74767,106947
74874,106915
74850,107002
74861,106942
74829,106996
74837,106923
74833,106964
74811,106924
74842,106886
74802,106986
74855,106932
74836,106973
74817,106929
74838,106871
74853,106978
74790,106932
74835,106939
74818,106930
74831,106954
74810,106965
74853,106941
74836,106945
74834,106919
74833,106902
74779,106946
74848,106880
74825,106968
74857,106942
74803,106982
74830,106901
74842,106938
74778,106901
74848,106929
74813,106954
74836,106910
74825,106895
74810,106926
74852,106951
74804,106952
74812,106916
74858,106855
74812,106955
74847,106944
74794,106956
74857,106913
74811,106940
74829,106932
74805,106931
74791,106931
74851,106906
74804,106904
74771,106943
74814,106874
74797,106967
74850,106887
74801,106950
74756,106940
74826,106913
74811,106960
74837,106915
74793,106927
74743,106919
74823,106883
74805,106967
74831,106882
74786,106957
74811,106912
74794,106941
74835,106913
74811,106851
74784,106957
74830,106921
74803,106950
74809,106891
74809,106861
74789,106977
74800,106920
74808,106950
74805,106898
74797,106898
74803,106970
74774,106900
74802,106919
74829,106892
74782,106947
74805,106929
74776,106933
74765,106896
74818,106858
74775,106986
74803,106901
74784,106927
74763,106896
74848,106881
74787,106987
74807,106915
74801,106898
74786,106911
74842,106909
74776,106951
74796,106917
74813,106873
74770,106890
74838,106918
74784,106957
74821,106906
74801,106929
74827,106886
74799,106941
74808,106950
74799,106914
74802,106937
74800,106909
74812,106902
74777,106953
74786,106885
74791,106937
74800,106879
74800,106870
74775,106954
74808,106887
74824,106913
74831,106885
74796,106910
74737,106908
74798,106861
74811,106909
74824,106876
74796,106952
74797,106899
74820,106928
74764,106879
74841,106876
74776,106963
74792,106888
74804,106871
74803,106888
74827,106906
74780,106941
74774,106878
74836,106827
74813,106922
74799,106914
74792,106907
74803,106879
74785,106907
74811,106875
74843,106909
74784,106926
74833,106905
74819,106908
74765,106878
74811,106875
74787,106931
74851,106877
74800,106896
74767,106883
74832,106896
74798,106933
74856,106881
74796,106891
74751,106898
74823,106876
74777,106935
74853,106880
74814,106911
74822,106911
74793,106926
74817,106885
74833,106837
74802,106920
74826,106918
74802,106919
74835,106890
74789,106835
74820,106911
74785,106901
74800,106906
74829,106915
74828,106840
74787,106927
74844,106911
74832,106940
74868,106871
74823,106920
74846,106903
74793,106865
74793,106909
74870,106863
74819,106945
74839,106914
74817,106924
74810,106887
74875,106862
74822,106972
74867,106908
74814,106911
74802,106898
74880,106872
74814,106980
74864,106907
74824,106921
74812,106874
74846,106869
74795,106945
74850,106882
74840,106959
74851,106869
74850,106938
74829,106915
74810,106920
74861,106929
74863,106882
74849,106896
74821,106917
74856,106905
74851,106921
74815,106889
74872,106882
74814,106956
74887,106899
74866,106926
74867,106905
74832,106928
74778,106906
74868,106840
74845,106909
74891,106937
74832,106960
74855,106908
74864,106934
74803,106882
74868,106901
74834,106968
74885,106917
74855,106928
74799,106908
74883,106929
74843,106904
74825,106898
74857,106928
74854,106958
74893,106974
74794,106916
74900,106869
74864,106950
74892,106934
74857,106968
74884,106912
74877,106953
74831,106918
74884,106925
74864,106997
74895,106913
74879,106940
74827,106917
74931,106952
74841,106966
74904,106933
74887,106930
74826,106934
74884,106922
74841,106961
74927,106914
74895,106966
74902,106947
74864,106964
74867,106927
74914,106883
74871,106915
74900,106946
74847,106933
74885,106954
74913,106897
74908,106955
74914,106936
74869,106971
74911,106927
74912,106877
74885,106978
74931,106969
74882,106978
74936,106941
74904,106943
74914,106951
74898,106942
74868,106938
74958,106913
74888,106985
74921,106958
74879,106968
74873,106937
74967,106894
74896,106987
74945,106950
74882,106967
74874,106932
74956,106904
74915,107007
74927,106964
74900,106960
74964,106948
74869,106932
74939,106986
74916,107000
74912,106933
74963,106936
74926,106988
74944,106964
74900,106971
74893,106955
74992,106944
74954,106997
74955,106977
74901,106937
74947,106959
74977,106934
74935,107014
74931,106958
74937,106898
74941,106979
75005,106924
74947,107026
74983,106959
74945,106995
75005,106946
74962,106987
74918,106984
74972,106935
74978,107006
75016,106942
74954,106994
74913,107001
75009,106946
75007,106956
74962,106975
75002,107037
75000,106983
75015,106968
75017,107002
75019,106967
74967,107022
74964,106983
75000,106948
74964,106963
75005,106943
74983,107037
75027,106993
75005,107015
75019,106970
74994,106978
74977,107022
75006,106979
75017,107016
75007,106957
75010,106967
74996,107037
75032,106994
75025,107024
75018,106982
74999,106977
74998,107003
75068,106985
75025,107034
75041,106987
75011,107050
74990,106996
75048,106981
74991,106987
74996,107044
75046,107062
75007,107028
74991,107001
75066,106961
75027,107044
75039,106997
75004,106972
75017,107004
75074,106990
75025,107064
75036,106994
75037,107042
75046,106978
75023,106957
74991,107010
75048,106987
75048,107051
75070,106983
75024,107060
75025,106996
75050,106957
75056,107042
75074,106981
75012,107060
74980,107003
75079,107004
75072,107036
75011,107050
75099,107000
75076,107002
75033,107007
75053,107027
75043,106989
75070,107011
75025,107019
74988,107002
75091,106971
75036,107033
75073,107030
75019,107053
75035,106991
75080,106957
75043,107039
75101,107035
75044,107038
75001,107006
75132,106984
75043,107051
75063,107022
75045,107029
75064,106989
75076,106944
75021,107034
75095,107016
75046,107054
75105,107001
75064,107032
75078,107022
75044,107016
75039,107018
75099,107000
75057,107013
75059,106993
75087,107016
75084,107035
75096,106977
75060,107020
75040,107022
75093,106987
75111,107051
75091,106992
75061,107065
75046,107029
75059,106944
75073,107003
75115,106964
75073,107077
75110,107023
75078,107054
75139,106997
75076,106982
75052,107062
75105,107011
75076,107026
75067,107008
75123,106996
75076,107080
75076,107014
75107,107020
75093,107002
75079,106992
75036,107039
75068,106994
75095,106977
75114,107003
75077,107032
75069,107029
75150,106986
75116,107058
75129,107017
75093,107064
75030,107011
75150,106999
75127,107045
75127,107011
75090,107059
75043,107002
75158,107013
75088,107054
75141,107030
75097,107067
75092,107022
75143,106979
75072,107024
75150,107025
75078,107087
75142,107022
75120,107065
75122,107023
75089,107042
75067,107024
75161,107036
75129,107034
75101,107040
75096,107029
75054,107014
75161,107023
75114,107028
75118,107079
75147,107018
75095,107065
75167,107032
75090,107052
75118,107057
75094,106997
75074,107040
75175,107008
75117,107085
75145,107064
75108,107071
75117,107029
75160,106971
75120,107113
75155,107050
75122,107054
75084,107026
75152,106983
75105,107097
75154,107023
75106,107078
75131,107019
75129,106982
75064,107070
75140,107027
75118,107079
75170,107022
75125,107034
75102,107024
75105,107053
75116,107034
75152,107037
75099,107063
75150,107036
75089,107059
75123,107018
75138,106961
75087,107097
75130,107029
75101,107053
75139,107005
75105,106999
75060,107050
75126,107013
75129,107076
75142,107014
75109,107072
75095,107032
75075,107035
75057,106998
75144,106983
75066,107074
75112,107024
75066,107011
75070,107003
75123,107008
75061,107065
75075,107003
75073,107002
75045,106970
75085,106993
75048,107040
75022,107028
75152,107037
75025,106962
75059,106948
75004,107017
75063,106987
75049,107017
75054,106968
75005,107015
74957,106986
75037,106959
75015,106997
75003,106950
74981,106929
74947,107020
75016,106946
74972,106984
74989,106949
74950,106975
74897,106936
75011,106946
74944,106992
74973,106970
74917,106985
74936,106911
74957,106972
74899,106909
74918,106907
74886,106974
74934,106923
74897,106919
74889,106866
74854,106943
74869,106917
74914,106888
74884,106906
74829,106919
74893,106904
74844,106944
74897,106894
74837,106901
74806,106913
74809,106841
74797,106884
74888,106866
74801,106886
74836,106891
74781,106867
74741,106882
74861,106854
74788,106889
74781,106865
74766,106807
74768,106884
74811,106827
74761,106886
74752,106851
74745,106781
74750,106855
74778,106814
74753,106887
74708,106832
74715,106803
74756,106813
74738,106806
74718,106817
74732,106806
74711,106839
74694,106791
74732,106760
74716,106879
74711,106806
74711,106795
74674,106785
74725,106798
74691,106848
74697,106768
74703,106796
74644,106780
74706,106788
74658,106820
74703,106780
74693,106804
74698,106781
74665,106833
74628,106767
74689,106712
74666,106799
74671,106772
74637,106826
74590,106771
74704,106755
74656,106802
74653,106778
74647,106790
74620,106793
74689,106795
74637,106746
74679,106783
74634,106811
74675,106744
74661,106779
74621,106738
74630,106749
74575,106769
74696,106754
74643,106783
74645,106776
74636,106790
74597,106752
74687,106747
74636,106791
74620,106773
74635,106712
74630,106799
74672,106738
74636,106753
74629,106774
74607,106722
74587,106749
74670,106733
74614,106786
74645,106775
74614,106776
74656,106802
74589,106783
74624,106725
74602,106785
74634,106764
74598,106738
74631,106791
74598,106722
74653,106741
74612,106810
74653,106753
74638,106757
74585,106720
74660,106758
74601,106793
74650,106747
74621,106758
74627,106748
74617,106778
74546,106740
74663,106714
74626,106755
74647,106760
74618,106796
74612,106749
74642,106701
74591,106754
74658,106764
74602,106778
74584,106734
74672,106679
74623,106788
74651,106764
74638,106783
74645,106772
74646,106703
74613,106737
74596,106793
74602,106749
74679,106726
74630,106771
74650,106757
74605,106769
74572,106720
74671,106711
74610,106786
74645,106750
74621,106762
74591,106730
74676,106741
74613,106788
74631,106752
74610,106727
74602,106730
74678,106722
74610,106802
74635,106762
74608,106778
74660,106737
74629,106775
74619,106750
74613,106705
74614,106760
74684,106740
74627,106777
74638,106772
74632,106759
74631,106716
74664,106753
74624,106714
74655,106757
74605,106772
74609,106748
74683,106705
74629,106797
74659,106770
74632,106773
74685,106766
74644,106758
74642,106784
74636,106718
74621,106762
74712,106733
74620,106774
74648,106767
74625,106729
74634,106778
74698,106725
74636,106792
74633,106764
74657,106708
74658,106811
74669,106728
74641,106791
74638,106763
74640,106697
74632,106767
74671,106738
74669,106778
74639,106805
74647,106775
74684,106738
74591,106729
74672,106744
74624,106807
74683,106744
74652,106768
74596,106755
74681,106775
74649,106781
74700,106731
74648,106729
74604,106784
74693,106745
74644,106790
74695,106749
74649,106767
74672,106783
74637,106783
74664,106738
74674,106698
74618,106758
74690,106772
74644,106778
74681,106752
74672,106700
74638,106776
74668,106770
74646,106774
74683,106773
74686,106753
74686,106757
74643,106762
74652,106808
74661,106735
74663,106700
74625,106780
74690,106747
74655,106793
74707,106731
74650,106798
74678,106764
74634,106733
74638,106741
74704,106736
74673,106806
74666,106753
74657,106691
74660,106772
74701,106723
74654,106786
74621,106748
74704,106741
74690,106789
74695,106734
74658,106793
74682,106752
74673,106764
74655,106723
74704,106717
74651,106834
74648,106757
74702,106738
74648,106711
74682,106782
74649,106766
74666,106757
74636,106745
74729,106723
74669,106805
74670,106756
74657,106748
74645,106746
74708,106741
74645,106826
74675,106739
74686,106759
74701,106727
74660,106757
74605,106757
74674,106707
74683,106787
74691,106724
74654,106800
74612,106752
74681,106728
74692,106790
74712,106746
74662,106788
74612,106757
74706,106739
74693,106778
74700,106731
74675,106774
74645,106742
74713,106729
74675,106756
74678,106753
74672,106813
74685,106734
74704,106774
74687,106725
74653,106756
74627,106762
74711,106738
74683,106788
74674,106745
74662,106714
74650,106795
74709,106735
74678,106778
74651,106766
74675,106719
74648,106796
74724,106737
74689,106759
74690,106746
74678,106775
74673,106741
74698,106724
74659,106746
74704,106755
74680,106796
74694,106749
74693,106750
74695,106783
74712,106782
74663,106793
74692,106732
74768,106738
74682,106787
74677,106786
74680,106765
74658,106748
74731,106714
74665,106832
74704,106762
74676,106798
74737,106755
74682,106760
74669,106767
74699,106710
74667,106781
74754,106745
74693,106796
74646,106782
74722,106707
74702,106811
74743,106736
74702,106790
74652,106783
74741,106730
74722,106822
74723,106754
74701,106822
74742,106796
74704,106805
74714,106754
74727,106772
74693,106817
74701,106782
74675,106785
74765,106761
74712,106826
74746,106800
74708,106818
74725,106784
74792,106778
74729,106838
74745,106792
74733,106745
74738,106793
74774,106768
74742,106851
74768,106806
74743,106805
74774,106772
74778,106742
74724,106836
74796,106791
74769,106849
74799,106795
74778,106837
74714,106822
74802,106815
74786,106849
74800,106801
74778,106767
74704,106805
74825,106919
74795,106817
74795,106839
74772,106769
74769,106833
74789,106775
74780,106863
74842,106814
74806,106877
74807,106833
74780,106859
74821,106804
74807,106795
74764,106832
74849,106860
74791,106871
74825,106817
74810,106797
74790,106881
74847,106843
74806,106866
74816,106829
74823,106776
74801,106895
74846,106838
74845,106873
74880,106852
74820,106870
74804,106858
74804,106812
74821,106862
74886,106831
74894,106919
74853,106905
74847,106848
74850,106846
74863,106821
74858,106822
74841,106924
74857,106859
74856,106866
74791,106839
74888,106833
74837,106910
74897,106852
74873,106880
74863,106847
74837,106881
74790,106858
74882,106818
74862,106896
74895,106869
74857,106909
74829,106857
74924,106803
74856,106898
74884,106890
74870,106913
74818,106851
74934,106859
74873,106886
74889,106881
74863,106864
74841,106860
74894,106827
74884,106838
74828,106874
74877,106874
74888,106872
74910,106856
74863,106909
74832,106870
74919,106845
74892,106909
74908,106857
74881,106899
74841,106860
74932,106861
74897,106896
74892,106874
74897,106846
74852,106922
74948,106871
74890,106876
74911,106880
74895,106905
74846,106871
74915,106831
74882,106874
74940,106885
74900,106932
74926,106869
74919,106886
74866,106845
74955,106876
74894,106912
74932,106864
74906,106845
74888,106878
74901,106891
74922,106929
74960,106882
74937,106876
74926,106879
74909,106822
74868,106878
74991,106823
74910,106910
74967,106886
74909,106905
74937,106867
74928,106894
74879,106853
74972,106895
74917,106904
74942,106860
74940,106819
74920,106900
74943,106880
74912,106899
74907,106843
74962,106816
74936,106933
74962,106890
74910,106907
74963,106863
74920,106832
74878,106894
74903,106863
74942,106870
74947,106878
74927,106889
74919,106919
74921,106900
74913,106862
74994,106816
74954,106929
74943,106879
74924,106835
74947,106883
74974,106861
74937,106935
74962,106881
74951,106880
74905,106846
74975,106828
74932,106910
74976,106868
74965,106904
74989,106846
74956,106909
74890,106897
74967,106834
74969,106913
74988,106848
74961,106919
74894,106868
74983,106849
74971,106913
74988,106872
74935,106895
74942,106899
74980,106811
75001,106872
74989,106854
74933,106903
74991,106838
74980,106910
75015,106852
74946,106929
74979,106886
74972,106903
74941,106859
75032,106851
74984,106934
74995,106876
74981,106840
75009,106910
75007,106864
74963,106935
74926,106886
75049,106876
75011,106918
75019,106875
74990,106937
74994,106875
74998,106871
74961,106888
75036,106884
75010,106963
75016,106902
75024,106910
75022,106875
74998,106936
75004,106898
74992,106896
75053,106868
74977,106888
75048,106920
74994,106935
75050,106895
75029,106860
74996,106902
75065,106930
75024,106938
75082,106890
75031,106911
75031,106917
75031,106878
74991,106900
75096,106895
75041,106931
75053,106921
75019,106920
75021,106899
75111,106891
75029,106931
75030,106930
75047,106860
75050,106968
75083,106877
75036,106950
74999,106923
75033,106856
75061,106873
74995,106946
75071,106925
75013,106960
75039,106888
75038,106886
75041,106864
75030,106975
75075,106900
75038,106944
75021,106903
75061,106878
75028,106989
75027,106911
75034,106929
74986,106891
75061,106910
75005,106968
75017,106914
75039,106929
74997,106881
75010,106873
74983,106916
75038,106871
75033,106943
75016,106867
74992,106937
74958,106894
75010,106832
75001,106915
75008,106900
74943,106923
74945,106853
74987,106853
74955,106850
74960,106901
74928,106880
74913,106849
74986,106815
74933,106902
74964,106887
74933,106889
74942,106832
74934,106855
74906,106833
74920,106804
74867,106862
74944,106817
74902,106842
74899,106838
74886,106791
74880,106858
74925,106815
74863,106819
74823,106833
74896,106809
74866,106863
74916,106789
74851,106823
74814,106833
74832,106750
74820,106831
74905,106806
74838,106855
74838,106831
74806,106841
74835,106788
74851,106781
74816,106833
74836,106822
74796,106839
74795,106797
74843,106776
74798,106853
74779,106810
74793,106746
74792,106841
74817,106791
74763,106838
74755,106792
74769,106758
74740,106778
74797,106762
74768,106832
74775,106766
74764,106781
74792,106750
74735,106749
74721,106800
74757,106759
74759,106783
74688,106733
74750,106765
74705,106810
74757,106761
74838,106855
74651,106702
74739,106786
74731,106758
74678,106769
74734,106683
74745,106750
74719,106756
74647,106768
74715,106710
74702,106770
74726,106736
74692,106798
74687,106745
74706,106695
74696,106760
74715,106716
74668,106791
74622,106731
74738,106698
74689,106747
74700,106722
74665,106713
74634,106716
74720,106726
74672,106750
74685,106711
74648,106752
74679,106716
74688,106703
74624,106712
74711,106715
74638,106770
74651,106702
74689,106692
74670,106693
74663,106758
74634,106738
74669,106702
74693,106641
74658,106769
74685,106730
74642,106731
74670,106709
74652,106675
74635,106762
74685,106737
74646,106749
74708,106701
74667,106729
74675,106744
74649,106710
74631,106716
74723,106693
74674,106728
74646,106729
74651,106648
74672,106772
74702,106707
74672,106752
74623,106726
74698,106703
74707,106748
74708,106694
74669,106766
74656,106706
74636,106697
74693,106715
74662,106727
74688,106754
74693,106720
74683,106761
74720,106693
74695,106677
74666,106773
74696,106730
74700,106741
74645,106706
74725,106707
74681,106781
74709,106725
74697,106739
74644,106694
74719,106713
74659,106775
74711,106721
74713,106753
74716,106708
74687,106782
74653,106746
74684,106661
74701,106738
74721,106726
74682,106768
74641,106724
74744,106685
74700,106757
74682,106755
74678,106758
74681,106746
74695,106727
74712,106703
74711,106713
74698,106774
74720,106726
74726,106760
74734,106726
74689,106757
74676,106732
74700,106690
74715,106741
74739,106729
74720,106791
74700,106737
74748,106692
74711,106750
74726,106751
74711,106778
74652,106736
74787,106712
74716,106792
74730,106743
74696,106793
74701,106726
74739,106704
74702,106765
74740,106763
74693,106795
74769,106743
74775,106755
74716,106769
74730,106800
74711,106746
74748,106766
74782,106742
74734,106812
74727,106753
74735,106706
74752,106793
74757,106733
74719,106803
74678,106732
74755,106708
74755,106779
74789,106738
74739,106813
74745,106742
74763,106788
74740,106743
74737,106718
74747,106801
74752,106754
74770,106777
74714,106719
74775,106745
74730,106803
74782,106738
74763,106758
74747,106759
74788,106773
74745,106785
74755,106724
74774,106730
74753,106777
74766,106769
74720,106755
74791,106735
74764,106728
74696,106747
74779,106762
74750,106793
74820,106748
74771,106761
74716,106772
74802,106758
74753,106802
74807,106742
74775,106709
74767,106807
74792,106763
74783,106762
74778,106746
74777,106703
74750,106821
74804,106746
74799,106769
74803,106740
74777,106806
74787,106754
74757,106750
74752,106754
74814,106738
74761,106817
74758,106770
74760,106786
74802,106791
74779,106753
74810,106758
74727,106749
74835,106738
74802,106783
74811,106735
74764,106802
74725,106736
74817,106726
74775,106790
74812,106749
74771,106801
74798,106762
74805,106773
74762,106744
74809,106728
74743,106814
74799,106742
74809,106779
74709,106754
74818,106759
74754,106792
74807,106739
74823,106694
74759,106781
74792,106766
74757,106776
74826,106752
74781,106758
74742,106787
74755,106751
74759,106728
74786,106718
74776,106725
74720,106763
74759,106707
74774,106791
74812,106724
74758,106772
74720,106749
74789,106736
74783,106776
74802,106724
74763,106727
74735,106796
74795,106739
74802,106775
74806,106709
74768,106802
74739,106758
74758,106677
74772,106763
74806,106735
74757,106800
74780,106748
74773,106753
74757,106724
74822,106724
74762,106813
74783,106727
74801,106702
74769,106756
74789,106767
74709,106746
74744,106745
74831,106748
74785,106760
74816,106773
74757,106780
74758,106741
74827,106688
74754,106753
74820,106763
74761,106785
74824,106757
74800,106748
74767,106776
74820,106783
74767,106796
74776,106745
74836,106710
74766,106824
74797,106752
74787,106761
74763,106728
74821,106718
74779,106832
74815,106768
74803,106797
74834,106740
74778,106776
74748,106788
74801,106702
74827,106754
74831,106749
74787,106753
74799,106736
74800,106744
74784,106791
74769,106761
74863,106752
74815,106816
74821,106778
74797,106739
74794,106775
74830,106741
74776,106836
74813,106784
74807,106783
74785,106766
74825,106710
74802,106842
74819,106776
74818,106806
74850,106741
74801,106790
74766,106776
74853,106766
74827,106820
74826,106758
74825,106753
74811,106831
74834,106786
74845,106818
74785,106769
74827,106754
74809,106785
74838,106749
74832,106783
74859,106783
74862,106798
74811,106829
74870,106781
74834,106804
74815,106812
74856,106762
74825,106835
74908,106805
74840,106821
74817,106823
74877,106808
74857,106849
74877,106791
74840,106753
74840,106864
74870,106825
74872,106846
74887,106785
74856,106776
74814,106830
74873,106792
74875,106862
74932,106794
74879,106864
74892,106846
74884,106782
74897,106837
74858,106803
74890,106869
74888,106826
74886,106834
74929,106785
74928,106819
74886,106908
74899,106828
74905,106827
74849,106819
74942,106826
74890,106893
74918,106815
74908,106849
74932,106833
74906,106865
74834,106834
74929,106812
74922,106868
74937,106827
74907,106875
74870,106857
74919,106829
74926,106854
74872,106836
74937,106821
74889,106890
74961,106821
74939,106872
74907,106856
74911,106818
74883,106870
74945,106833
74930,106842
74914,106882
74938,106843
74949,106875
74953,106881
74892,106837
74973,106869
74910,106911
74970,106838
74956,106824
74929,106884
74973,106874
74915,106876
74950,106847
74940,106788
74934,106908
74972,106870
74935,106888
74986,106854
74947,106879
74960,106878
74937,106848
74916,106860
75021,106842
74967,106885
74994,106882
74951,106862
74943,106858
75019,106836
74954,106884
74930,106882
74973,106868
74973,106876
74986,106857
74907,106884
74989,106878
74969,106841
74953,106877
75009,106849
74967,106927
74993,106863
74974,106899
75042,106864
74978,106893
74946,106896
75017,106862
74986,106885
75019,106853
74984,106837
74974,106915
75007,106874
75019,106895
74968,106852
74987,106833
74971,106913
75005,106874
75007,106896
75028,106861
74980,106892
74943,106896
75016,106833
75016,106917
75025,106876
74976,106914
74965,106923
74993,106887
75007,106869
75001,106872
74961,106885
75004,106840
75013,106922
75040,106846
75003,106915
74940,106886
75037,106876
75020,106906
75019,106856
74990,106937
75012,106882
75013,106872
74991,106864
75030,106844
74998,106940
75033,106876
75028,106909
75011,106847
75030,106856
75001,106948
75036,106852
75017,106885
74971,106847
75053,106892
75005,106939
75033,106880
75034,106863
75042,106826
74978,106925
75033,106857
75000,106896
75025,106890
74982,106874
75063,106877
75014,106909
75064,106877
75040,106894
75008,106876
75060,106882
75012,106909
75057,106857
75049,106805
75032,106948
75035,106863
75021,106884
75004,106862
75043,106827
75047,106933
75050,106881
75061,106915
75086,106852
75038,106905
75007,106898
75058,106828
75050,106913
75093,106845
75036,106932
74997,106900
75074,106839
75090,106847
75080,106864
75029,106892
75051,106878
75092,106885
75087,106925
75084,106883
75048,106906
75016,106887
75126,106868
75070,106907
75098,106890
75058,106943
75073,106864
75094,106905
75032,106875
75111,106895
75061,106936
75102,106892
75110,106920
75037,106877
75125,106917
75071,106921
75084,106890
75127,106847
75056,106925
75128,106913
75060,106943
75138,106884
75098,106875
75043,106916
75105,106880
75075,106936
75116,106889
75129,106889
75090,106943
75109,106935
75038,106924
75169,106889
75104,106964
75141,106933
75112,106888
75123,106967
75160,106918
75112,106963
75082,106930
75121,106888
75124,106978
75172,106921
75124,106971
75125,106938
75108,106929
75101,106914
75174,106882
75124,106990
75142,106924
75111,106951
75087,106910
75159,106914
75101,106983
75121,106928
75135,106882
75138,106938
75105,106880
75010,106849
75076,106930
75079,106929
75131,106935
75123,106906
75079,106956
75130,106922
75083,106931
75125,106879
75071,106926
75100,106934
75053,106865
75078,106904
75128,106887
75065,106905
75052,106918
75048,106834
75062,106937
75104,106894
75062,106931
75000,106898
75079,106870
75063,106912
75076,106862
75019,106925
74967,106895
75027,106833
75025,106897
75056,106853
74992,106939
75011,106875
74998,106894
75010,106849
74988,106830
75002,106903
74987,106831
74980,106849
74944,106822
74983,106857
74942,106889
74955,106830
74977,106769
74926,106835
74978,106847
74924,106870
74948,106832
74926,106851
74891,106803
74922,106788
74866,106833
74968,106786
74908,106841
74922,106804
74864,106847
74814,106782
74947,106783
74884,106810
74901,106806
74865,106760
74842,106817
74915,106780
74850,106790
74816,106805
74853,106728
74835,106787
74851,106769
74830,106709
74827,106789
74837,106745
74830,106774
74811,106747
74807,106718
74775,106791
74813,106734
74812,106765
74758,106735
74831,106735
74771,106791
74783,106728
74806,106670
74768,106786
74795,106757
74742,106769
74744,106723
74785,106661
74756,106746
74782,106735
74730,106737
74800,106710
74750,106719
74722,106725
74722,106683
74728,106741
74781,106708
74715,106736
74677,106713
74720,106715
74743,106703
74730,106706
74752,106744
74687,106733
74727,106703
74736,106741
74757,106693
74721,106698
74673,106706
74760,106694
74726,106750
74762,106685
74706,106751
74705,106710
74687,106642
74702,106712
74743,106683
74691,106758
74638,106677
74747,106659
74708,106724
74716,106683
74680,106659
74672,106719
74737,106665
74699,106705
74685,106699
74688,106655
74668,106702
74754,106669
74703,106709
74675,106714
74708,106723
74703,106728
74742,106694
74701,106692
74688,106657
74662,106718
74722,106669
74695,106726
74630,106673
74723,106704
74664,106711
74725,106688
74673,106612
74675,106735
74712,106703
74672,106710
74725,106677
74672,106704
74635,106694
74662,106643
74677,106692
74741,106678
74697,106711
74716,106716
74677,106652
74700,106720
74725,106677
74705,106720
74627,106694
74727,106672
74720,106719
74731,106654
74713,106675
74686,106709
74700,106702
74762,106682
74697,106719
74739,106692
74707,106736
74726,106679
74709,106697
74676,106693
74706,106668
74692,106725
74758,106677
74723,106680
74661,106680
74759,106708
74686,106725
74719,106679
74726,106636
74695,106757
74728,106689
74692,106728
74713,106663
74726,106632
74687,106740
74734,106712
74719,106726
74751,106688
74707,106738
74703,106705
74708,106629
74728,106701
74733,106691
74683,106720
74733,106700
74720,106722
74744,106693
74730,106639
74704,106744
74755,106700
74720,106725
74739,106694
74704,106687
74694,106740
74756,106701
74721,106748
74769,106694
74725,106743
74740,106736
74752,106667
74753,106726
74769,106694
74744,106766
74721,106724
74762,106678
74779,106768
74780,106711
74735,106746
74717,106709
74815,106714
74766,106758
74799,106727
74757,106779
74747,106754
74793,106729
74796,106727
74764,106760
74742,106762
74757,106728
74780,106678
74779,106747
74808,106739
74753,106752
74721,106743
74826,106734
74766,106764
74775,106757
74756,106680
74774,106787
74816,106733
74776,106768
74752,106748
74779,106662
74784,106762
74840,106715
74779,106786
74781,106746
74768,106773
74808,106704
74789,106677
74774,106793
74806,106745
74784,106776
74765,106715
74824,106704
74792,106774
74791,106738
74836,106712
74810,106729
74824,106730
74773,106777
74725,106737
74860,106704
74815,106754
74817,106736
74779,106765
74811,106726
74812,106737
74762,106714
74835,106725
74788,106790
74827,106728
74826,106692
74784,106759
74814,106749
74785,106751
74777,106713
74849,106686
74804,106789
74815,106737
74774,106738
74774,106734
74853,106696
74807,106787
74819,106727
74799,106740
74824,106704
74836,106723
74838,106675
74799,106783
74798,106747
74769,106718
74814,106689
74781,106741
74835,106757
74790,106750
74775,106715
74843,106682
74798,106800
74827,106750
74787,106751
74780,106722
74853,106680
74795,106788
74841,106737
74805,106764
74852,106722
74819,106749
74765,106747
74815,106688
74811,106782
74869,106691
74811,106768
74760,106738
74844,106705
74836,106768
74830,106701
74801,106715
74792,106761
74836,106723
74851,106729
74808,106739
74807,106773
74817,106718
74811,106677
74820,106755
74863,106713
74810,106796
74829,106714
74826,106745
74812,106715
74835,106688
74811,106801
74823,106721
74843,106739
74753,106716
74844,106734
74798,106777
74827,106725
74828,106714
74775,106720
74850,106716
74792,106755
74847,106706
74828,106741
74822,106720
74803,106734
74751,106723
74869,106697
74810,106753
74848,106728
74824,106760
74796,106743
74848,106738
74846,106693
74811,106768
74850,106717
74808,106764
74788,106732
74868,106684
74807,106779
74828,106732
74826,106764
74836,106706
74822,106690
74766,106758
74845,106705
74848,106774
74858,106712
74810,106778
74785,106732
74829,106683
74847,106754
74848,106727
74821,106767
74791,106737
74857,106721
74858,106756
74807,106709
74837,106697
74812,106772
74877,106722
74843,106735
74849,106736
74821,106761
74831,106765
74859,106731
74851,106755
74830,106800
74861,106753
74831,106773
74828,106734
74904,106722
74853,106782
74861,106740
74895,106681
74878,106768
74898,106747
74848,106815
74793,106747
74905,106728
74887,106790
74890,106762
74858,106806
74881,106755
74912,106745
74833,106754
74907,106771
74868,106820
74899,106762
74922,106782
74861,106772
74934,106765
74887,106831
74937,106772
74878,106775
74899,106773
74885,106833
74891,106801
74970,106767
74909,106768
74864,106810
74955,106795
74903,106831
74969,106772
74916,106823
74926,106803
74903,106761
74902,106806
74990,106779
74937,106830
74929,106808
74945,106746
74960,106841
74976,106776
74955,106806
74920,106834
74964,106797
74967,106833
74984,106775
74943,106785
74906,106812
74984,106801
74967,106836
74984,106793
74936,106862
74971,106821
74959,106815
74987,106819
74910,106796
74953,106861
74970,106767
75031,106766
74973,106838
74995,106826
74969,106822
74942,106859
75036,106801
74982,106847
74974,106835
74985,106766
74967,106863
75032,106815
74976,106869
74996,106851
74968,106857
74972,106812
75020,106750
74994,106882
75020,106857
74972,106871
74975,106821
75052,106788
75001,106907
75023,106832
74983,106792
75023,106836
75055,106829
75002,106881
75002,106851
75004,106771
75025,106814
75037,106821
75019,106861
75012,106846
75033,106803
75001,106839
75039,106859
75013,106889
75030,106831
75026,106802
75013,106855
75048,106860
75010,106890
74980,106834
75107,106860
75038,106881
75062,106877
75034,106805
75020,106879
75091,106836
75032,106901
75051,106882
75027,106824
75010,106858
75088,106828
75060,106923
75082,106878
75041,106887
75055,106842
75076,106814
75024,106908
75053,106869
75067,106900
75097,106870
75095,106864
75066,106944
75091,106880
75076,106893
75050,106882
75113,106885
75058,106949
75084,106876
75080,106897
75060,106854
75092,106839
75054,106923
75129,106860
75093,106897
75122,106852
75074,106877
75074,106934
75143,106894
75094,106902
75051,106863
75115,106911
75093,106933
75129,106871
75107,106836
75086,106931
75132,106920
75069,106916
75151,106886
75092,106886
75106,106920
75079,106905
75111,106904
75181,106900
75114,106936
75140,106919
75090,106841
75109,106911
75160,106891
75110,106930
75064,106903
75144,106876
75124,106924
75152,106884
75111,106917
75074,106910
75160,106900
75137,106919
75153,106872
75099,106973
75102,106896
75108,106839
75148,106915
75167,106896
75119,106960
75104,106910
75163,106842
75137,106961
75152,106901
75145,106951
75151,106886
75171,106926
75144,106887
75150,106868
75108,106912
75132,106936
75141,106878
75173,106856
75148,106902
75189,106932
75148,106964
75174,106899
75184,106932
75123,106883
75187,106897
75148,106958
75186,106903
75173,106939
75110,106911
75190,106926
75133,106939
75157,106895
75189,106855
75158,106971
75177,106913
75149,106954
75165,106902
75181,106866
75163,106975
75207,106924
75157,106946
75228,106907
75155,106933
75171,106926
75154,106886
75200,106919
75202,106884
75170,106931
75120,106935
75203,106884
75199,106941
75214,106896
75184,106892
75160,106952
75195,106913
75224,106944
75170,106897
75205,106896
75161,106963
75201,106913
75186,106951
75207,106903
75164,106983
75126,106922
75212,106856
75208,106961
75204,106937
75171,106953
75141,106923
75269,106918
75201,106930
75163,106918
75193,106866
75183,106966
75222,106926
75185,106928
75182,106974
75162,106935
75209,106923
75229,106913
75178,106979
75213,106935
75164,106944
75174,106909
75214,106869
75190,106969
75200,106915
75172,106947
75149,106907
75217,106901
75172,106954
75171,106910
75195,106864
75199,106947
75192,106893
75163,106955
75115,106916
75212,106857
75172,106935
75195,106900
75142,106966
75167,106904
75181,106916
75117,106883
75178,106888
75137,106945
75144,106875
75144,106823
75141,106847
75108,106930
75099,106894
75111,106904
75137,106878
75095,106836
75133,106847
75092,106917
75157,106871
75127,106883
75110,106868
75095,106883
75013,106845
75116,106811
75090,106885
75103,106868
75075,106884
74995,106847
75115,106819
75072,106862
75063,106859
75045,106809
75035,106871
75060,106819
75042,106832
74977,106848
75055,106808
75026,106852
75046,106805
75010,106858
74945,106819
75014,106818
75007,106805
74984,106812
74992,106851
74983,106799
74988,106794
74981,106822
74984,106780
74972,106766
74932,106831
74968,106773
74954,106789
74917,106785
74972,106801
74895,106799
74962,106754
74917,106698
74912,106803
74940,106777
74896,106798
74950,106759
74888,106780
74843,106767
74897,106710
74857,106795
74917,106731
74875,106770
74817,106754
74889,106736
74863,106766
74878,106707
74854,106716
74849,106728
74823,106756
74881,106746
74806,106711
74823,106760
74837,106776
74826,106704
74840,106712
74772,106699
74842,106690
74787,106751
74838,106698
74805,106723
74788,106691
74796,106676
74771,106742
74832,106698
74797,106702
74767,106713
74800,106707
74755,106724
74746,106684
74827,106644
74764,106738
74783,106708
74747,106726
74727,106669
74770,106618
74708,106743
74802,106676
74747,106721
74801,106662
74765,106661
74754,106689
74741,106615
74739,106691
74813,106642
74785,106680
74732,106710
74706,106650
74783,106626
74739,106693
74756,106686
74723,106712
74676,106658
74810,106657
74729,106718
74752,106677
74707,106692
74751,106660
74731,106656
74689,106652
74766,106690
74729,106712
74758,106648
74748,106644
74718,106698
74748,106684
74696,106702
74698,106664
74791,106633
74732,106736
74725,106671
74717,106600
74711,106671
74746,106645
74700,106710
74722,106713
74720,106681
74720,106651
74723,106600
74684,106690
74747,106667
74711,106689
74715,106664
74743,106632
74710,106731
74747,106655
74752,106612
74730,106692
74734,106677
74706,106712
74681,106652
74765,106613
74713,106691
74748,106684
74705,106698
74742,106645
74729,106672
74665,106654
74739,106655
74711,106709
74754,106648
74725,106683
74660,106674
74752,106659
74673,106659
74739,106652
74721,106624
74704,106696
74716,106695
74701,106711
74760,106660
74690,106675
74697,106679
74699,106616
74706,106691
74759,106647
74702,106706
74722,106682
74684,106672
74674,106667
74764,106634
74698,106715
74716,106680
74683,106609
74759,106727
74730,106651
74697,106696
74662,106674
74729,106663
74738,106683
74718,106640
74703,106636
74681,106686
74745,106654
74720,106708
74752,106659
74793,106705
74689,106667
74713,106641
74706,106668
74704,106648
74673,106680
74745,106646
74704,106729
74760,106659
74702,106663
74680,106695
74755,106676
74722,106691
74725,106672
74710,106616
74714,106730
74737,106689
74737,106690
74731,106659
74708,106624
74679,106719
74749,106668
74748,106715
74772,106669
74727,106719
74691,106686
74754,106662
74743,106708
74742,106662
74738,106675
74726,106734
74749,106686
74793,106705
74671,106670
74729,106731
74729,106667
74754,106705
74735,106706
74784,106674
74731,106734
74731,106670
74752,106707
74727,106650
74754,106645
74719,106746
74758,106691
74774,106709
74697,106652
74788,106690
74705,106716
74782,106678
74768,106631
74723,106686
74774,106719
74726,106697
74724,106673
74763,106610
74745,106740
74784,106699
74719,106712
74799,106660
74760,106705
74696,106688
74767,106673
74742,106727
74787,106680
74752,106616
74702,106700
74731,106687
74796,106650
74775,106719
74778,106681
74755,106664
74740,106715
74795,106679
74777,106707
74760,106690
74762,106669
74720,106687
74823,106663
74768,106724
74791,106714
74750,106739
74765,106686
74782,106647
74762,106733
74782,106703
74754,106721
74732,106688
74849,106657
74756,106716
74774,106711
74756,106644
74780,106721
74804,106684
74791,106735
74736,106702
74738,106707
74804,106733
74750,106666
74809,106719
74790,106702
74771,106683
74772,106691
74826,106682
74776,106755
74765,106694
74801,106649
74803,106735
74809,106697
74771,106736
74733,106704
74847,106710
74788,106709
74808,106695
74779,106683
74742,106731
74863,106681
74796,106729
74801,106709
74763,106733
74771,106684
74824,106643
74778,106728
74807,106715
74755,106731
74752,106695
74834,106677
74786,106711
74721,106739
74780,106686
74831,106722
74754,106689
74796,106755
74749,106706
74793,106644
74801,106715
74832,106685
74768,106727
74796,106702
74771,106731
74793,106669
74785,106630
74771,106750
74792,106690
74777,106713
74757,106662
74816,106663
74774,106757
74783,106687
74807,106647
74739,106683
74822,106718
74757,106700
74785,106671
74794,106631
74774,106693
74814,106697
74772,106727
74838,106672
74794,106666
74757,106651
74771,106715
74736,106680
74796,106616
74795,106620
74771,106748
74818,106707
74772,106697
74763,106677
74819,106644
74767,106748
74767,106668
74791,106620
74796,106696
74830,106648
74772,106748
74795,106689
74800,106687
74751,106676
74790,106644
74769,106741
74819,106684
74809,106719
74771,106658
74818,106671
74795,106741
74812,106691
74799,106712
74752,106687
74836,106692
74783,106732
74818,106675
74821,106707
74813,106713
74823,106703
74801,106659
74805,106717
74867,106674
74805,106737
74816,106710
74797,106709
74806,106706
74834,106635
74806,106756
74820,106707
74802,106695
74799,106717
74862,106686
74802,106738
74784,106700
74867,106665
74841,106728
74845,106705
74806,106734
74781,106697
74877,106697
74831,106736
74843,106711
74818,106734
74799,106709
74854,106657
74826,106705
74852,106734
74843,106701
74814,106719
74883,106699
74856,106717
74821,106718
74859,106707
74830,106663
74842,106721
74874,106723
74832,106766
74827,106704
74883,106667
74855,106752
74876,106740
74851,106786
74872,106737
74874,106728
74817,106727
74895,106739
74842,106780
74883,106713
74887,106703
74859,106740
74895,106737
74845,106760
74850,106721
74925,106708
74882,106767
74876,106756
74860,106717
74896,106757
74933,106728
74865,106770
74875,106708
74844,106713
74930,106720
74961,106780
74885,106813
74919,106744
74907,106768
74894,106740
74944,106744
74910,106792
74868,106751
74974,106719
74934,106796
74954,106774
74917,106799
74869,106765
75002,106743
74947,106802
74964,106774
74922,106802
74917,106752
74981,106721
74932,106778
74982,106787
74930,106792
74968,106783
74959,106759
74932,106779
74980,106794
74944,106797
74933,106728
75012,106766
75007,106760
74969,106794
74984,106819
74913,106777
74984,106816
74932,106758
75032,106793
74975,106844
74996,106783
75005,106794
74966,106781
75006,106759
74963,106829
75041,106780
75000,106811
74995,106807
74984,106759
74982,106844
75049,106780
75011,106791
74982,106819
75030,106813
75011,106831
75032,106796
75020,106759
75009,106853
75033,106814
75022,106821
75053,106786
75019,106818
74974,106830
75055,106766
75060,106796
75019,106832
75044,106788
75033,106853
75002,106813
75020,106839
75072,106796
75035,106865
74986,106834
75076,106815
75066,106860
75065,106818
75026,106849
74997,106839
75091,106788
75055,106861
75069,106819
75039,106863
75058,106801
75062,106844
75008,106814
75113,106833
75054,106892
75079,106805
75074,106848
75020,106811
75089,106825
75057,106883
75079,106814
75089,106760
75036,106835
75055,106860
75056,106842
75051,106829
75100,106825
75071,106851
75111,106844
75064,106901
75138,106824
75089,106846
75074,106860
75093,106805
75078,106872
75130,106839
75086,106849
75028,106863
75117,106860
75093,106886
75098,106825
75118,106796
75091,106927
75099,106847
75112,106864
75083,106835
75149,106842
75091,106910
75107,106839
75128,106876
75133,106838
75110,106906
75068,106859
75150,106826
75136,106919
75132,106847
75151,106865
75096,106865
75145,106879
75149,106843
75124,106839
75137,106830
75108,106891
75169,106833
75143,106881
75080,106883
75137,106843
75125,106901
75175,106853
75150,106865
75158,106885
75126,106910
75112,106859
75220,106851
75139,106901
75165,106870
75132,106851
75138,106887
75187,106868
75152,106924
75097,106891
75187,106852
75167,106915
75203,106861
75148,106907
75106,106873
75195,106857
75166,106856
75147,106880
75175,106884
75133,106911
75172,106886
75139,106860
75219,106839
75173,106935
75172,106866
75175,106889
75174,106870
75191,106887
75155,106924
75103,106889
75234,106860
75178,106898
75197,106891
75156,106894
75109,106882
75216,106852
75156,106897
75187,106892
75153,106894
75181,106867
75177,106859
75118,106856
75188,106865
75147,106891
75209,106863
75172,106833
75153,106908
75200,106875
75154,106859
75159,106881
75185,106834
75142,106881
75184,106857
75171,106891
75203,106851
75134,106844
75099,106862
75175,106842
75149,106897
75180,106841
75143,106889
75126,106861
75153,106807
75153,106882
75172,106832
75123,106894
75061,106854
75162,106827
75132,106871
75125,106826
75102,106789
75094,106868
75124,106803
75114,106869
75055,106799
75119,106812
75057,106841
75149,106823
75109,106837
75098,106823
74954,106741
75159,106881
75185,106834
75142,106881
75184,106857
75171,106891
75203,106851
75134,106844
75099,106862
75175,106842
75149,106897
75180,106841
75143,106889
75126,106861
75153,106807
75153,106882
75172,106832
75123,106894
75061,106854
75162,106827
75132,106871
75125,106826
75102,106789
75094,106868
75124,106803
75114,106869
75055,106799
75119,106812
75057,106841
75149,106823
75109,106837
75098,106823
74936,106759
74878,106756
74943,106724
74945,106757
74954,106681
74918,106745
74917,106716
74887,106692
74880,106701
74927,106685
74883,106757
74897,106687
74874,106641
74896,106714
74906,106684
74850,106744
74806,106707
74904,106680
74850,106703
74854,106652
74870,106649
74829,106684
74889,106666
74846,106687
74845,106683
74808,106682
74781,106656
74857,106598
74802,106666
74841,106664
74780,106672
74769,106634
74827,106641
74827,106641
74827,106641
74827,106641
74827,106641
74827,106641
74743,106659
74743,106659
74743,106659
74743,106659
74743,106659
74743,106659
74743,106659
74773,106659
74782,106664
74782,106664
74782,106664
74782,106664
74782,106664
74782,106664
74782,106664
74754,106639
74754,106639
74754,106639
74754,106639
74754,106639
74754,106639
74754,106639
74800,106631
74800,106631
74800,106631
74769,106634
74743,106604
74743,106631
74715,106582
74760,106580
74754,106673
74748,106584
74746,106533
74744,106653
74764,106597
74717,106632
74670,106599
74799,106596
74743,106605
74751,106613
74716,106608
74682,106590
74788,106554
74732,106634
74753,106603
74715,106621
74758,106593
74750,106539
74716,106619
74740,106605
74713,106622
74702,106578
74815,106569
74754,106639
74800,106631
74800,106631
74800,106631
74769,106634
74758,106658
74715,106613
74731,106568
74751,106611
74733,106526
74756,106609
74710,106620
74682,106588
74774,106543
74715,106604
74779,106616
74727,106638
74774,106605
74762,106618
74683,106589
74773,106595
74725,106653
74786,106573
74732,106586
74720,106650
74758,106633
74740,106612
74723,106577
74750,106559
74744,106675
74745,106605
74738,106609
74786,106597
74731,106580
74701,106616
74761,106567
74760,106661
74758,106580
74739,106646
74759,106664
74715,106602
74806,106599
74749,106619
74714,106635
74780,106613
74760,106641
74792,106594
74761,106545
74745,106684
74778,106617
74759,106648
74768,106581
74752,106573
74732,106665
74800,106607
74792,106659
74810,106596
74764,106652
74740,106613
74802,106572
74794,106679
74813,106626
74781,106669
74742,106633
74832,106628
74787,106655
74805,106627
74771,106608
74753,106672
74805,106624
74793,106600
74767,106661
74802,106675
74793,106646
74779,106636
74850,106620
74790,106681
74821,106645
74791,106681
74773,106631
74848,106623
74801,106722
74808,106654
74812,106604
74843,106694
74824,106640
74803,106694
74770,106659
74878,106640
74844,106694
74852,106677
74831,106644
74781,106671
74883,106644
74824,106677
74867,106672
74811,106717
74857,106656
74862,106649
74828,106679
74873,106672
74852,106666
74804,106647
74860,106683
74860,106668
74816,106692
74848,106644
74853,106675
74914,106652
74839,106725
74881,106690
74831,106666
74852,106671
74898,106643
74854,106751
74887,106689
74870,106699
74854,106664
74876,106624
74858,106754
74876,106678
74893,106694
74855,106678
74910,106685
74884,106743
74824,106681
74913,106640
74890,106703
74909,106694
74860,106735
74834,106676
74922,106621
74878,106693
74890,106717
74855,106709
74899,106683
74911,106674
74872,106714
74883,106690
74872,106697
74934,106677
74899,106703
74882,106699
74922,106680
74883,106725
74934,106664
74901,106669
74876,106710
74923,106680
74892,106716
74931,106671
74898,106639
74854,106724
74927,106675
74909,106721
74950,106661
74896,106708
74854,106708
74927,106659
74911,106717
74938,106670
74906,106675
74876,106729
74928,106680
74918,106699
74895,106662
74874,106716
74895,106628
74908,106695
74962,106656
74947,106690
74896,106732
74884,106693
74903,106657
74876,106670
74951,106678
74910,106727
74923,106683
74912,106722
74875,106668
74961,106706
74891,106730
74894,106669
74956,106621
74914,106705
74939,106695
74898,106694
74867,106671
74981,106649
74927,106714
74938,106707
74896,106712
74898,106662
74944,106632
74899,106732
74951,106707
74899,106687
74940,106695
74959,106698
74950,106685
74901,106711
74919,106686
74946,106726
74955,106693
74927,106720
74885,106691
74972,106665
74944,106713
74930,106665
74929,106711
74872,106685
74992,106667
74939,106716
74950,106670
74906,106736
74922,106675
74941,106624
74926,106695
74950,106704
74918,106713
74882,106669
74990,106641
74934,106709
74928,106709
74926,106622
74933,106703
74963,106670
74912,106702
74887,106679
74874,106709
74952,106722
74913,106637
74956,106693
74965,106698
74900,106700
74960,106666
74943,106623
74899,106714
74942,106695
74928,106710
74919,106678
74971,106655
74910,106733
74934,106652
74928,106637
74942,106682
74960,106674
74932,106721
74937,106675
74944,106635
74912,106683
74977,106709
74934,106734
74950,106681
74957,106698
74958,106673
74933,106644
74919,106717
74961,106685
74959,106695
74909,106675
74905,106710
74953,106678
74927,106692
74936,106692
74946,106689
74952,106706
74921,106700
74921,106661
74959,106618
74939,106751
74973,106713
74929,106713
74973,106667
74955,106700
74878,106721
74990,106658
74951,106720
75001,106672
74960,106693
74930,106723
74980,106679
74952,106689
74921,106660
75016,106679
74959,106739
74979,106697
74971,106648
74939,106705
75011,106709
74956,106740
74983,106706
74909,106675
75020,106699
75008,106710
75012,106706
74953,106708
74977,106679
74983,106664
75014,106650
75002,106755
75003,106689
74998,106658
74997,106728
75010,106701
74988,106727
74951,106707
75055,106679
75009,106745
75015,106727
74990,106687
74973,106718
75057,106698
75008,106724
75019,106738
74979,106755
74981,106700
75069,106693
75026,106771
75027,106738
74999,106683
75020,106734
75066,106714
75017,106742
74969,106722
75020,106699
75054,106690
75033,106698
75036,106736
75011,106698
75021,106713
75051,106690
75004,106719
75077,106719
75015,106766
75077,106747
75040,106742
75000,106736
75069,106712
75038,106781
75085,106716
75056,106710
75020,106762
75065,106759
75022,106756
75041,106726
75086,106703
75054,106807
75047,106740
75062,106766
75065,106724
75071,106710
75040,106784
75089,106733
75081,106786
75105,106721
75060,106778
75069,106759
75072,106733
75075,106748
75090,106753
75085,106752
75060,106808
75079,106751
75075,106781
75037,106757
75110,106777
75062,106801
75093,106750
75109,106716
75056,106761
75130,106781
75070,106802
75140,106747
75093,106777
75110,106774
75088,106729
75065,106762
75149,106747
75089,106769
75051,106765
75124,106750
75082,106803
75126,106752
75111,106723
75085,106846
75112,106757
75118,106806
75103,106757
75117,106740
75101,106769
75116,106769
75130,106770
75118,106788
75058,106767
75142,106766
75131,106790
75171,106775
75113,106770
75085,106779
75139,106765
75111,106799
75124,106758
75145,106752
75119,106853
75139,106782
75139,106808
75102,106777
75161,106769
75121,106843
75158,106778
75149,106811
75153,106782
75137,106779
75116,106815
75176,106767
75161,106805
75170,106758
75146,106802
75135,106823
75177,106788
75184,106776
75124,106795
75139,106814
75160,106794
75179,106792
75173,106793
75108,106788
75198,106777
75136,106824
75210,106780
75176,106799
75141,106787
75158,106746
75162,106818
75245,106791
75166,106824
75190,106797
75158,106755
75199,106826
75246,106789
75172,106822
75144,106807
75196,106789
75224,106834
75231,106776
75190,106793
75175,106831
75219,106791
75211,106831
75214,106777
75204,106848
75171,106795
75214,106789
75226,106782
75203,106800
75190,106844
75191,106789
75222,106831
75201,106797
75263,106802
75222,106842
75173,106816
75274,106774
75238,106830
75236,106824
75209,106818
75193,106825
75301,106792
75255,106840
75256,106842
75218,106849
75223,106802
75266,106753
75200,106822
75280,106833
75227,106856
75282,106823
75251,106792
75229,106859
75285,106829
75238,106851
75228,106812
75303,106802
75259,106892
75258,106848
75249,106785
75247,106796
75261,106834
75282,106877
75288,106841
75275,106853
75266,106831
75289,106770
75259,106874
75302,106835
75290,106860
75310,106807
75283,106798
75278,106888
75284,106826
75300,106849
75264,106822
75304,106863
75266,106874
75240,106833
75349,106806
75271,106866
75298,106858
75257,106855
75252,106831
75321,106773
75263,106869
75311,106858
75260,106875
75321,106816
75279,106805
75268,106847
75289,106812
75239,106844
75271,106820
75305,106811
75267,106894
75274,106833
75278,106787
75283,106834
75283,106801
75252,106851
75213,106810
75260,106768
75255,106823
75286,106789
75245,106878
75249,106802
75261,106846
75193,106782
75266,106806
75231,106865
75237,106787
75242,106808
75190,106791
75262,106804
75185,106828
75167,106787
75282,106757
75209,106837
75223,106798
75176,106793
75161,106778
75147,106746
75167,106788
75140,106804
75155,106754
75200,106774
75174,106711
75131,106777
75178,106749
75145,106761
75106,106731
75182,106714
75128,106801
75114,106708
75159,106683
75145,106761
75132,106705
75098,106773
75043,106735
75163,106695
75099,106762
75117,106730
75062,106752
75089,106700
75106,106679
75049,106686
75106,106715
75052,106747
75051,106697
75115,106638
75062,106719
75073,106699
75161,106778
74942,106633
75023,106702
75053,106672
75028,106686
75058,106706
74994,106725
75054,106665
75031,106689
74978,106666
75010,106632
74991,106686
75071,106635
74990,106673
74999,106680
74963,106671
74937,106656
75042,106620
74972,106655
74986,106647
74954,106589
74984,106690
75020,106619
74960,106601
74936,106684
74962,106618
74950,106660
74924,106602
74958,106591
74914,106661
74965,106612
74955,106651
74956,106596
74942,106633
74928,106588
74931,106623
74975,106613
74958,106576
74960,106609
74904,106632
74939,106585
74922,106517
74925,106645
74918,106622
74898,106626
74884,106585
74960,106570
74881,106636
74915,106576
74887,106607
74879,106581
74928,106539
74884,106667
74928,106593
74891,106606
74900,106578
74907,106520
74868,106642
74910,106578
74908,106592
74879,106592
74938,106585
74891,106642
74852,106577
74974,106542
74864,106618
74890,106605
74871,106535
74827,106595
74904,106575
74880,106596
74888,106608
74874,106522
74878,106587
74952,106562
74885,106615
74897,106585
74886,106516
74900,106596
74921,106556
74892,106620
74853,106595
74913,106577
74899,106603
74883,106553
74898,106576
74864,106614
74915,106565
74912,106607
74878,106566
74867,106556
74838,106592
74937,106582
74896,106612
74909,106585
74877,106613
74838,106575
74895,106577
74924,106557
74878,106630
74902,106620
74917,106580
74938,106582
74891,106575
74870,106611
74918,106577
74899,106597
74945,106567
74882,106527
74858,106623
74921,106580
74908,106626
74908,106561
74894,106643
74853,106570
74910,106564
74919,106627
74922,106576
74905,106608
74869,106596
74945,106586
74920,106617
74860,106593
74928,106582
74903,106640
74931,106595
74924,106591
74865,106591
74935,106583
74893,106609
74930,106590
74965,106567
74911,106615
74914,106639
74906,106638
74984,106594
74922,106618
74883,106631
74938,106564
74914,106657
74991,106602
74920,106553
74923,106666
74946,106603
74943,106636
74902,106594
74985,106596
74943,106674
74967,106615
74971,106624
74934,106602
74959,106581
74919,106650
74978,106608
74983,106657
74955,106598
74953,106587
74944,106662
74974,106622
74971,106634
74922,106627
74968,106661
74956,106640
74997,106617
74979,106623
74956,106654
74957,106676
74924,106620
74995,106582
74982,106651
75016,106641
74964,106669
74981,106616
74990,106621
74961,106609
75020,106650
74983,106689
74991,106621
75007,106582
74994,106678
75026,106657
74979,106657
74988,106670
75037,106611
74979,106672
74995,106660
74985,106588
75001,106642
75043,106636
75008,106703
75034,106641
74991,106675
74986,106632
75014,106621
75000,106659
75001,106582
74942,106643
75049,106659
75035,106645
75011,106652
74970,106669
75043,106648
75026,106662
74967,106648
75070,106671
75000,106705
75072,106645
75025,106623
74989,106678
75057,106657
75023,106692
75081,106644
75049,106660
75039,106663
75022,106608
75042,106703
75066,106644
75030,106670
74989,106677
75056,106654
75053,106690
75014,106621
75044,106632
75025,106724
75061,106659
75069,106652
75060,106661
75040,106668
75019,106641
75055,106671
75043,106680
75049,106650
75038,106651
75000,106675
75079,106651
75033,106697
75036,106656
75048,106621
75014,106698
75076,106658
75038,106675
74958,106677
75076,106646
75020,106689
75094,106632
75038,106635
75001,106682
75069,106663
75038,106689
75087,106634
75038,106677
75028,106674
75004,106617
75040,106676
75072,106652
75025,106704
75019,106669
75049,106665
75094,106643
75039,106664
75047,106696
75023,106657
75052,106639
75052,106600
75040,106680
75066,106671
75011,106684
75018,106667
75056,106576
75011,106665
75077,106657
75039,106686
75065,106626
75046,106653
75001,106647
75063,106654
75027,106686
75078,106656
75052,106565
75032,106705
75051,106648
75022,106675
75043,106641
75094,106626
75036,106700
75033,106666
75042,106614
75020,106662
75019,106669
75057,106629
75016,106673
75055,106635
75041,106628
75021,106636
75044,106623
75013,106691
75067,106630
75050,106685
75013,106642
75054,106618
75022,106705
75040,106630
75057,106607
75031,106693
75067,106663
75017,106678
75004,106651
75085,106618
75033,106696
75073,106686
75028,106697
75086,106645
75057,106642
75019,106671
75081,106656
75015,106686
75084,106640
75037,106596
75025,106698
75062,106658
75035,106654
75057,106629
75039,106604
75023,106667
75019,106660
75104,106665
75056,106667
75002,106659
75078,106626
75037,106679
75101,106634
75051,106664
75077,106671
75048,106623
75003,106639
75118,106627
75042,106676
75046,106679
75050,106623
75050,106687
75100,106636
75044,106660
75003,106669
75073,106639
75068,106682
75094,106639
75063,106670
75001,106663
75095,106637
75081,106691
75079,106640
75055,106708
75061,106639
75051,106627
75067,106677
75050,106616
75065,106648
75042,106664
75066,106643
75059,106633
75097,106637
75059,106710
75022,106642
75105,106597
75086,106679
75100,106664
75037,106690
74995,106635
75106,106596
75069,106677
75108,106684
75039,106683
75077,106629
75082,106640
75050,106629
75122,106664
75048,106684
75082,106639
75099,106588
75070,106685
75094,106650
75065,106605
75082,106670
75113,106634
75072,106693
75079,106671
75060,106645
75127,106590
75117,106604
75063,106679
75041,106676
75112,106627
75092,106681
75122,106641
75068,106689
75028,106648
75149,106627
75104,106671
75066,106656
75097,106628
75079,106693
75134,106634
75091,106645
75063,106664
75119,106665
75063,106689
75142,106649
75092,106616
75063,106686
75108,106642
75091,106688
75141,106633
75100,106678
75069,106671
75114,106628
75113,106692
75147,106629
75114,106656
75091,106663
75109,106658
75190,106645
75105,106663
75135,106665
75093,106690
75073,106657
75175,106613
75111,106701
75135,106682
75096,106701
75132,106651
75133,106594
75089,106690
75143,106676
75100,106681
75156,106642
75135,106599
75100,106723
75153,106686
75109,106690
75141,106657
75159,106630
75125,106728
75096,106654
75160,106645
75155,106709
75162,106677
75135,106714
75069,106666
75183,106652
75124,106656
75114,106686
75147,106701
75133,106711
75105,106663
75098,106650
75185,106693
75140,106759
75162,106679
75179,106630
75135,106702
75174,106716
75145,106711
75102,106675
75216,106681
75167,106727
75170,106695
75152,106705
75126,106677
75211,106639
75165,106741
75191,106712
75167,106713
75212,106680
75190,106667
75141,106714
75211,106693
75170,106734
75174,106687
75205,106646
75183,106780
75189,106701
75200,106696
75168,106688
75198,106680
75167,106732
75204,106735
75200,106751
75221,106679
75184,106743
75152,106711
75201,106651
75204,106723
75231,106688
75190,106737
75169,106702
75232,106663
75212,106762
75238,106701
75195,106703
75169,106750
75247,106708
75218,106723
75158,106714
75241,106717
75203,106752
75250,106697
75218,106717
75163,106724
75223,106679
75196,106747
75275,106722
75222,106737
75246,106730
75212,106735
75234,106700
75237,106698
75215,106711
75176,106774
75259,106698
75243,106773
75268,106709
75244,106696
75222,106775
75261,106724
75272,106742
75242,106701
75236,106710
75214,106766
75274,106726
75277,106760
75284,106723
75232,106799
75189,106749
75275,106684
75274,106768
75275,106726
75245,106764
75242,106772
75294,106727
75276,106753
75212,106744
75295,106756
75261,106763
75299,106724
75265,106686
75289,106744
75252,106773
75253,106760
75298,106735
75271,106748
75247,106765
75260,106695
75272,106769
75320,106730
75274,106782
75216,106772
75309,106723
75304,106800
75302,106748
75306,106719
75279,106822
75296,106756
75306,106777
75274,106747
75319,106727
75275,106815
75328,106756
75312,106780
75315,106759
75298,106782
75245,106776
75352,106758
75325,106803
75324,106775
75289,106800
75257,106747
75265,106686
75329,106797
75338,106764
75314,106777
75287,106818
75319,106781
75333,106748
75302,106771
75348,106794
75287,106809
75302,106766
75346,106724
75283,106797
75362,106789
75304,106821
75348,106785
75332,106794
75275,106778
75357,106787
75319,106821
75357,106757
75322,106745
75295,106822
75349,106806
75317,106825
75320,106771
75384,106749
75326,106844
75321,106777
75340,106807
75304,106763
75365,106773
75330,106843
75319,106797
75336,106787
75362,106810
75307,106790
75331,106799
75293,106831
75423,106774
75325,106825
75341,106796
75349,106742
75341,106836
75391,106789
75334,106754
75313,106830
75361,106780
75357,106830
75374,106772
75324,106741
75321,106827
75379,106776
75368,106827
75362,106781
75316,106821
75314,106792
75355,106713
75363,106844
75346,106776
75327,106835
75281,106798
75375,106779
75329,106797
75311,106790
75319,106772
75310,106806
75325,106787
75367,106757
75323,106809
75334,106778
75311,106799
75370,106754
75313,106784
75245,106794
75322,106744
75303,106789
75332,106737
75295,106761
75228,106768
75317,106752
75292,106785
75306,106744
75259,106691
75268,106808
75285,106742
75257,106769
75227,106709
75290,106752
75222,106783
75251,106720
75249,106732
75221,106698
75230,106674
75210,106759
75255,106731
75229,106726
75174,106688
75197,106705
75155,106614
75201,106679
75171,106669
75160,106740
75176,106702
75133,106634
75169,106693
75201,106657
75144,106719
75118,106700
75132,106607
75154,106726
75152,106641
75116,106723
75136,106647
75100,106682
75070,106625
75131,106628
75081,106714
75091,106645
75083,106617
75079,106647
75094,106637
75054,106653
74977,106614
75111,106606
75048,106642
75068,106637
75019,106600
74995,106622
75068,106599
75001,106625
74987,106627
74981,106592
74996,106562
75038,106566
74983,106599
74955,106595
74985,106545
74991,106612
74994,106567
74950,106601
74923,106580
74991,106555
74976,106592
74910,106522
74983,106543
74929,106604
74968,106545
74947,106566
74899,106533
74934,106509
74907,106571
74972,106534
74939,106557
74954,106549
74886,106575
74843,106512
74950,106495
74917,106569
74922,106529
74883,106536
74853,106513
74928,106490
74890,106506
74889,106565
74869,106506
74879,106548
74922,106492
74877,106519
74872,106533
74847,106465
74865,106508
74924,106480
74862,106567
74889,106526
74858,106511
74891,106473
74903,106427
74859,106560
74874,106503
74856,106530
74858,106481
74896,106476
74860,106542
74815,106489
74903,106429
74876,106521
74858,106500
74856,106531
74798,106485
74884,106464
74867,106527
74861,106506
74844,106472
74847,106496
74818,106483
74843,106476
74869,106445
74817,106537
74857,106473
74873,106419
74839,106512
74874,106502
74820,106503
74822,106481
74902,106432
74842,106515
74872,106489
74828,106464
74817,106462
74878,106435
74834,106538
74882,106495
74827,106511
74903,106474
74835,106485
74833,106495
74876,106490
74830,106499
74876,106449
74846,106403
74852,106547
74846,106468
74845,106483
74840,106457
74868,106480
74838,106518
74812,106487
74858,106431
74863,106478
74821,106493
74847,106426
74811,106491
74923,106441
74844,106510
74878,106506
74811,106519
74826,106452
74909,106419
74858,106509
74870,106505
74850,106443
74887,106520
74911,106464
74842,106510
74808,106484
74874,106444
74895,106509
74893,106444
74852,106533
74846,106487
74883,106402
74865,106499
74917,106478
74875,106543
74877,106478
74874,106511
74845,106475
74902,106474
74862,106510
74859,106454
74902,106484
74931,106469
74874,106532
74835,106505
74908,106486
74911,106508
74910,106472
74892,106470
74866,106519
74936,106485
74900,106530
74932,106500
74893,106548
74910,106505
74916,106443
74926,106520
74922,106511
74883,106539
74850,106509
74984,106490
74913,106534
74905,106516
74928,106467
74902,106552
74982,106500
74917,106515
74877,106529
74946,106475
74931,106537
74917,106492
74955,106515
74929,106533
74905,106531
74916,106504
74995,106494
74937,106569
74956,106518
74925,106495
74938,106517
74984,106504
74953,106574
74885,106537
74986,106496
74967,106565
74978,106508
74950,106570
74897,106525
75024,106521
74986,106557
74990,106540
74959,106582
74947,106538
74977,106479
74974,106542
75005,106561
74965,106582
74924,106533
75046,106523
74985,106561
74946,106475
75001,106502
74969,106545
74976,106565
74983,106557
75013,106550
74986,106603
74923,106540
75027,106502
74991,106579
75014,106567
74986,106595
74985,106533
75009,106502
74978,106540
75034,106561
74984,106603
74993,106529
75034,106500
75005,106584
75019,106586
74976,106569
74996,106539
75064,106537
75001,106571
74990,106581
75008,106496
75019,106597
75037,106532
74995,106592
75002,106542
75005,106545
75002,106548
75001,106502
75010,106590
75021,106590
75046,106531
75043,106577
74979,106529
75060,106570
74982,106598
75029,106545
75053,106473
75015,106591
75045,106573
74992,106547
75014,106548
75075,106540
74997,106595
75039,106566
75003,106569
74969,106533
75030,106501
75005,106603
75036,106549
75019,106571
75034,106530
75040,106482
75009,106609
75030,106542
75029,106563
75021,106551
75040,106556
75000,106587
74943,106537
75028,106526
75003,106515
75004,106569
75012,106585
75042,106561
75071,106536
75021,106542
74958,106551
75045,106523
75033,106571
75053,106526
75001,106563
74957,106559
75051,106525
75029,106557
75046,106497
75010,106491
75025,106596
75036,106523
75031,106537
74984,106537
75053,106545
75007,106572
75031,106534
75037,106546
74953,106539
75026,106515
74986,106573
75044,106525
75033,106550
75022,106543
75008,106519
74989,106573
75044,106547
75031,106524
75014,106501
75009,106549
75048,106510
75040,106558
75042,106527
74996,106529
74999,106551
75030,106529
75028,106556
75010,106520
74993,106524
74963,106534
75049,106507
75023,106539
75029,106527
75005,106576
74951,106510
75071,106513
75009,106550
75015,106529
74998,106474
75007,106572
75072,106509
75004,106522
74995,106559
75030,106538
75015,106552
75061,106510
75006,106508
75037,106543
75022,106528
75009,106534
75014,106503
75051,106532
74993,106577
74967,106520
75078,106499
75017,106556
75038,106550
75025,106487
75028,106572
75077,106525
75029,106501
74992,106567
75050,106538
75005,106569
75022,106512
75036,106491
75017,106579
75059,106534
75052,106557
75057,106518
75023,106569
74978,106533
75073,106516
75052,106585
75067,106510
75038,106570
75001,106541
75064,106537
75070,106558
75060,106515
75062,106550
75027,106516
75067,106536
75068,106499
75038,106568
75023,106545
75031,106470
75047,106570
75072,106518
75040,106589
75065,106531
75041,106563
75024,106526
75104,106499
75059,106607
75078,106551
75055,106571
75034,106529
75107,106519
75057,106599
74997,106541
75103,106512
75068,106559
75078,106548
75059,106588
75009,106544
75130,106515
75054,106590
75104,106568
75054,106593
75074,106536
75088,106563
75093,106533
75050,106598
75053,106565
75157,106526
75081,106517
75052,106564
75109,106559
75041,106572
75055,106545
75137,106526
75065,106594
75075,106562
75074,106520
75093,106553
75122,106526
75077,106617
75088,106567
75066,106580
75069,106542
75104,106481
75080,106624
75079,106552
75084,106570
75048,106539
75128,106562
75084,106618
75089,106562
75148,106509
75119,106601
75124,106570
75083,106587
75129,106561
75099,106564
75124,106558
75119,106548
75119,106602
75099,106570
75093,106535
75117,106514
75111,106635
75128,106571
75133,106596
75092,106535
75155,106572
75103,106634
75073,106556
75185,106504
75135,106606
75141,106573
75117,106597
75083,106572
75186,106554
75134,106601
75160,106598
75106,106580
75092,106571
75199,106538
75123,106614
75152,106608
75128,106612
75139,106572
75183,106528
75123,106629
75161,106579
75107,106620
75183,106555
75151,106538
75147,106629
75085,106587
75197,106567
75170,106631
75183,106573
75159,106597
75099,106583
75215,106572
75186,106627
75182,106583
75149,106631
75125,106584
75211,106514
75188,106612
75194,106603
75162,106633
75134,106592
75253,106582
75176,106631
75154,106625
75218,106580
75203,106665
75228,106580
75166,106616
75150,106614
75218,106602
75208,106627
75123,106629
75238,106607
75217,106604
75172,106609
75172,106602
75240,106616
75196,106617
75163,106632
75212,106595
75203,106657
75259,106604
75199,106587
75190,106657
75208,106604
75212,106646
75161,106609
75253,106609
75177,106670
75226,106592
75222,106628
75193,106602
75225,106596
75198,106676
75224,106614
75235,106642
75239,106592
75216,106634
75187,106623
75264,106603
75251,106632
75196,106601
75263,106622
75214,106663
75238,106607
75237,106619
75230,106605
75251,106607
75196,106644
75250,106607
75248,106563
75210,106645
75266,106618
75221,106664
75283,106633
75241,106645
75213,106649
75232,106581
75249,106675
75287,106640
75255,106633
75233,106665
75261,106624
75258,106667
75216,106614
75299,106632
75247,106688
75262,106635
75288,106570
75263,106642
75290,106646
75256,106673
75266,106646
75269,106642
75212,106632
75302,106644
75284,106700
75278,106658
75287,106670
75293,106650
75235,106667
75253,106691
75336,106641
75274,106663
75233,106662
75318,106663
75273,106694
75319,106638
75294,106578
75287,106703
75312,106673
75296,106699
75321,106638
75292,106672
75238,106675
75332,106632
75316,106705
75343,106638
75305,106695
75276,106679
75320,106669
75318,106687
75271,106643
75345,106665
75300,106709
75319,106663
75333,106633
75313,106691
75308,106699
75293,106667
75320,106688
75348,106605
75335,106690
75314,106643
75303,106720
75377,106671
75331,106694
75309,106697
75339,106657
75326,106726
75373,106675
75336,106676
75316,106726
75321,106698
75330,106712
75302,106666
75374,106679
75340,106738
75334,106670
75338,106691
75327,106681
75401,106691
75334,106745
75352,106676
75363,106714
75353,106663
75353,106648
75331,106747
75377,106677
75366,106706
75356,106649
75336,106677
75317,106695
75359,106715
75373,106654
75357,106646
75349,106739
75362,106694
75360,106723
75348,106683
75358,106667
75328,106742
75371,106692
75400,106730
75403,106675
75345,106742
75303,106702
75390,106680
75361,106735
75362,106672
75376,106667
75323,106725
75391,106683
75350,106667
75326,106723
75371,106711
75334,106730
75345,106675
75373,106634
75339,106733
75355,106704
75331,106700
75396,106678
75359,106647
75316,106704
75279,106624
75373,106654
75330,106674
75326,106601
75301,106723
75322,106672
75304,106708
75273,106646
75327,106660
75279,106721
75231,106655
75356,106603
75300,106677
75298,106675
75246,106691
75254,106629
75295,106568
75227,106643
75299,106656
75232,106688
75265,106628
75249,106631
75192,106611
75268,106631
75201,106638
75244,106588
75218,106539
75201,106658
75215,106634
75210,106594
75250,106568
75178,106591
75112,106608
75171,106627
75120,106570
75217,106547
75167,106603
75163,106588
75111,106592
75094,106555
75188,106526
75118,106611
75136,106576
75099,106545
75101,106569
75145,106535
75090,106590
75031,106562
75116,106534
75097,106547
75065,106513
75075,106513
75039,106573
75087,106515
75078,106525
75054,106520
75027,106498
74982,106500
75077,106490
75023,106527
75044,106507
75026,106507
74987,106497
75038,106507
75034,106472
74962,106513
74995,106436
74989,106514
75022,106442
74973,106437
74959,106533
74996,106495
74966,106483
74973,106467
74967,106414
74928,106524
74984,106472
74951,106506
74963,106437
74927,106494
74877,106481
74959,106442
74941,106485
74910,106420
74929,106422
74888,106490
74928,106442
74924,106438
74883,106454
74942,106475
74876,106477
74873,106430
74923,106376
74889,106457
74854,106412
74866,106451
74909,106447
74874,106411
74909,106435
74866,106457
74852,106436
74892,106373
74860,106436
74865,106443
74849,106434
74824,106423
74889,106406
74836,106440
74801,106456
74845,106380
74850,106472
74876,106387
74824,106457
74778,106428
74855,106377
74851,106453
74878,106401
74823,106461
74820,106427
74810,106386
74821,106385
74865,106407
74802,106463
74809,106421
74923,106376
74773,106427
74827,106390
74803,106402
74758,106422
74809,106375
74847,106380
74811,106413
74768,106420
74827,106377
74784,106446
74841,106383
74797,106418
74802,106415
74785,106377
74768,106414
74864,106385
74786,106406
74815,106415
74772,106345
74780,106413
74832,106387
74784,106426
74746,106411
74811,106383
74812,106413
74785,106374
74807,106355
74797,106467
74784,106387
74800,106431
74746,106374
74795,106367
74770,106427
74776,106403
74780,106364
74807,106370
74774,106413
74784,106399
74770,106387
74739,106363
74801,106385
74757,106416
74741,106380
74803,106347
74784,106412
74796,106403
74743,106416
74704,106366
74834,106368
74772,106412
74769,106407
74743,106421
74735,106369
74788,106322
74754,106415
74777,106404
74741,106416
74767,106390
74790,106339
74776,106438
74779,106386
74741,106367
74776,106399
74803,106362
74770,106425
74761,106386
74751,106389
74775,106346
74734,106366
74751,106454
74761,106372
74777,106408
74764,106359
74785,106314
74754,106446
74776,106375
74772,106405
74743,106364
74800,106366
74772,106428
74771,106383
74799,106335
74771,106419
74792,106411
74767,106405
74736,106386
74827,106389
74772,106415
74807,106408
74769,106386
74740,106392
74841,106370
74764,106440
74786,106420
74783,106410
74736,106379
74793,106354
74823,106421
74758,106420
74791,106414
74801,106334
74794,106377
74803,106453
74809,106399
74807,106437
74765,106395
74849,106402
74790,106463
74806,106412
74815,106368
74779,106416
74838,106403
74806,106483
74834,106398
74828,106425
74772,106391
74855,106409
74809,106451
74802,106390
74870,106356
74817,106448
74837,106437
74806,106360
74831,106451
74855,106413
74814,106440
74763,106439
74857,106397
74846,106420
74849,106412
74794,106433
74819,106412
74809,106421
74880,106418
74828,106425
74819,106427
74834,106396
74813,106444
74855,106393
74838,106409
74813,106444
74838,106416
74833,106443
74810,106417
74885,106403
74831,106481
74818,106420
74841,106371
74842,106453
74859,106446
74813,106472
74846,106418
74839,106430
74781,106402
74869,106444
74809,106468
74856,106435
74844,106383
74803,106433
74857,106439
74779,106415
74864,106430
74838,106464
74840,106444
74788,106443
74791,106428
74877,106427
74828,106435
74852,106428
74819,106404
74799,106434
74892,106411
74833,106438
74842,106448
74804,106453
74784,106414
74900,106393
74817,106455
74824,106445
74830,106370
74837,106457
74875,106396
74823,106410
74818,106464
74848,106411
74832,106441
74790,106400
74834,106386
74807,106473
74826,106404
74841,106442
74832,106403
74827,106397
74810,106375
74839,106402
74833,106392
74808,106428
74797,106476
74794,106413
74826,106357
74789,106427
74830,106419
74785,106378
74787,106423
74858,106396
74811,106415
74793,106419
74824,106368
74787,106438
74860,106383
74807,106422
74827,106434
74787,106408
74758,106394
74856,106378
74793,106430
74812,106408
74786,106348
74807,106435
74827,106382
74801,106437
74762,106395
74812,106394
74772,106414
74763,106369
74750,106401
74798,106420
74756,106390
74807,106376
74787,106339
74742,106419
74798,106367
74785,106426
74813,106364
74767,106361
74746,106417
74805,106378
74798,106389
74731,106371
74805,106373
74767,106432
74777,106351
74808,106318
74776,106419
74788,106401
74755,106389
74701,106374
74816,106343
74756,106394
74764,106380
74749,106408
74793,106362
74765,106321
74727,106386
74779,106380
74726,106403
74738,106357
74779,106352
74755,106384
74757,106388
74718,106392
74822,106370
74768,106394
74752,106398
74761,106342
74767,106419
74798,106352
74752,106405
74710,106390
74753,106304
74768,106384
74819,106355
74756,106419
74751,106377
74763,106336
74775,106384
74799,106350
74751,106427
74703,106367
74811,106358
74769,106395
74761,106352
74774,106352
74733,106414
74801,106385
74776,106382
74686,106375
74726,106403
74777,106355
74726,106330
74792,106367
74789,106345
74751,106382
74723,106368
74770,106310
74769,106413
74785,106350
74743,106407
74682,106358
74795,106352
74783,106388
74728,106358
74782,106349
74733,106406
74778,106373
74763,106371
74702,106367
74792,106355
74749,106421
74813,106365
74776,106372
74725,106370
74739,106334
74729,106401
74807,106339
74759,106368
74697,106390
74769,106343
74764,106402
74798,106353
74846,106355
74774,106395
74764,106349
74777,106375
74767,106362
74771,106368
74749,106411
74698,106368
74838,106325
74788,106415
74776,106394
74759,106404
74770,106362
74792,106320
74760,106392
74794,106407
74761,106418
74736,106364
74820,106327
74759,106440
74767,106400
74812,106350
74797,106428
74790,106372
74786,106342
74782,106413
74807,106367
74816,106418
74788,106357
74789,106366
74739,106384
74846,106373
74846,106416
74768,106375
74792,106404
74790,106411
74792,106394
74832,106374
74791,106411
74764,106408
74839,106400
74826,106411
74784,106375
74837,106393
74799,106451
74825,106382
74831,106420
74761,106370
74838,106387
74792,106461
74860,106389
74838,106411
74840,106400
74815,106365
74782,106433
74874,106377
74816,106405
74774,106429
74855,106395
74816,106442
74868,106398
74833,106382
74806,106446
74854,106414
74803,106413
74854,106358
74854,106395
74810,106413
74817,106425
74844,106441
74897,106390
74831,106469
74860,106437
74821,106434
74819,106414
74909,106396
74842,106470
74850,106423
74842,106362
74869,106468
74867,106405
74848,106435
74820,106462
74886,106413
74860,106439
74833,106410
74853,106379
74829,106453
74915,106415
74862,106433
74901,106436
74845,106456
74805,106415
74928,106393
74857,106471
74893,106433
74871,106427
74841,106423
74902,106410
74850,106441
74884,106450
74851,106466
74895,106417
74902,106377
74856,106443
74890,106443
74850,106456
74905,106422
74877,106382
74838,106445
74915,106432
74858,106470
74911,106420
74862,106441
74824,106460
74880,106433
74851,106472
74914,106401
74868,106383
74853,106495
74873,106428
74863,106445
74858,106418
74907,106442
74870,106473
74867,106420
74892,106402
74850,106449
74879,106480
74862,106458
74900,106451
74894,106416
74906,106438
74871,106495
74893,106424
74891,106395
74902,106465
74913,106435
74881,106499
74832,106441
74934,106434
74887,106452
74851,106456
74911,106426
74876,106494
74919,106441
74873,106459
74840,106453
74898,106424
74867,106493
74929,106454
74870,106473
74891,106464
74857,106395
74862,106462
74937,106438
74873,106467
74839,106477
74897,106432
74895,106480
74901,106414
74877,106461
74875,106440
74856,106441
74908,106432
74882,106462
74886,106462
74862,106395
74856,106472
74934,106440
74880,106480
74914,106455
74854,106482
74851,106446
74910,106401
74875,106484
74883,106449
74870,106393
74889,106496
74911,106419
74870,106457
74846,106464
74887,106433
74907,106447
74857,106420
74872,106403
74846,106475
74910,106425
74898,106464
74899,106439
74859,106467
74813,106445
74902,106429
74877,106435
74853,106463
74878,106475
74879,106454
74899,106479
74884,106429
74893,106412
74864,106489
74903,106440
74900,106454
74842,106407
74922,106449
74871,106486
74918,106424
74891,106426
74827,106421
74918,106426
74855,106485
74924,106420
74895,106437
74832,106436
74905,106414
74866,106488
74942,106437
74898,106391
74860,106496
74902,106433
74889,106452
74866,106419
74918,106422
74875,106486
74895,106443
74904,106449
74866,106402
74876,106430
74884,106491
74854,106456
74933,106436
74899,106437
74898,106438
74895,106396
74880,106465
74952,106435
74888,106418
74864,106475
74910,106431
74878,106442
74880,106411
74931,106416
74876,106501
74905,106422
74894,106394
74906,106452
74922,106441
74875,106483
74896,106425
74897,106439
74855,106402
74895,106389
74866,106473
74896,106403
74888,106437
74808,106419
74849,106440
74867,106395
74835,106435
74880,106378
74893,106397
74856,106440
74797,106393
74914,106383
74858,106431
74869,106401
74836,106390
74774,106405
74894,106391
74845,106414
74836,106405
74812,106439
74768,106380
74868,106322
74799,106407
74820,106399
74787,106352
74807,106398
74846,106360
74778,106380
74729,106377
74798,106356
74783,106380
74786,106345
74762,106313
74727,106384
74775,106317
74808,106419
74546,106237
74745,106318
74751,106325
74719,106344
74615,106332
74742,106358
74739,106296
74690,106348
74668,106328
74739,106320
74692,106337
74641,106318
74716,106325
74648,106341
74684,106281
74685,106218
74650,106355
74669,106300
74616,106293
74618,106276
74657,106204
74595,106325
74644,106259
74613,106290
74645,106246
74600,106236
74573,106285
74581,106269
74586,106264
74545,106225
74609,106232
74547,106295
74546,106237
74607,106219
74503,106187
74542,106247
74520,106234
74562,106209
74546,106237
74536,106195
74500,106216
74450,106202
74533,106194
74504,106227
74516,106204
74479,106248
74433,106200
74547,106181
74481,106201
74434,106203
74503,106149
74452,106218
74493,106176
74474,106117
74437,106212
74454,106163
74432,106212
74405,106152
74475,106128
74426,106213
74454,106166
74435,106194
74430,106135
74422,106119
74425,106204
74391,106158
74399,106164
74442,106158
74431,106156
74380,106208
74428,106155
74418,106109
74383,106125
74438,106144
74363,106161
74361,106142
74431,106095
74379,106150
74417,106156
74367,106156
74373,106123
74383,106073
74360,106146
74408,106138
74345,106141
74375,106107
74397,106070
74365,106195
74387,106160
74360,106099
74382,106142
74390,106111
74359,106171
74305,106125
74411,106121
74380,106143
74391,106121
74360,106165
74349,106145
74394,106130
74378,106116
74356,106150
74365,106145
74353,106061
74363,106144
74409,106106
74369,106176
74318,106124
74394,106126
74378,106142
74330,106102
74394,106122
74345,106165
74372,106104
74401,106057
74354,106152
74384,106141
74348,106140
74345,106112
74405,106057
74350,106151
74399,106133
74339,106163
74407,106108
74373,106103
74328,106134
74396,106124
74350,106139
74385,106137
74343,106122
74387,106166
74347,106148
74380,106121
74395,106098
74355,106078
74346,106134
74378,106119
74380,106150
74382,106111
74369,106083
74333,106148
74409,106106
74408,106154
74401,106111
74369,106174
74340,106156
74402,106119
74402,106153
74372,106107
74381,106098
74358,106182
74414,106133
74396,106079
74368,106156
74401,106150
74377,106132
74368,106106
74401,106079
74369,106184
74427,106147
74369,106137
74394,106143
74400,106038
74410,106153
74426,106138
74414,106123
74419,106082
74374,106149
74420,106164
74370,106147
74385,106142
74454,106119
74396,106187
74381,106156
74421,106112
74431,106187
74442,106119
74390,106195
74386,106159
74423,106083
74419,106169
74482,106115
74413,106198
74429,106143
74430,106096
74455,106188
74447,106139
74430,106201
74384,106149
74486,106140
74468,106185
74409,106177
74465,106196
74417,106162
74464,106117
74473,106161
74469,106169
74436,106233
74444,106159
74473,106188
74449,106148
74447,106156
74436,106187
74476,106163
74471,106205
74438,106169
74507,106175
74450,106239
74489,106193
74496,106122
74466,106242
74493,106206
74460,106186
74458,106185
74523,106177
74450,106252
74494,106205
74481,106199
74458,106185
74505,106150
74482,106265
74493,106190
74490,106217
74492,106193
74494,106143
74506,106243
74505,106190
74492,106191
74506,106227
74501,106155
74487,106280
74497,106193
74527,106177
74489,106189
74528,106203
74491,106238
74504,106183
74512,106137
74474,106217
74542,106217
74487,106235
74517,106194
74524,106198
74463,106210
74519,106216
74484,106237
74523,106195
74529,106125
74507,106263
74520,106206
74486,106201
74510,106201
74530,106183
74518,106245
74479,106198
74527,106171
74528,106252
74504,106220
74504,106228
74474,106202
74493,106208
74573,106197
74512,106257
74518,106222
74492,106165
74539,106243
74551,106193
74507,106259
74457,106221
74537,106210
74557,106213
74468,106199
74553,106186
74503,106265
74552,106192
74532,106225
74487,106196
74531,106190
74508,106256
74555,106207
74519,106211
74529,106218
74499,106168
74485,106243
74566,106184
74515,106219
74457,106215
74527,106171
74523,106234
74458,106192
74524,106178
74504,106212
74524,106221
74500,106171
74511,106161
74491,106192
74531,106190
74496,106245
74511,106190
74503,106138
74499,106175
74535,106194
74486,106234
74498,106182
74510,106170
74496,106178
74525,106185
74485,106229
74459,106170
74561,106148
74504,106222
74514,106181
74491,106139
74503,106201
74534,106158
74479,106213
74441,106186
74485,106135
74516,106206
74545,106166
74523,106234
74433,106175
74492,106160
74488,106171
74478,106126
74453,106185
74529,106171
74487,106189
74446,106153
74518,106154
74461,106236
74465,106161
74516,106113
74504,106202
74524,106181
74485,106217
74428,106167
74550,106135
74496,106198
74520,106177
74472,106192
74473,106159
74527,106104
74493,106190
74504,106182
74468,106206
74451,106169
74542,106130
74481,106193
74468,106179
74534,106135
74505,106211
74513,106127
74449,106197
74529,106171
74476,106173
74518,106115
74518,106102
74482,106213
74523,106187
74484,106197
74531,106150
74498,106135
74482,106215
74511,106171
74516,106196
74481,106161
74542,106189
74491,106212
74470,106161
74558,106128
74522,106219
74522,106188
74493,106198
74476,106175
74572,106174
74502,106193
74518,106189
74501,106163
74445,106190
74576,106144
74501,106220
74542,106200
74497,106201
74509,106204
74543,106176
74547,106198
74476,106207
74509,106179
74566,106175
74539,106114
74520,106243
74545,106197
74507,106197
74517,106168
74582,106176
74538,106258
74557,106189
74557,106221
74503,106164
74578,106148
74537,106272
74547,106206
74556,106224
74536,106188
74586,106218
74535,106233
74502,106191
74639,106193
74560,106224
74523,106228
74604,106205
74562,106257
74603,106207
74571,106151
74571,106291
74563,106260
74589,106204
74623,106245
74596,106234
74599,106249
74577,106274
74604,106220
74643,106170
74601,106307
74622,106257
74596,106192
74635,106274
74628,106238
74626,106268
74595,106283
74633,106236
74630,106278
74558,106239
74663,106255
74607,106317
74661,106239
74639,106262
74574,106250
74651,106263
74622,106306
74672,106254
74657,106271
74609,106275
74687,106250
74638,106289
74662,106231
74664,106205
74633,106255
74636,106268
74663,106284
74621,106255
74662,106267
74631,106298
74676,106274
74667,106297
74654,106253
74675,106227
74628,106323
74713,106279
74681,106316
74676,106257
74670,106248
74634,106320
74677,106280
74675,106317
74623,106281
74699,106291
74670,106307
74646,106283
74732,106258
74659,106324
74660,106309
74665,106231
74680,106306
74722,106275
74680,106333
74706,106310
74679,106262
74675,106274
74729,106260
74659,106321
74695,106307
74719,106321
74732,106310
74704,106334
74670,106324
74714,106259
74694,106339
74735,106293
74698,106280
74686,106351
74731,106293
74704,106364
74660,106288
74729,106314
74687,106375
74719,106301
74724,106340
74669,106298
74715,106281
74693,106364
74721,106306
74736,106340
74667,106290
74753,106331
74694,106358
74692,106299
74774,106275
74719,106350
74710,106322
74715,106259
74748,106304
74768,106304
74713,106347
74698,106327
74742,106279
74738,106320
74680,106302
74765,106345
74706,106370
74748,106329
74737,106332
74724,106333
74744,106349
74710,106369
74708,106319
74788,106266
74725,106385
74719,106337
74745,106264
74756,106374
74753,106303
74729,106372
74690,106340
74781,106317
74766,106357
74766,106324
74730,106388
74671,106333
74774,106322
74770,106365
74773,106312
74730,106361
74742,106373
74790,106365
74775,106327
74772,106341
74751,106380
74692,106340
74821,106312
74776,106368
74758,106363
74754,106310
74743,106362
74829,106326
74754,106375
74790,106366
74733,106325
74763,106349
74827,106333
74772,106395
74779,106372
74767,106283
74784,106395
74821,106331
74761,106374
74751,106347
74803,106359
74809,106378
74713,106339
74822,106362
74769,106399
74798,106358
74821,106356
74730,106361
74824,106364
74773,106370
74763,106331
74803,106327
74822,106361
74762,106365
74846,106362
74774,106408
74859,106360
74835,106285
74803,106409
74816,106376
74795,106365
74824,106412
74854,106348
74811,106419
74767,106361
74841,106366
74832,106403
74826,106359
74799,106361
74753,106392
74857,106362
74816,106400
74844,106390
74801,106429
74758,106369
74890,106349
74815,106402
74795,106395
74829,106353
74813,106410
74824,106364
74821,106375
74839,106362
74795,106357
74829,106377
74886,106348
74803,106418
74809,106407
74846,106327
74856,106418
74876,106379
74835,106426
74843,106392
74809,106396
74840,106387
74870,106360
74836,106421
74792,106387
74860,106326
74877,106423
74871,106384
74852,106378
74839,106436
74891,106394
74861,106396
74821,106396
74885,106363
74837,106443
74898,106376
74847,106407
74879,106427
74853,106371
74835,106415
74899,106396
74859,106402
74876,106378
74875,106411
74895,106400
74882,106380
74858,106420
74904,106430
74836,106438
74841,106413
74930,106380
74883,106435
74903,106408
74872,106411
74872,106401
74935,106409
74871,106471
74901,106416
74881,106440
74851,106408
74927,106395
74856,106475
74882,106399
74874,106412
74877,106407
74904,106394
74858,106464
74806,106395
74946,106404
74875,106422
74840,106406
74853,106411
74827,106390
74892,106388
74837,106414
74838,106447
74823,106445
74860,106396
74847,106427
74837,106387
74820,106346
74812,106435
74865,106362
74826,106369
74777,106394
74853,106387
74784,106420
74798,106357
74833,106327
74794,106435
74804,106369
74769,106319
74774,106361
74810,106325
74748,106419
74758,106362
74744,106364
74723,106340
74751,106322
74727,106398
74730,106324
74721,106333
74679,106313
74694,106349
74676,106285
74710,106324
74720,106327
74724,106289
74672,106352
74612,106309
74714,106285
74701,106338
74681,106277
74644,106328
74589,106269
74691,106263
74653,106316
74648,106281
74601,106323
74581,106288
74642,106209
74601,106302
74607,106262
74572,106299
74533,106248
74629,106232
74558,106279
74517,106249
74575,106222
74540,106273
74577,106233
74522,106191
74476,106254
74537,106199
74504,106263
74521,106189
74495,106220
74513,106242
74487,106202
74504,106176
74476,106210
74482,106212
74444,106221
74428,106194
74496,106180
74442,106194
74399,106204
74458,106178
74439,106219
74421,106162
74460,106139
74414,106237
74410,106162
74403,106174
74366,106135
74440,106165
74375,106215
74390,106141
74393,106176
74361,106134
74408,106120
74358,106197
74374,106143
74392,106085
74357,106169
74385,106163
74321,106142
74340,106085
74364,106122
74357,106133
74355,106148
74340,106141
74376,106113
74332,106110
74285,106108
74342,106070
74312,106140
74377,106102
74323,106113
74327,106112
74320,106079
74301,106146
74374,106081
74306,106104
74270,106126
74332,106076
74317,106143
74326,106084
74314,106058
74312,106154
74322,106105
74303,106126
74287,106072
74374,106110
74301,106161
74307,106101
74325,106121
74330,106071
74297,106131
74296,106087
74322,106105
74325,106120
74305,106107
74309,106116
74309,106090
74326,106092
74306,106102
74341,106111
74282,106158
74265,106103
74383,106090
74317,106138
74344,106111
74314,106119
74261,106104
74386,106101
74318,106129
74344,106130
74304,106131
74287,106113
74373,106059
74317,106168
74327,106138
74296,106092
74331,106127
74376,106086
74314,106153
74293,106118
74340,106118
74339,106156
74327,106090
74340,106171
74297,106110
74335,106105
74325,106127
74347,106095
74309,106170
74326,106134
74318,106114
74318,106101
74353,106124
74316,106171
74278,106126
74371,106080
74332,106142
74348,106131
74314,106084
74313,106163
74371,106120
74331,106126
74266,106138
74356,106124
74331,106156
74380,106101
74332,106137
74293,106146
74328,106076
74341,106165
74380,106107
74330,106141
74307,106139
74374,106113
74327,106090
74400,106157
74351,106123
74324,106163
74378,106169
74330,106112
74377,106129
74323,106131
74394,106175
74361,106167
74376,106125
74377,106073
74367,106152
74399,106155
74344,106182
74401,106116
74365,106156
74332,106142
74427,106147
74365,106193
74431,106141
74382,106077
74373,106175
74408,106160
74371,106157
74366,106147
74417,106144
74387,106200
74354,106145
74430,106103
74412,106202
74416,106124
74394,106221
74400,106157
74423,106097
74442,106156
74400,106160
74418,106189
74426,106145
74428,106178
74385,106161
74453,106146
74409,106221
74436,106168
74461,106136
74421,106217
74464,106202
74408,106204
74404,106185
74498,106160
74433,106208
74450,106205
74415,106185
74419,106185
74467,106119
74434,106231
74465,106189
74434,106206
74417,106178
74503,106160
74453,106271
74476,106187
74460,106186
74480,106204
74479,106185
74438,106235
74471,106155
74483,106193
74506,106206
74462,106238
74472,106160
74454,106226
74500,106198
74486,106203
74514,106220
74479,106194
74436,106202
74536,106183
74481,106220
74485,106227
74473,106155
74492,106247
74540,106194
74474,106240
74466,106235
74509,106215
74507,106234
74467,106193
74525,106172
74482,106279
74519,106223
74530,106221
74448,106183
74524,106189
74500,106269
74514,106196
74503,106229
74513,106184
74491,106254
74501,106221
74446,106210
74552,106193
74526,106196
74486,106204
74461,106264
74550,106197
74513,106233
74462,106220
74533,106212
74477,106247
74526,106200
74510,106126
74485,106253
74540,106204
74500,106246
74555,106196
74500,106205
74454,106238
74543,106211
74521,106249
74481,106185
74542,106178
74506,106258
74477,106192
74547,106169
74513,106238
74506,106207
74492,106217
74435,106223
74527,106202
74485,106213
74475,106218
74487,106215
74525,106235
74469,106205
74546,106197
74472,106278
74534,106219
74516,106196
74491,106202
74515,106197
74479,106253
74422,106183
74567,106179
74498,106225
74479,106209
74520,106157
74487,106258
74552,106192
74495,106202
74448,106238
74521,106212
74490,106241
74529,106184
74477,106228
74444,106208
74506,106177
74514,106238
74537,106192
74483,106216
74487,106235
74497,106157
74515,106211
74473,106190
74475,106206
74495,106215
74455,106193
74542,106182
74480,106221
74474,106206
74477,106138
74478,106223
74540,106182
74484,106224
74489,106200
74454,106178
74477,106202
74530,106167
74485,106236
74423,106206
74522,106172
74496,106232
74484,106144
74500,106150
74472,106239
74497,106198
74504,106147
74468,106204
74510,106209
74479,106223
74454,106191
74530,106140
74463,106228
74466,106197
74479,106186
74491,106204
74493,106188
74502,106201
74478,106240
74473,106180
74545,106143
74500,106226
74511,106209
74507,106150
74477,106237
74546,106191
74489,106195
74472,106222
74524,106203
74504,106222
74535,106182
74498,106154
74484,106232
74533,106197
74527,106240
74542,106171
74509,106190
74494,106247
74546,106219
74556,106219
74486,106203
74562,106226
74515,106251
74488,106196
74594,106178
74550,106204
74518,106264
74508,106225
74560,106203
74553,106219
74524,106222
74586,106219
74531,106268
74598,106212
74554,106252
74498,106242
74594,106223
74536,106276
74604,106244
74566,106162
74547,106288
74571,106249
74545,106258
74564,106244
74587,106240
74570,106288
74520,106232
74603,106207
74581,106274
74593,106267
74573,106280
74568,106231
74603,106206
74566,106221
74606,106262
74575,106304
74587,106258
74627,106267
74564,106229
74582,106281
74545,106266
74614,106272
74608,106234
74595,106289
74636,106285
74583,106298
74578,106258
74664,106239
74622,106306
74625,106274
74591,106297
74585,106262
74658,106220
74620,106337
74635,106289
74611,106296
74588,106267
74649,106260
74636,106348
74623,106287
74663,106210
74657,106330
74656,106272
74644,106247
74628,106337
74694,106290
74652,106281
74625,106309
74587,106258
74734,106276
74623,106282
74655,106282
74654,106271
74636,106327
74678,106302
74647,106336
74705,106295
74645,106258
74650,106353
74670,106312
74652,106329
74648,106291
74704,106315
74664,106358
74617,106301
74751,106300
74692,106343
74692,106351
74682,106295
74666,106356
74729,106304
74683,106342
74690,106348
74681,106259
74682,106346
74730,106286
74692,106329
74672,106352
74723,106295
74704,106382
74725,106322
74734,106276
74698,106338
74686,106350
74718,106319
74749,106309
74710,106408
74732,106352
74696,106355
74699,106313
74759,106303
74698,106407
74735,106337
74724,106363
74758,106317
74724,106291
74726,106424
74745,106338
74729,106363
74727,106344
74758,106349
74724,106404
74675,106333
74801,106334
74724,106360
74709,106373
74784,106341
74727,106378
74798,106326
74739,106363
74712,106376
74785,106349
74737,106379
74783,106341
74756,106355
74777,106400
74769,106358
74763,106371
74784,106387
74767,106380
74761,106322
74739,106394
74793,106353
74766,106321
74762,106410
74778,106372
74743,106399
74734,106362
74813,106337
74769,106436
74788,106371
74774,106395
74748,106353
74818,106373
74761,106425
74787,106371
74789,106386
74754,106356
74794,106385
74769,106427
74732,106362
74844,106359
74788,106385
74720,106395
74836,106370
74768,106335
74815,106388
74805,106390
74782,106404
74778,106396
74814,106439
74823,106387
74786,106413
74782,106408
74807,106341
74823,106425
74843,106364
74797,106413
74766,106384
74831,106366
74823,106422
74745,106360
74845,106426
74789,106426
74793,106368
74843,106330
74812,106438
74815,106404
74786,106424
74770,106376
74844,106345
74815,106439
74835,106401
74784,106413
74826,106373
74839,106322
74793,106453
74793,106429
74818,106335
74867,106391
74850,106373
74798,106438
74842,106383
74812,106391
74821,106389
74852,106369
74806,106439
74792,106371
74846,106342
74848,106398
74836,106382
74799,106418
74793,106369
74838,106312
74829,106385
74848,106413
74806,106423
74794,106359
74903,106352
74826,106412
74832,106415
74848,106335
74842,106425
74861,106368
74850,106352
74833,106454
74839,106386
74828,106408
74812,106375
74842,106422
74855,106442
74839,106404
74867,106411
74845,106362
74829,106442
74801,106397
74882,106357
74874,106427
74862,106386
74845,106358
74840,106423
74890,106369
74868,106391
74833,106412
74871,106407
74840,106431
74841,106403
74890,106339
74851,106460
74882,106405
74842,106421
74896,106379
74855,106369
74839,106429
74889,106396
74887,106429
74900,106382
74902,106356
74870,106460
74886,106382
74914,106353
74893,106348
74896,106419
74876,106408
74882,106397
74911,106414
74821,106380
74937,106399
74879,106453
74901,106397
74910,106389
74836,106394
74919,106405
74871,106452
74925,106376
74888,106376
74854,106404
74894,106428
74857,106438
74861,106376
74938,106376
74872,106446
74851,106429
74922,106381
74914,106432
74907,106398
74870,106382
74864,106449
74890,106381
74914,106429
74865,106394
74874,106362
74845,106419
74885,106376
74909,106402
74890,106401
74853,106394
74865,106393
74870,106422
74810,106360
74873,106380
74842,106435
74802,106376
74903,106355
74832,106396
74859,106385
74805,106336
74813,106385
74852,106355
74791,106391
74810,106392
74773,106344
74765,106369
74863,106325
74794,106391
74773,106361
74753,106291
74792,106385
74799,106314
74756,106351
74742,106352
74788,106313
74764,106355
74708,106342
74781,106346
74712,106346
74721,106338
74654,106332
74689,106305
74700,106358
74642,106291
74745,106282
74695,106320
74692,106306
74652,106338
74603,106297
74723,106286
74650,106315
74633,106300
74657,106271
74626,106328
74653,106264
74649,106223
74604,106324
74608,106263
74596,106282
74564,106267
74627,106249
74566,106344
74577,106234
74568,106264
74538,106224
74593,106253
74537,106301
74555,106222
74550,106222
74781,106346
74433,106154
74522,106248
74506,106244
74492,106261
74542,106242
74493,106216
74512,106237
74473,106247
74474,106201
74550,106164
74478,106256
74488,106211
74464,106220
74440,106212
74523,106160
74458,106261
74471,106207
74429,106207
74424,106161
74498,106154
74429,106251
74441,106179
74453,106147
74465,106226
74464,106162
74429,106150
74416,106213
74468,106172
74433,106184
74394,106168
74445,106185
74393,106232
74433,106154
74442,106172
74426,106157
74419,106185
74363,106162
74422,106174
74379,106154
74430,106139
74379,106220
74431,106155
74433,106133
74416,106189
74424,106190
74372,106182
74387,106171
74451,106130
74421,106192
74377,106174
74394,106106
74431,106179
74457,106130
74412,106215
74411,106186
74402,106153
74393,106163
74453,106131
74411,106222
74415,106175
74433,106121
74416,106215
74446,106162
74401,106192
74414,106194
74451,106163
74412,106173
74428,106200
74351,106181
74411,106185
74475,106162
74415,106197
74432,106200
74408,106155
74386,106193
74492,106149
74431,106193
74433,106207
74403,106195
74437,106168
74482,106141
74427,106212
74380,106188
74469,106146
74439,106193
74442,106172
74451,106143
74417,106225
74453,106163
74466,106207
74406,106183
74479,106194
74428,106234
74482,106178
74475,106216
74394,106191
74451,106208
74406,106184
74504,106182
74468,106190
74452,106237
74479,106213
74431,106174
74473,106212
74498,106178
74452,106216
74433,106220
74502,106192
74475,106224
74475,106189
74453,106149
74444,106235
74521,106196
74491,106222
74496,106188
74463,106231
74423,106200
74534,106201
74483,106241
74516,106222
74480,106180
74481,106251
74545,106194
74495,106224
74457,106245
74521,106228
74493,106237
74465,106200
74521,106224
74465,106269
74468,106194
74532,106239
74520,106240
74527,106225
74500,106241
74457,106231
74579,106204
74515,106241
74527,106250
74500,106206
74512,106271
74577,106225
74521,106238
74502,106281
74530,106237
74527,106263
74516,106246
74567,106237
74518,106293
74540,106250
74542,106230
74509,106249
74574,106234
74530,106310
74538,106257
74555,106271
74521,106226
74574,106238
74543,106335
74543,106256
74568,106249
74541,106257
74559,106269
74509,106259
74565,106264
74582,106281
74595,106243
74562,106272
74521,106277
74641,106240
74582,106273
74611,106282
74557,106281
74521,106261
74639,106225
74570,106292
74600,106287
74564,106287
74554,106267
74652,106258
74574,106267
74532,106290
74604,106261
74575,106311
74599,106241
74594,106216
74574,106352
74604,106268
74609,106285
74566,106261
74656,106288
74587,106322
74607,106252
74620,106293
74591,106285
74600,106252
74632,106276
74597,106298
74610,106274
74654,106271
74609,106325
74536,106279
74668,106277
74644,106294
74614,106290
74639,106243
74618,106313
74661,106277
74621,106252
74583,106310
74645,106300
74615,106321
74679,106266
74619,106300
74567,106308
74656,106263
74632,106332
74675,106263
74625,106302
74608,106325
74658,106280
74648,106317
74581,106283
74671,106302
74627,106268
74618,106292
74670,106322
74638,106276
74621,106324
74566,106310
74653,106268
74657,106315
74668,106278
74624,106353
74617,106284
74643,106222
74654,106316
74666,106289
74625,106330
74567,106297
74699,106268
74621,106300
74582,106298
74672,106304
74627,106327
74660,106284
74626,106218
74619,106343
74640,106284
74607,106311
74600,106284
74635,106223
74620,106346
74633,106278
74624,106308
74600,106254
74634,106306
74622,106315
74612,106281
74640,106272
74662,106276
74613,106320
74556,106285
74629,106273
74614,106296
74593,106282
74612,106249
74594,106316
74612,106265
74621,106293
74555,106273
74646,106266
74588,106328
74646,106256
74614,106310
74585,106268
74624,106231
74577,106319
74658,106257
74601,106261
74584,106301
74613,106276
74596,106279
74571,106262
74642,106255
74592,106335
74586,106268
74600,106254
74604,106301
74606,106214
74566,106287
74634,106272
74580,106254
74667,106256
74634,106286
74618,106294
74581,106254
74566,106272
74655,106264
74592,106294
74563,106292
74636,106269
74595,106295
74570,106264
74657,106250
74583,106330
74612,106272
74614,106215
74621,106292
74631,106272
74592,106327
74559,106268
74640,106216
74604,106287
74630,106281
74594,106298
74602,106256
74624,106210
74598,106300
74619,106299
74604,106301
74605,106266
74611,106262
74595,106281
74576,106315
74578,106305
74635,106256
74629,106229
74562,106275
74623,106272
74574,106299
74653,106261
74614,106230
74555,106310
74649,106298
74581,106300
74644,106256
74605,106243
74596,106307
74622,106278
74619,106289
74575,106266
74650,106273
74608,106304
74552,106273
74663,106241
74630,106302
74632,106284
74596,106304
74589,106298
74658,106267
74613,106292
74616,106293
74621,106298
74633,106251
74644,106265
74605,106293
74658,106297
74603,106312
74601,106270
74671,106221
74627,106320
74620,106290
74630,106231
74662,106343
74674,106271
74622,106302
74626,106364
74655,106303
74683,106322
74620,106287
74640,106278
74614,106313
74700,106312
74656,106336
74642,106306
74655,106310
74627,106349
74681,106299
74664,106327
74612,106300
74716,106308
74650,106352
74663,106298
74661,106291
74677,106343
74676,106324
74699,106343
74685,106308
74723,106295
74651,106402
74694,106328
74667,106367
74656,106317
74725,106303
74668,106404
74699,106329
74693,106300
74693,106345
74712,106331
74687,106374
74634,106335
74746,106328
74707,106350
74652,106359
74704,106328
74685,106381
74756,106332
74704,106340
74682,106377
74727,106344
74708,106382
74743,106335
74706,106374
74652,106349
74731,106312
74748,106357
74759,106339
74694,106347
74733,106356
74679,106371
74778,106348
74736,106376
74671,106374
74762,106326
74720,106402
74771,106340
74721,106335
74699,106405
74764,106347
74723,106381
74771,106340
74712,106359
74686,106396
74755,106342
74738,106402
74779,106354
74736,106349
74736,106406
74755,106360
74753,106383
74701,106371
74778,106393
74741,106412
74707,106373
74820,106343
74755,106422
74777,106396
74737,106393
74777,106360
74794,106410
74798,106394
74679,106371
74727,106399
74821,106372
74774,106419
74797,106403
74787,106338
74781,106419
74828,106367
74784,106395
74758,106417
74797,106381
74781,106407
74759,106370
74813,106385
74769,106453
74771,106387
74809,106351
74785,106401
74825,106410
74793,106444
74793,106379
74800,106407
74771,106377
74810,106413
74778,106435
74812,106379
74822,106354
74779,106403
74820,106423
74777,106407
74790,106380
74836,106364
74831,106405
74791,106418
74778,106414
74846,106395
74801,106408
74793,106405
74817,106354
74782,106410
74871,106388
74799,106422
74839,106421
74806,106387
74798,106415
74862,106401
74814,106414
74756,106435
74844,106403
74832,106442
74787,106390
74869,106397
74817,106461
74824,106387
74831,106372
74812,106403
74857,106441
74820,106454
74823,106388
74852,106389
74841,106409
74838,106416
74805,106393
74825,106400
74844,106418
74854,106397
74827,106461
74772,106413
74889,106394
74831,106425
74777,106411
74860,106419
74823,106464
74849,106398
74855,106343
74824,106469
74856,106415
74824,106451
74865,106403
74850,106359
74802,106439
74876,106414
74827,106452
74863,106384
74838,106328
74815,106483
74852,106413
74859,106405
74825,106420
74854,106417
74862,106451
74806,106409
74869,106424
74851,106398
74837,106440
74843,106379
74790,106426
74887,106354
74847,106447
74866,106421
74835,106431
74872,106390
74875,106357
74842,106436
74878,106439
74833,106441
