73021,102689
72909,102465
72972,102495
72849,102553
72884,102515
73050,102673
73013,102435
73050,102630
73001,102546
73055,102663
72988,102527
73050,102608
72968,102521
73051,102648
72996,102526
73027,102659
72972,102579
73039,102636
72973,102537
73016,102655
72987,102546
73030,102654
73010,102528
73014,102653
73012,102543
73046,102642
72989,102492
73048,102657
72991,102573
72996,102664
72985,102592
73050,102683
72869,102598
72898,102577
72853,102570
72918,102550
72955,102559
73075,102672
72992,102603
73033,102656
73013,102539
73045,102714
73003,102547
72985,102656
73003,102604
73071,102678
72968,102555
73030,102661
72980,102566
73038,102671
72994,102543
73017,102667
72988,102529
73037,102697
72993,102532
73020,102667
73023,102534
73002,102651
73005,102574
72999,102655
73008,102598
73040,102656
72991,102604
73022,102705
72907,102547
72903,102583
72891,102604
72880,102608
72988,102622
73056,102670
73005,102565
73044,102705
72985,102564
73022,102687
73017,102594
73070,102700
72994,102553
73044,102694
72980,102533
73038,102679
73006,102552
73063,102690
72981,102548
73020,102695
73005,102606
73031,102678
72995,102622
73079,102706
72995,102583
73059,102678
72995,102557
73058,102689
73005,102544
73034,102714
72986,102550
73022,102705
73087,102700
73008,102600
72866,102502
72957,102555
72872,102653
73147,102711
72989,102643
73019,102686
72980,102565
73019,102664
73018,102548
73063,102669
72995,102580
73022,102726
73031,102559
73026,102702
72991,102546
73049,102697
73011,102561
73030,102705
73009,102567
73031,102667
73007,102616
73052,102712
72982,102603
73068,102752
73017,102549
73078,102716
72979,102567
73068,102685
73000,102571
73082,102743
72888,102565
72871,102645
72898,102611
72889,102625
72874,102635
73127,102728
72999,102607
73073,102717
73013,102566
73071,102730
73014,102576
73020,102691
73025,102579
73073,102701
73023,102592
73058,102721
73011,102549
73066,102707
73017,102548
73055,102689
72982,102550
73092,102704
73020,102576
73076,102716
73030,102550
73095,102728
73041,102560
73084,102659
73060,102573
73058,102707
73032,102567
73061,102715
72849,102533
72887,102627
72873,102570
72873,102570
72897,102621
73019,102648
73044,102675
73034,102553
73098,102700
73044,102598
73065,102677
73023,102561
73092,102728
73033,102551
73095,102711
73021,102546
73100,102706
73047,102539
73065,102691
73015,102591
73081,102720
73066,102555
73113,102696
73043,102576
73069,102712
73034,102591
73104,102719
73059,102556
73086,102719
73051,102548
73069,102718
73035,102570
73168,102743
73101,102615
72907,102554
72956,102587
72916,102629
73012,102674
72877,102478
73128,102719
73060,102559
73099,102727
73042,102568
73113,102709
73029,102537
73084,102708
73019,102547
73084,102698
73023,102574
73074,102696
73041,102535
73126,102677
73061,102572
73084,102670
73040,102604
73103,102700
73058,102552
73131,102706
73055,102570
73112,102694
73049,102568
73119,102701
73055,102554
73082,102660
72973,102545
72884,102651
72931,102597
72937,102632
72922,102605
73110,102693
73054,102498
73090,102676
73045,102539
73109,102674
73069,102591
73078,102670
73064,102540
73088,102697
73066,102525
73102,102685
73032,102557
73132,102658
73087,102510
73097,102673
73059,102508
73147,102698
73063,102557
73121,102672
73045,102514
73126,102706
73061,102560
73092,102648
73042,102533
73110,102666
73033,102567
73079,102661
72924,102428
73012,102524
72937,102545
72930,102583
73034,102602
73133,102666
73055,102539
73107,102648
73051,102541
73129,102631
73049,102544
73120,102649
73028,102507
73111,102657
73032,102519
73082,102673
73049,102491
73092,102643
73028,102533
73098,102647
73048,102470
73091,102613
73037,102498
73079,102653
73045,102478
73086,102639
73043,102501
73066,102640
73020,102511
73061,102639
73028,102490
73079,102661
73078,102647
72849,102431
72968,102463
72877,102559
72890,102554
73161,102648
72998,102532
73060,102601
73030,102473
73053,102623
72996,102449
73034,102624
72982,102495
73062,102601
73005,102457
73050,102588
73025,102461
73011,102610
72985,102487
73041,102646
72969,102510
72998,102557
72968,102543
73011,102600
73006,102521
73008,102616
72967,102491
72998,102623
72991,102458
73042,102604
72954,102484
72997,102589
72815,102536
72854,102479
72855,102511
72841,102467
72856,102536
73037,102603
72965,102475
73042,102599
72976,102454
72995,102608
72949,102459
73013,102584
72973,102443
73011,102594
72939,102469
73024,102597
72949,102488
72986,102556
72951,102449
72996,102578
72952,102449
73003,102566
72945,102484
72964,102612
72961,102447
72983,102580
72972,102491
72970,102581
72916,102453
72994,102553
72952,102447
72997,102589
72980,102572
72883,102412
72830,102490
72850,102474
72825,102502
72946,102483
72980,102564
72924,102425
73003,102606
72928,102459
73032,102607
72934,102466
72980,102558
72923,102436
72987,102595
72934,102431
72998,102595
72934,102460
73022,102592
72934,102463
73015,102577
72945,102429
72991,102589
72931,102449
72982,102572
72927,102445
73053,102582
72934,102477
72996,102561
72935,102501
72981,102593
72938,102469
73056,102575
72905,102435
72784,102400
72857,102470
72804,102531
72886,102544
72795,102347
73005,102602
72934,102490
73002,102609
72958,102448
72978,102597
72947,102448
72992,102574
72949,102459
73004,102560
72945,102450
73001,102597
72960,102454
73013,102590
72936,102468
72980,102594
72963,102450
72999,102624
72946,102446
73031,102604
72931,102479
73042,102593
72978,102515
73000,102620
72936,102510
73026,102590
72820,102524
72821,102504
72833,102505
72839,102504
72833,102519
73058,102644
72962,102520
73016,102597
72942,102439
73012,102616
72974,102458
73031,102607
72951,102451
73005,102594
72942,102472
72996,102603
72999,102511
73028,102630
72971,102494
73014,102595
72984,102432
73022,102595
72963,102505
73028,102630
72978,102468
72981,102588
72979,102493
73020,102608
72960,102432
72997,102630
72962,102470
73026,102590
72994,102575
72881,102445
72854,102512
72803,102548
72823,102548
72959,102473
73015,102612
72968,102447
72996,102558
72957,102485
72975,102567
72994,102493
72964,102613
72965,102494
72956,102606
72977,102501
73000,102622
72947,102444
72984,102590
72947,102470
73010,102602
72955,102455
72983,102609
72954,102481
73007,102612
72970,102454
73017,102618
72961,102511
73006,102646
72980,102534
72996,102607
73002,102496
73096,102613
73043,102620
72815,102435
72891,102445
72813,102554
72959,102633
72935,102339
73016,102624
72983,102505
73039,102598
72959,102464
73005,102616
72979,102473
73017,102652
72968,102492
73003,102618
72968,102488
72984,102607
72998,102463
73002,102640
72955,102479
73028,102646
72971,102527
73051,102615
72945,102484
73033,102615
72942,102482
73030,102632
73005,102490
73019,102594
72951,102524
73021,102620
72856,102525
72885,102536
72869,102542
72837,102503
72832,102530
72999,102607
72971,102497
73056,102625
72968,102484
73025,102633
72966,102505
73029,102604
72972,102460
73015,102630
72969,102478
73031,102637
72960,102521
73009,102600
72973,102501
73010,102617
72958,102490
73063,102633
72977,102475
73003,102598
72994,102497
73048,102629
72973,102490
73008,102608
72939,102483
72998,102601
72988,102509
73021,102620
73029,102611
72813,102417
72887,102492
72855,102539
72858,102533
72987,102488
72975,102607
72949,102511
72999,102621
72951,102499
73036,102630
72964,102499
72984,102588
72955,102474
72997,102620
72987,102526
72961,102600
72974,102496
72990,102590
72951,102468
73006,102618
72982,102475
73004,102652
72956,102486
73028,102645
72948,102489
73033,102633
72947,102472
73023,102633
72954,102498
72992,102611
72960,102492
73081,102626
73011,102569
72884,102456
72912,102527
72823,102575
73041,102623
72971,102510
73025,102639
72987,102497
72984,102638
72934,102486
72990,102631
72946,102483
73033,102633
72979,102476
73007,102615
72966,102477
72981,102627
72942,102472
72986,102616
72954,102488
72976,102609
72949,102523
73033,102666
72965,102534
73041,102640
72940,102512
72949,102604
72970,102469
73007,102625
72932,102487
72998,102646
72920,102465
72845,102570
72814,102553
72891,102497
72836,102577
72999,102596
72989,102512
73010,102627
72954,102518
73003,102621
72936,102497
73010,102630
72955,102471
72990,102634
72950,102512
72998,102641
72983,102531
72987,102610
72936,102512
73001,102625
72936,102516
72997,102612
72971,102549
73007,102633
72985,102511
73015,102638
72956,102494
73039,102656
72922,102479
72990,102651
72944,102477
72998,102646
72994,102624
72754,102423
72867,102488
72803,102569
72869,102488
72973,102515
72995,102592
72933,102493
73024,102663
72916,102468
73005,102633
72957,102484
72977,102613
72963,102499
72975,102671
72964,102504
73020,102643
72938,102535
73020,102682
72957,102581
73001,102649
72953,102528
73009,102617
72948,102555
72984,102646
72969,102500
73011,102641
72965,102506
72985,102637
72964,102502
72986,102672
72974,102511
73039,102665
72936,102547
72793,102435
72854,102538
72837,102553
72959,102653
72946,102399
73023,102651
72972,102575
73032,102666
72937,102473
72981,102658
72945,102524
73017,102711
72957,102531
72982,102663
72935,102502
73012,102708
72937,102566
72993,102650
72947,102541
72996,102668
72960,102512
72995,102634
72947,102533
73011,102636
72926,102521
73023,102677
72925,102494
73012,102675
72956,102522
73035,102670
72789,102615
72838,102556
72831,102584
72842,102613
72798,102573
73022,102675
72946,102589
72993,102684
72969,102532
72989,102655
72943,102535
73019,102683
72951,102559
72990,102649
72946,102587
73001,102670
72946,102527
73032,102741
72934,102537
73014,102709
72960,102548
73027,102704
72974,102542
73016,102673
72963,102564
73065,102703
72955,102571
73007,102712
72949,102544
73043,102690
72961,102562
73035,102670
72998,102680
72856,102492
72841,102634
72856,102624
72805,102613
72984,102537
73026,102719
72945,102549
73039,102744
72975,102607
73031,102712
72968,102548
73024,102734
72952,102595
73065,102735
72953,102583
73035,102718
73002,102616
73012,102718
72977,102605
73055,102707
72996,102596
73014,102744
72979,102558
73038,102735
72946,102544
73064,102714
72981,102606
73033,102730
73003,102578
73043,102740
72973,102610
73078,102772
73054,102722
72946,102582
72821,102488
72836,102615
73058,102748
72989,102600
73066,102735
72970,102593
73071,102756
72975,102592
73048,102745
72968,102593
73069,102724
72978,102645
73038,102756
72995,102621
73050,102769
72963,102625
73013,102728
72974,102585
73038,102753
72995,102617
73048,102731
72956,102589
73018,102746
72975,102603
73063,102736
73017,102613
73023,102740
72973,102595
73053,102770
72904,102595
72907,102648
72834,102622
72868,102681
72912,102653
73041,102716
73012,102599
73058,102727
72993,102580
73035,102760
72994,102612
73071,102773
72987,102617
73060,102771
72996,102605
73084,102737
73005,102636
73057,102756
72971,102605
73027,102782
73013,102624
73076,102711
73010,102608
73051,102725
72990,102600
73107,102748
73027,102606
73077,102758
72962,102608
73059,102748
73013,102603
73053,102770
73062,102773
72895,102516
72906,102580
72912,102654
72895,102677
72958,102695
72872,102471
73072,102750
73022,102598
73055,102748
72995,102601
73101,102748
73008,102628
73056,102753
72999,102568
73079,102751
72994,102614
73105,102741
73023,102590
73089,102738
73025,102583
73067,102728
73010,102613
73069,102744
73040,102594
73076,102738
73030,102649
73063,102723
73044,102611
73075,102716
73047,102619
73070,102740
72907,102647
72902,102644
72916,102640
72908,102623
72895,102631
72967,102719
72862,102512
73097,102788
73032,102620
73078,102729
73020,102580
73052,102741
73077,102596
73105,102746
73020,102571
73081,102744
73017,102597
73077,102691
73043,102562
73095,102702
73046,102596
73067,102762
73040,102581
73051,102707
73041,102586
73086,102762
73010,102585
73090,102716
73041,102592
73089,102733
73032,102604
73099,102719
73034,102534
72942,102666
72922,102584
72937,102637
72988,102648
73093,102680
73079,102578
73103,102733
73071,102586
73123,102719
73064,102579
73116,102724
73069,102546
73104,102732
73073,102589
73137,102698
73057,102535
73108,102690
73077,102584
73114,102677
73085,102565
73121,102688
73100,102556
73101,102713
73064,102556
73128,102705
73091,102608
73141,102665
73087,102584
73158,102701
73106,102562
73099,102719
73165,102698
73009,102561
72956,102556
72964,102607
72987,102608
73117,102586
73163,102672
73080,102581
73177,102689
73107,102546
73146,102711
73077,102568
73170,102723
73079,102588
73166,102729
73056,102522
73135,102670
73102,102605
73145,102706
73087,102536
73173,102700
73108,102514
73176,102724
73104,102611
73141,102687
73083,102561
73157,102672
73088,102537
73161,102701
73094,102547
73155,102718
73131,102553
73193,102728
73233,102699
73072,102567
72978,102440
73044,102575
73243,102733
73132,102597
73195,102633
73136,102552
73144,102681
73117,102574
73181,102706
73105,102532
73168,102688
73135,102566
73169,102684
73123,102595
73167,102708
73116,102542
73192,102712
73094,102621
73220,102704
73151,102529
73205,102689
73127,102560
73200,102688
73172,102568
73228,102743
73103,102570
73202,102687
73124,102568
73208,102715
73036,102637
73016,102618
73074,102572
73044,102605
73070,102593
73199,102701
73160,102555
73190,102710
73168,102569
73242,102717
73144,102545
73194,102690
73146,102570
73219,102700
73147,102554
73231,102679
73143,102572
73216,102711
73142,102568
73203,102681
73181,102539
73188,102701
73167,102582
73230,102721
73153,102577
73213,102677
73154,102534
73209,102685
73148,102549
73211,102697
73163,102582
73208,102715
73194,102659
72985,102494
73034,102622
73075,102634
73041,102601
73177,102546
73205,102705
73145,102548
73226,102660
73182,102571
73229,102698
73183,102501
73212,102682
73159,102545
73268,102699
73162,102591
73227,102676
73163,102543
73222,102704
73163,102592
73215,102683
73146,102516
73180,102688
73156,102537
73210,102654
73128,102541
73179,102672
73166,102549
73185,102656
73174,102557
73162,102638
73193,102530
73112,102682
73093,102538
73008,102604
73022,102623
72999,102595
73246,102680
73128,102578
73177,102692
73132,102509
73155,102678
73099,102565
73162,102664
73131,102553
73163,102689
73104,102576
73156,102650
73103,102488
73187,102654
73099,102571
73121,102651
73084,102550
73075,102620
73102,102536
73119,102658
73089,102512
73138,102638
73049,102522
73131,102659
73101,102482
73136,102670
73056,102522
73092,102658
72974,102517
72909,102523
72921,102563
72916,102550
73048,102534
73131,102627
73039,102499
73117,102621
73029,102508
73105,102667
73026,102479
73061,102638
73029,102558
73057,102676
73072,102537
73082,102623
73065,102495
73072,102629
73010,102557
73044,102626
73037,102501
73092,102630
73033,102507
73069,102618
73029,102506
73124,102644
73042,102501
73087,102648
73038,102530
73089,102635
73061,102516
73092,102658
73034,102643
72973,102460
72880,102412
72918,102550
72918,102552
72961,102556
72880,102399
73120,102674
73033,102493
73089,102657
73005,102494
73082,102647
73021,102496
73076,102636
73039,102485
73066,102632
73032,102442
73056,102643
73026,102515
73105,102666
73018,102492
73077,102619
73034,102539
73136,102650
73047,102518
73094,102630
73008,102566
73039,102645
73031,102524
73090,102667
73048,102503
73084,102639
72858,102596
72907,102576
72931,102524
72901,102551
72909,102557
73143,102692
73035,102524
73079,102652
73032,102513
73068,102661
73047,102499
73084,102622
73066,102570
73107,102673
73049,102520
73097,102683
73054,102561
73108,102649
73047,102558
73109,102689
73027,102526
73119,102653
73053,102543
73111,102664
73062,102551
73064,102665
73058,102565
73105,102681
73058,102512
73115,102689
73003,102556
73101,102649
72956,102513
72927,102602
72915,102602
72927,102575
73015,102597
73098,102678
73088,102589
73107,102688
73045,102586
73143,102693
73083,102562
73136,102666
73057,102555
73125,102694
73051,102559
73119,102676
73021,102532
73094,102721
73078,102547
73091,102677
73083,102541
73098,102681
73095,102560
73151,102704
73090,102552
73146,102701
73057,102519
73123,102696
73066,102575
73109,102691
73075,102550
73101,102649
73123,102701
72911,102466
72919,102603
72944,102607
72918,102610
73017,102607
72928,102432
73127,102678
73055,102537
73105,102706
73054,102566
73104,102696
73076,102598
73132,102702
73100,102568
73124,102674
73090,102563
73137,102709
73078,102555
73121,102693
73051,102555
73158,102709
73054,102569
73121,102705
73099,102556
73168,102695
73059,102561
73091,102697
73124,102594
73125,102737
73099,102537
73150,102721
72967,102609
72940,102623
72917,102636
73001,102609
72963,102651
73212,102713
73104,102547
73130,102701
73069,102597
73151,102727
73100,102598
73172,102723
73092,102585
73157,102712
73102,102585
73138,102728
73087,102567
73150,102734
73083,102582
73115,102729
73095,102630
73176,102729
73107,102594
73141,102702
73110,102596
73140,102725
73110,102596
73161,102727
73136,102598
73115,102738
73134,102644
73177,102732
73069,102646
72982,102646
72964,102663
72998,102660
73124,102672
73179,102748
73124,102618
73186,102761
73112,102629
73207,102772
73151,102602
73189,102765
73137,102615
73187,102742
73161,102638
73181,102747
73141,102573
73215,102769
73140,102651
73218,102778
73142,102636
73204,102735
73123,102636
73175,102753
73137,102633
73178,102781
73133,102645
73203,102738
73133,102612
73216,102778
73142,102622
73177,102732
73228,102716
73073,102558
73038,102605
73012,102698
73042,102660
73200,102739
73148,102545
73174,102748
73183,102611
73171,102739
73184,102635
73203,102791
73156,102629
73231,102726
73136,102654
73162,102772
73174,102652
73225,102768
73154,102655
73198,102771
73171,102587
73235,102780
73169,102639
73198,102785
73126,102630
73229,102784
73140,102702
73180,102762
73183,102635
73217,102785
73181,102617
73218,102795
73027,102733
73038,102714
73023,102700
72993,102680
73045,102686
73295,102808
73139,102708
73176,102749
73159,102639
73219,102782
73174,102611
73193,102800
73220,102650
73217,102767
73152,102650
73203,102734
73195,102669
73237,102819
73151,102634
73202,102775
73184,102648
73272,102830
73165,102674
73230,102825
73192,102661
73233,102801
73216,102649
73223,102794
73196,102658
73229,102794
73163,102663
73218,102771
73130,102653
73045,102723
73054,102671
73078,102734
73165,102710
73243,102815
73174,102629
73246,102796
73199,102673
73230,102831
73209,102675
73240,102811
73202,102684
73260,102813
73191,102657
73231,102824
73212,102677
73249,102796
73194,102694
73260,102826
73186,102689
73252,102844
73202,102699
73217,102812
73220,102699
73233,102799
73220,102661
73241,102839
73191,102678
73269,102827
73200,102701
73218,102771
73324,102808
73229,102754
73033,102642
73158,102657
73087,102764
73174,102807
73026,102608
73265,102858
73217,102690
73266,102822
73205,102681
73232,102833
73198,102709
73260,102838
73198,102689
73212,102850
73209,102725
73273,102842
73202,102686
73268,102814
73191,102729
73248,102864
73208,102729
73296,102821
73197,102696
73262,102849
73216,102725
73274,102821
73232,102740
73241,102857
73211,102747
73277,102840
73055,102740
73113,102780
73107,102753
73128,102750
73067,102821
73371,102915
73219,102816
73274,102846
73243,102723
73246,102857
73246,102739
73266,102856
73259,102705
73274,102866
73228,102704
73317,102848
73232,102722
73290,102860
73215,102724
73264,102872
73244,102755
73297,102846
73219,102684
73278,102878
73230,102758
73284,102853
73227,102757
73272,102848
73218,102771
73292,102875
73293,102738
73318,102910
73115,102657
73108,102792
73083,102774
73114,102793
73234,102778
73347,102889
73274,102739
73290,102885
73249,102731
73271,102841
73248,102719
73316,102863
73266,102752
73291,102900
73270,102740
73331,102898
73249,102776
73328,102867
73241,102773
73334,102885
73266,102796
73300,102869
73242,102764
73305,102866
73303,102731
73298,102873
73277,102718
73288,102906
73260,102782
73309,102869
73273,102758
73318,102910
73400,102875
73150,102691
73156,102750
73141,102819
73131,102782
73309,102854
73272,102691
73342,102926
73302,102766
73341,102893
73316,102746
73346,102910
73278,102771
73353,102938
73260,102784
73346,102913
73275,102772
73349,102899
73263,102766
73351,102894
73285,102756
73333,102891
73269,102770
73346,102892
73301,102761
73318,102919
73326,102763
73341,102950
73306,102776
73353,102914
73334,102828
73315,102927
73172,102817
73175,102845
73183,102793
73184,102831
73131,102782
73440,102962
73297,102857
73382,102954
73284,102817
73386,102953
73298,102793
73360,102921
73299,102798
73364,102978
73283,102835
73363,102942
73311,102833
73364,102944
73298,102836
73352,102969
73323,102801
73372,102928
73306,102819
73375,102941
73302,102785
73360,102953
73315,102788
73350,102946
73297,102804
73384,102947
73328,102842
73406,102929
73278,102785
73182,102885
73206,102826
73232,102846
73286,102887
73362,102929
73352,102835
73408,102943
73345,102827
73389,102971
73365,102815
73381,102929
73343,102787
73380,102921
73332,102804
73404,102939
73360,102830
73358,102945
73319,102810
73440,102971
73345,102792
73410,102952
73334,102820
73408,102971
73355,102817
73409,102919
73317,102816
73401,102951
73346,102807
73400,102956
73346,102816
73406,102929
73407,102967
73289,102781
73222,102772
73216,102891
73226,102854
73502,102977
73351,102888
73386,102949
73353,102803
73411,102943
73381,102845
73397,102953
73375,102840
73436,102955
73379,102821
73424,102950
73359,102798
73441,102952
73350,102820
73419,102965
73386,102835
73413,102975
73379,102848
73437,102939
73391,102809
73459,102958
73381,102865
73441,102966
73370,102853
73468,102965
73367,102861
73443,102962
73259,102888
73286,102890
73278,102894
73284,102889
73243,102904
73495,103029
73365,102908
73432,102982
73385,102831
73436,102983
73366,102844
73454,102949
73388,102821
73469,102964
73371,102857
73475,103022
73418,102836
73469,102967
73405,102878
73454,102998
73424,102852
73447,103028
73368,102852
73415,102985
73416,102890
73468,102978
73407,102844
73456,103006
73385,102837
73480,102994
73419,102862
73457,103014
73296,102849
73262,102945
73289,102909
73285,102912
73410,102946
73456,103012
73416,102853
73429,102986
73406,102881
73445,102973
73420,102860
73444,102992
73396,102866
73481,103007
73436,102864
73454,102972
73411,102894
73490,103025
73415,102891
73483,103046
73433,102885
73508,103014
73449,102881
73499,103036
73410,102912
73495,103011
73422,102919
73500,103056
73447,102913
73515,103031
73429,102917
73457,103014
73569,103049
73479,103028
73428,102912
73278,102822
73354,102915
73577,103055
73442,102925
73522,103034
73434,102870
73505,103034
73419,102911
73515,103059
73445,102908
73538,103046
73449,102884
73510,103038
73440,102891
73519,103038
73470,102898
73493,103034
73464,102911
73511,103067
73468,102924
73495,103025
73454,102922
73518,103065
73472,102955
73515,103066
73485,102927
73560,103061
73462,102961
73496,103039
73410,102945
73346,102994
73340,102954
73343,102994
73347,102952
73576,103104
73460,103004
73528,103068
73496,102965
73528,103092
73449,102943
73544,103088
73463,102955
73522,103096
73509,102912
73543,103057
73489,102933
73528,103092
73477,102946
73583,103121
73525,102969
73562,103100
73492,102935
73581,103112
73466,102956
73543,103065
73487,102960
73550,103122
73477,103017
73564,103124
73505,103023
73550,103127
73333,102868
73416,103033
73371,103011
73373,102979
73476,103017
73581,103094
73522,103024
73560,103124
73519,103002
73565,103119
73472,102961
73618,103151
73515,103064
73595,103123
73537,102993
73556,103124
73490,103023
73592,103117
73520,103014
73591,103162
73508,103003
73595,103179
73510,103032
73589,103161
73521,103020
73613,103160
73532,103011
73536,103181
73539,103015
73585,103166
73537,103089
73550,103127
73591,103157
73482,102996
73403,102898
73382,103027
73411,103029
73546,103161
73507,102898
73604,103150
73540,103010
73625,103151
73521,103060
73572,103159
73517,103049
73575,103154
73521,103052
73573,103142
73527,103010
73591,103163
73533,103032
73561,103142
73532,103044
73610,103155
73512,102984
73553,103156
73527,103017
73544,103132
73526,103037
73561,103167
73513,103031
73562,103171
73503,103036
73551,103144
73380,103059
73352,103039
73388,103053
73341,103075
73418,103036
73574,103185
73508,102987
73555,103130
73457,102974
73506,103123
73460,102971
73513,103132
73443,102979
73520,103158
73449,103022
73516,103131
73432,103003
73480,103105
73422,102978
73478,103110
73441,102964
73453,103095
73426,102935
73495,103115
73401,102984
73452,103073
73402,102948
73426,103069
73375,102956
73445,103071
73356,102934
73421,103073
73288,102952
73212,103044
73201,102972
73194,102971
73326,103026
73339,103041
73290,102901
73376,103035
73316,102901
73363,103061
73294,102942
73310,103014
73291,102891
73332,103013
73282,102947
73340,103050
73245,102937
73290,102994
73218,102890
73325,103034
73207,102865
73284,103055
73227,102891
73324,103043
73254,102894
73271,103007
73207,102888
73267,102999
73231,102900
73261,103019
73232,102886
73421,103073
73304,103044
73258,102954
73096,102798
73156,102850
73097,102933
73318,103055
73238,102893
73270,103034
73208,102871
73278,102996
73227,102845
73269,103012
73199,102841
73293,103024
73211,102851
73306,103022
73229,102897
73307,103022
73219,102898
73300,103043
73236,102926
73249,103027
73222,102925
73263,103007
73224,102888
73279,103025
73255,102869
73324,103009
73233,102857
73334,103021
73251,102923
73249,103027
73090,102946
73124,102935
73145,102910
73075,102949
73168,102933
73348,103053
73235,102886
73327,103079
73228,102909
73267,103056
73205,102889
73304,103041
73248,102885
73290,103060
73246,102933
73310,103057
73266,102888
73302,103049
73227,102936
73290,103011
73239,102935
73297,103024
73234,102927
73328,103047
73239,102911
73311,103057
73262,102871
73335,103043
73236,102911
73331,103090
73255,102918
73278,103023
73105,102870
73186,102872
73170,102971
73144,102970
73243,102960
73291,103058
73280,102930
73293,103051
73266,102950
73328,103046
73237,102910
73279,103042
73302,102967
73318,103054
73244,102916
73315,103072
73267,102937
73346,103060
73277,102913
73337,103041
73275,102912
73324,103058
73284,102951
73295,103058
73268,102918
73333,103074
73283,102928
73310,103074
73290,102908
73350,103068
73265,102954
73278,103023
73400,103121
73380,103042
73193,102929
73168,102881
73119,102971
73412,103099
73297,102958
73340,103043
73282,102910
73341,103097
73260,102972
73356,103061
73276,102905
73300,103042
73280,102951
73319,103115
73284,102941
73352,103087
73271,102896
73347,103082
73283,102939
73356,103103
73288,102952
73360,103069
73293,102949
73314,103062
73320,103023
73366,103070
73292,102950
73329,103080
73317,102957
73391,103088
73263,102911
73198,102988
73180,102992
73161,103040
73249,103019
73397,103107
73307,102955
73368,103103
73310,102965
73359,103084
73350,102973
73368,103108
73331,102981
73375,103098
73341,102980
73364,103070
73362,102968
73378,103083
73371,103003
73393,103096
73340,103013
73343,103054
73358,103037
73360,103150
73353,103001
73363,103105
73332,102986
73404,103156
73336,103007
73386,103110
73336,103044
73391,103143
73307,103027
73202,103048
73235,103040
73220,103047
73369,103051
73383,103146
73363,103059
73425,103141
73369,103042
73426,103134
73375,103031
73393,103130
73400,103091
73426,103158
73388,103071
73387,103161
73364,103042
73466,103139
73399,103041
73411,103155
73367,103023
73448,103204
73383,103029
73434,103170
73407,103022
73470,103177
73384,103054
73454,103181
73393,103027
73434,103150
73389,103082
73391,103143
73471,103190
73325,103037
73252,102994
73293,103050
73253,103131
73498,103192
73418,103067
73461,103158
73401,103079
73453,103192
73415,103035
73488,103203
73414,103100
73459,103173
73408,103078
73440,103210
73443,103094
73431,103202
73405,103065
73480,103231
73417,103056
73468,103171
73417,103066
73482,103191
73396,103119
73463,103209
73432,103060
73449,103209
73422,103114
73487,103218
73408,103064
73472,103208
73278,103152
73275,103143
73286,103143
73324,103141
73294,103135
73506,103240
73437,103098
73453,103226
73420,103134
73497,103226
73411,103092
73490,103226
73428,103105
73461,103248
73433,103110
73484,103232
73419,103072
73496,103243
73427,103091
73490,103259
73436,103085
73497,103254
73420,103125
73462,103247
73440,103116
73492,103207
73442,103092
73512,103274
73438,103161
73476,103239
73437,103095
73472,103208
73463,103254
73374,103107
73293,103208
73313,103167
73300,103166
73463,103136
73455,103263
73429,103153
73490,103246
73449,103117
73505,103260
73459,103132
73511,103272
73476,103152
73508,103261
73464,103154
73491,103261
73462,103121
73518,103283
73451,103143
73498,103251
73459,103129
73501,103250
73426,103158
73524,103280
73455,103157
73511,103274
73475,103135
73556,103271
73481,103116
73513,103264
73472,103118
73616,103262
73550,103294
73404,103131
73340,103050
73358,103181
73431,103275
73420,102987
73506,103271
73490,103141
73524,103299
73491,103185
73557,103302
73502,103168
73526,103312
73463,103160
73519,103285
73486,103181
73494,103261
73520,103168
73574,103358
73487,103178
73575,103321
73514,103203
73571,103352
73477,103188
73546,103282
73519,103160
73577,103276
73518,103171
73562,103322
73533,103181
73589,103310
73362,103222
73426,103265
73374,103278
73371,103269
73362,103238
73572,103324
73515,103180
73589,103384
73519,103191
73561,103336
73540,103195
73593,103356
73514,103220
73566,103326
73525,103197
73570,103302
73549,103205
73587,103376
73563,103163
73592,103336
73551,103175
73591,103338
73516,103225
73604,103331
73553,103229
73614,103337
73557,103201
73628,103375
73529,103229
73575,103373
73528,103218
73589,103310
73590,103351
73394,103126
73477,103214
73455,103299
73434,103294
73571,103199
73628,103368
73572,103223
73608,103369
73585,103198
73607,103358
73589,103261
73625,103370
73580,103249
73626,103356
73584,103270
73640,103421
73614,103270
73633,103361
73596,103296
73611,103382
73564,103276
73648,103389
73574,103248
73656,103387
73557,103256
73657,103410
73612,103259
73646,103397
73576,103259
73611,103380
73608,103317
73701,103393
73597,103302
73483,103181
73524,103259
73477,103364
73662,103398
73643,103250
73647,103396
73618,103306
73677,103420
73605,103251
73669,103423
73626,103278
73686,103406
73627,103259
73676,103454
73641,103278
73614,103404
73635,103316
73679,103400
73608,103277
73701,103426
73638,103251
73668,103408
73615,103262
73711,103452
73640,103301
73702,103429
73628,103293
73643,103437
73674,103280
73702,103437
73556,103343
73516,103354
73483,103339
73502,103351
73523,103334
73723,103407
73633,103300
73722,103425
73674,103305
73701,103458
73684,103309
73737,103508
73666,103288
73730,103468
73666,103297
73723,103441
73675,103298
73703,103456
73692,103306
73737,103466
73656,103294
73745,103474
73693,103340
73717,103448
73674,103338
73761,103439
73679,103321
73703,103460
73672,103293
73729,103404
73668,103331
73702,103437
73708,103454
73641,103303
73552,103368
73554,103346
73560,103387
73707,103327
73722,103482
73694,103359
73730,103471
73700,103323
73750,103509
73682,103334
73749,103506
73718,103415
73751,103508
73686,103401
73781,103537
73686,103401
73755,103512
73650,103374
73757,103529
73660,103389
73782,103522
73708,103423
73786,103507
73692,103432
73745,103500
73725,103388
73797,103551
73710,103439
73747,103534
73691,103376
73853,103524
73798,103489
73687,103360
73621,103348
73609,103404
73816,103560
73727,103366
73750,103523
73698,103445
73776,103560
73724,103387
73773,103574
73751,103402
73785,103555
73723,103432
73817,103549
73726,103410
73782,103549
73733,103393
73803,103571
73762,103430
73787,103573
73734,103437
73811,103574
73727,103421
73776,103529
73747,103497
73784,103565
73749,103421
73814,103541
73729,103441
73814,103558
73624,103489
73618,103481
73632,103443
73634,103481
73656,103448
73790,103577
73768,103499
73804,103576
73777,103441
73820,103599
73760,103421
73792,103548
73735,103451
73811,103583
73786,103483
73793,103560
73762,103498
73794,103554
73742,103433
73781,103564
73740,103427
73830,103594
73784,103443
73832,103595
73752,103439
73785,103561
73744,103503
73782,103584
73773,103454
73819,103618
73767,103453
73814,103558
73828,103617
73655,103363
73712,103404
73666,103513
73639,103484
73726,103557
73679,103339
73804,103583
73791,103485
73808,103610
73744,103482
73850,103619
73796,103442
73806,103604
73772,103464
73856,103605
73786,103485
73871,103640
73779,103483
73839,103593
73820,103487
73818,103598
73775,103475
73837,103591
73781,103487
73830,103618
73761,103504
73846,103639
73786,103518
73840,103589
73791,103452
73826,103620
73643,103519
73650,103543
73655,103502
73636,103524
73674,103541
73907,103669
73786,103550
73843,103609
73826,103512
73803,103622
73836,103502
73879,103613
73786,103485
73872,103657
73829,103468
73870,103625
73825,103545
73834,103621
73803,103523
73838,103651
73800,103514
73870,103636
73828,103474
73868,103588
73808,103578
73860,103647
73819,103552
73850,103619
73805,103525
73882,103672
73843,103538
73850,103640
73777,103466
73689,103574
73692,103570
73683,103576
73724,103545
73821,103595
73844,103591
73871,103661
73840,103529
73888,103666
73821,103515
73879,103649
73829,103521
73862,103646
73863,103527
73859,103659
73838,103570
73871,103628
73844,103569
73852,103661
73816,103569
73881,103685
73815,103524
73871,103650
73858,103586
73904,103640
73823,103530
73867,103650
73872,103559
73897,103647
73867,103583
73850,103640
73873,103641
73662,103432
73783,103491
73730,103604
73748,103522
73874,103544
73900,103639
73839,103544
73910,103649
73845,103534
73924,103665
73857,103546
73893,103657
73840,103542
73914,103652
73824,103542
73919,103657
73862,103541
73895,103701
73842,103529
73883,103645
73850,103513
73898,103688
73854,103533
73883,103630
73818,103583
73876,103651
73850,103530
73908,103664
73825,103534
73909,103695
73820,103514
73932,103683
73826,103588
73693,103435
73751,103529
73741,103569
73957,103637
73796,103604
73884,103646
73795,103536
73852,103682
73812,103504
73831,103631
73798,103503
73874,103643
73765,103515
73843,103667
73746,103555
73798,103621
73776,103539
73803,103626
73746,103511
73800,103628
73724,103487
73804,103643
73738,103518
73818,103624
73696,103498
73774,103615
73689,103491
73760,103615
73731,103443
73739,103633
73552,103531
73561,103518
73555,103468
73579,103481
73538,103492
73689,103540
73644,103485
73703,103573
73645,103412
73664,103564
73620,103411
73649,103555
73613,103427
73636,103533
73609,103432
73669,103555
73588,103411
73653,103529
73568,103379
73607,103546
73575,103382
73649,103551
73566,103402
73649,103519
73530,103370
73620,103499
73569,103385
73591,103525
73585,103379
73610,103519
73563,103406
73739,103633
73620,103509
73383,103288
73422,103452
73402,103411
73380,103422
73554,103363
73557,103504
73576,103357
73589,103518
73512,103410
73574,103518
73544,103388
73614,103517
73539,103378
73596,103488
73544,103436
73594,103516
73547,103383
73571,103519
73533,103425
73568,103519
73519,103384
73609,103537
73535,103351
73572,103496
73533,103367
73597,103508
73540,103369
73581,103526
73522,103367
73588,103536
73513,103351
73543,103504
73517,103483
73392,103422
73411,103429
73406,103434
73622,103507
73523,103341
73558,103553
73545,103394
73582,103511
73525,103402
73590,103516
73536,103380
73560,103510
73539,103420
73650,103525
73531,103357
73583,103539
73535,103383
73570,103500
73533,103395
73634,103541
73556,103369
73617,103504
73563,103412
73603,103538
73539,103377
73572,103515
73540,103406
73593,103528
73556,103398
73622,103549
73467,103386
73408,103464
73426,103452
73474,103437
73514,103474
73584,103500
73563,103435
73605,103541
73576,103425
73610,103552
73558,103387
73605,103554
73568,103393
73612,103529
73571,103410
73628,103550
73525,103411
73600,103571
73565,103421
73603,103561
73572,103419
73642,103614
73580,103412
73620,103548
73564,103436
73627,103552
73571,103436
73636,103597
73562,103462
73648,103560
73538,103448
73622,103549
73638,103569
73500,103428
73444,103342
73431,103492
73429,103492
73570,103482
73552,103522
73582,103482
73625,103578
73571,103475
73631,103577
73582,103421
73653,103591
73576,103451
73660,103575
73561,103426
73632,103582
73567,103435
73647,103585
73578,103406
73627,103576
73578,103447
73630,103580
73598,103439
73639,103582
73582,103464
73675,103581
73583,103469
73631,103574
73569,103479
73659,103607
73599,103445
73542,103614
73535,103445
73479,103518
73474,103521
73479,103521
73717,103587
73581,103491
73640,103587
73592,103449
73664,103585
73610,103421
73649,103601
73621,103440
73674,103601
73620,103446
73695,103603
73616,103463
73664,103604
73602,103460
73641,103596
73584,103461
73687,103616
73649,103480
73684,103583
73619,103451
73677,103618
73608,103465
73684,103626
73645,103515
73701,103624
73648,103489
73676,103600
73568,103446
73488,103552
73489,103541
73509,103525
73608,103596
73687,103609
73608,103494
73726,103637
73667,103471
73694,103629
73659,103491
73747,103633
73663,103471
73733,103659
73651,103505
73715,103616
73683,103497
73731,103650
73690,103496
73695,103637
73676,103477
73732,103635
73716,103525
73763,103639
73703,103499
73744,103642
73716,103501
73738,103651
73712,103512
73746,103611
73697,103494
73676,103600
73817,103649
73603,103475
73650,103468
73587,103584
73591,103544
73798,103634
73766,103530
73776,103664
73694,103492
73802,103662
73714,103490
73809,103654
73723,103506
73745,103652
73735,103536
73791,103638
73730,103539
73783,103647
73772,103559
73807,103655
73774,103507
73810,103642
73775,103517
73808,103679
73763,103538
73810,103672
73739,103504
73824,103621
73755,103524
73823,103652
73766,103531
73846,103665
73617,103565
73630,103535
73637,103538
73593,103583
73662,103541
73913,103672
73762,103619
73845,103639
73785,103510
73792,103606
73758,103548
73807,103630
73795,103538
73803,103663
73792,103516
73842,103645
73803,103503
73814,103650
73783,103550
73825,103669
73770,103558
73823,103639
73769,103535
73853,103658
73813,103487
73877,103651
73760,103513
73832,103638
73775,103501
73813,103627
73803,103511
73874,103666
73697,103524
73648,103580
73667,103543
73650,103536
73740,103568
73822,103661
73792,103490
73828,103640
73789,103515
73825,103628
73796,103540
73828,103642
73803,103492
73840,103654
73797,103527
73866,103679
73756,103518
73825,103643
73789,103515
73839,103658
73779,103487
73842,103693
73768,103509
73868,103649
73785,103514
73823,103659
73818,103562
73890,103658
73755,103537
73861,103652
73801,103553
73874,103666
73880,103676
73628,103436
73715,103505
73622,103594
73672,103617
73848,103657
73810,103498
73860,103686
73769,103520
73875,103688
73820,103515
73848,103667
73813,103519
73845,103654
73817,103538
73851,103691
73826,103526
73853,103690
73814,103535
73842,103671
73801,103513
73872,103648
73819,103525
73859,103670
73797,103515
73848,103674
73825,103522
73860,103626
73839,103568
73858,103679
73812,103549
73854,103696
73686,103585
73678,103585
73673,103642
73682,103606
73683,103571
73967,103698
73823,103564
73855,103689
73794,103550
73846,103688
73839,103567
73900,103691
73819,103583
73888,103698
73820,103552
73879,103678
73810,103584
73862,103683
73829,103575
73893,103693
73831,103540
73887,103689
73808,103559
73859,103699
73835,103565
73888,103715
73828,103562
73883,103688
73841,103568
73886,103715
73830,103586
73906,103730
73746,103536
73667,103640
73721,103605
73712,103611
73834,103627
73887,103723
73847,103585
73891,103697
73857,103524
73861,103710
73857,103578
73925,103739
73843,103600
73912,103698
73832,103576
73888,103731
73845,103570
73922,103699
73854,103567
73903,103709
73851,103609
73901,103731
73855,103548
73913,103702
73822,103566
73895,103749
73870,103618
73922,103707
73863,103597
73901,103707
73857,103601
73906,103730
74015,103717
73914,103640
73728,103516
73739,103509
73757,103653
73820,103699
73726,103453
73942,103745
73863,103580
73916,103724
73861,103585
73922,103714
73862,103618
73953,103752
73865,103599
73915,103722
73858,103632
73917,103760
73909,103577
73945,103747
73870,103574
73925,103757
73878,103620
73902,103729
73896,103606
73888,103724
73905,103603
73920,103747
73879,103582
73954,103765
73878,103613
73934,103737
73721,103632
73738,103668
73751,103665
73765,103627
73752,103624
74003,103766
73871,103701
73942,103757
73892,103628
73980,103773
73891,103632
73965,103726
73871,103627
73918,103757
73904,103629
73951,103763
73903,103635
73945,103733
73880,103657
73933,103725
73906,103634
73969,103758
73892,103652
73937,103772
73909,103639
73945,103731
73891,103605
73972,103774
73900,103622
73926,103725
73920,103632
73940,103744
73777,103596
73797,103672
73779,103688
73757,103657
73902,103706
73953,103767
73902,103657
73962,103770
73930,103637
73972,103770
73914,103652
73967,103755
73924,103626
73950,103777
73894,103676
73956,103771
73896,103681
73948,103764
73915,103641
73969,103739
73936,103639
73937,103810
73933,103669
73998,103774
73929,103662
73994,103809
73911,103614
73973,103797
73929,103633
73996,103733
73912,103628
73940,103744
74023,103750
73780,103553
73872,103628
73779,103671
73764,103703
73895,103732
73826,103642
74059,103810
73873,103697
73942,103759
73917,103654
74030,103773
73942,103669
74006,103767
73933,103634
73979,103782
73964,103615
74004,103773
73951,103648
73989,103762
73908,103674
74013,103771
73934,103652
73984,103792
73968,103681
73982,103747
73938,103669
74005,103747
73960,103639
74025,103771
73942,103645
73982,103781
73817,103651
73826,103705
73794,103674
73807,103688
73764,103703
74080,103808
73928,103714
73977,103763
73923,103651
74006,103786
73958,103653
74010,103749
73965,103677
74011,103818
73933,103651
73988,103778
73937,103679
74004,103791
73941,103669
73991,103767
73963,103693
73998,103752
73941,103688
74014,103775
73965,103696
73995,103792
73974,103643
73978,103756
73939,103709
74015,103783
73977,103640
73999,103802
73867,103719
73854,103699
73898,103646
73824,103674
73938,103712
74006,103781
73945,103688
74035,103762
73961,103686
74021,103783
73972,103646
74022,103789
73949,103707
74024,103834
73993,103660
74005,103789
73959,103689
74031,103785
73920,103697
74004,103792
73936,103678
74031,103792
73966,103637
74055,103813
73996,103630
73998,103812
73964,103658
74080,103799
73964,103639
74024,103798
73982,103651
73999,103802
74063,103818
73913,103604
73850,103597
73866,103729
73866,103656
74021,103792
74021,103553
73971,103813
73969,103650
74030,103803
73965,103672
74031,103813
74004,103645
74077,103810
74016,103675
74040,103802
73950,103655
74058,103810
73994,103643
74063,103770
73989,103648
74020,103769
73985,103650
74043,103806
73980,103676
74026,103800
73996,103649
74068,103767
73976,103681
74042,103786
73999,103653
74058,103763
73886,103729
73856,103688
73841,103694
73885,103693
73872,103719
74074,103827
74000,103621
74074,103802
73974,103641
74057,103794
73999,103632
74029,103794
73999,103690
74025,103772
74004,103645
74048,103766
73990,103650
74061,103815
73960,103689
74067,103807
73965,103698
74016,103769
74016,103664
74036,103794
74009,103629
74026,103814
73999,103663
74034,103792
74016,103631
74037,103781
73988,103661
74044,103753
73886,103606
73884,103713
73899,103693
73858,103710
73954,103712
74006,103754
73984,103685
74060,103804
73980,103664
74063,103793
73970,103687
74039,103793
73983,103662
74045,103776
73957,103601
74012,103821
73960,103628
74006,103772
73974,103635
74002,103763
73970,103635
74012,103790
73950,103649
74030,103775
73970,103621
73987,103795
73955,103638
74000,103784
73953,103622
74000,103759
73931,103639
74044,103753
74037,103739
73973,103645
73811,103542
73884,103581
73816,103639
74018,103771
73933,103606
73982,103754
73929,103610
73998,103769
73892,103604
73972,103715
73903,103606
73946,103711
73922,103613
73937,103729
73895,103599
73942,103727
73877,103596
73928,103723
73844,103566
73890,103715
73863,103611
73910,103730
73851,103565
73893,103691
73852,103570
73891,103700
73830,103554
73871,103693
73801,103558
73887,103702
73749,103581
73676,103628
73712,103564
73710,103595
73729,103576
73884,103690
73773,103596
73865,103693
73772,103559
73847,103658
73793,103544
73840,103685
73765,103560
73829,103667
73771,103574
73833,103677
73780,103520
73811,103695
73759,103483
73832,103696
73790,103572
73805,103642
73740,103523
73833,103674
73770,103525
73827,103636
73720,103552
73784,103652
73776,103581
73818,103703
73756,103502
73802,103659
73612,103484
73648,103551
73655,103562
73617,103553
73721,103608
73796,103660
73746,103540
73808,103704
73785,103514
73778,103646
73751,103538
73813,103677
73764,103558
73836,103693
73751,103559
73853,103678
73773,103534
73844,103692
73748,103551
73796,103663
73749,103537
73820,103648
73821,103547
73825,103681
73789,103537
73834,103680
73753,103554
73847,103674
73786,103518
73832,103643
73784,103531
73802,103659
73845,103719
73731,103520
73609,103428
73718,103541
73638,103626
73813,103689
73803,103393
73840,103683
73786,103585
73857,103693
73829,103557
73878,103707
73815,103589
73873,103692
73811,103586
73869,103698
73840,103565
73877,103702
73843,103566
73852,103643
73816,103587
73882,103707
73822,103549
73850,103716
73826,103600
73849,103723
73863,103546
73858,103672
73817,103558
73885,103702
73811,103605
73867,103715
73727,103639
73746,103620
73719,103654
73716,103645
73771,103573
73915,103745
73842,103603
73932,103743
73847,103593
73882,103723
73828,103577
73890,103717
73812,103596
73885,103710
73842,103581
73885,103727
73857,103609
73862,103711
73841,103609
73923,103737
73858,103600
73853,103714
73831,103611
73896,103699
73887,103586
73885,103705
73844,103551
73875,103747
73855,103598
73942,103731
73848,103560
73877,103713
73790,103574
73696,103633
73702,103640
73784,103592
73846,103672
73910,103727
73844,103630
73922,103747
73871,103582
73924,103745
73842,103590
73887,103745
73881,103628
73896,103769
73862,103583
73912,103740
73865,103624
73949,103745
73860,103592
73898,103721
73867,103635
73919,103736
73877,103579
73898,103716
73904,103601
73942,103742
73866,103585
73933,103752
73890,103655
73922,103693
73873,103650
73877,103713
73987,103747
73829,103621
73720,103514
73812,103606
73762,103686
74053,103753
73879,103655
73935,103769
73882,103617
73902,103729
73884,103672
73950,103753
73910,103673
73967,103761
73907,103667
73962,103769
73930,103643
73967,103748
73908,103631
73957,103779
73943,103646
73974,103756
73950,103630
73950,103765
73901,103642
73986,103778
73905,103663
73953,103747
73928,103653
73960,103770
73955,103680
73985,103780
73812,103688
73797,103709
73766,103663
73815,103719
73875,103691
74048,103826
73915,103701
73988,103810
73958,103650
74024,103783
73945,103635
73978,103795
73970,103632
73996,103810
73983,103664
74053,103813
73935,103689
74017,103811
73939,103646
74050,103794
73925,103633
73992,103797
73958,103675
74029,103806
73992,103672
74014,103773
73989,103714
74017,103804
73946,103633
74042,103825
73972,103657
73994,103794
73830,103627
73838,103681
73862,103670
73830,103711
73964,103763
73991,103799
73969,103651
74020,103782
73955,103691
74054,103824
73962,103667
74049,103783
73970,103640
73995,103765
73957,103671
74047,103804
74004,103639
74029,103804
73981,103652
74051,103794
73973,103671
74040,103812
73967,103656
74044,103806
73972,103681
74030,103810
73988,103656
74033,103779
73976,103684
74084,103822
73964,103684
73994,103794
74088,103790
74075,103787
73925,103642
73807,103576
73914,103626
74119,103836
73992,103788
74050,103799
73982,103689
74062,103816
73975,103649
74028,103800
73952,103657
74036,103806
73975,103681
74035,103817
73987,103694
74025,103775
73980,103685
74012,103781
73979,103659
74032,103757
73969,103668
74025,103795
73977,103624
74056,103779
73981,103637
74019,103784
73965,103671
74026,103823
73980,103598
74044,103776
73917,103577
73900,103680
73860,103692
73844,103720
73887,103671
74055,103778
73961,103639
74013,103749
73968,103669
74079,103796
73974,103636
74042,103759
73970,103641
74073,103783
73974,103642
74091,103776
73982,103650
74075,103778
73969,103679
74080,103785
73977,103697
74008,103784
73994,103639
74010,103740
74019,103672
74054,103787
73995,103617
74017,103769
73968,103616
74034,103754
73977,103601
73993,103755
73816,103538
73935,103585
73865,103688
73867,103644
73936,103713
74050,103774
73964,103615
74067,103767
73983,103659
74058,103767
73994,103638
74037,103774
73996,103626
74061,103771
73993,103640
74059,103786
74005,103629
74058,103759
74022,103596
74040,103747
73993,103606
74081,103754
73978,103623
74056,103746
74014,103611
74030,103764
73992,103638
74044,103755
73969,103647
74093,103778
74001,103594
73993,103755
74112,103791
73957,103652
73897,103506
73919,103617
73895,103673
74130,103768
74001,103662
74051,103748
74015,103606
74067,103763
74016,103635
74085,103773
73995,103641
74070,103752
73989,103629
74086,103800
74013,103603
74096,103728
73986,103653
74037,103765
73958,103602
74079,103764
74033,103608
74066,103775
73985,103630
74068,103781
74017,103593
74033,103710
74050,103604
74075,103728
74020,103666
74078,103760
73969,103588
73913,103683
73899,103647
73869,103670
73948,103638
74093,103742
74002,103669
74078,103772
74023,103614
74081,103720
74012,103579
74077,103750
74048,103578
74132,103779
74002,103646
74087,103735
74054,103620
74106,103734
74025,103609
74102,103739
74008,103608
74077,103786
74010,103648
74089,103740
74010,103627
74036,103739
74021,103584
74110,103762
74017,103616
74064,103734
74010,103630
74057,103759
73883,103538
73926,103636
73941,103660
73951,103626
73996,103696
74064,103736
74061,103604
74088,103768
74039,103609
74078,103755
74038,103608
74067,103755
74018,103601
74110,103766
74041,103636
74058,103776
74055,103626
74091,103738
74019,103607
74103,103751
73986,103603
74105,103747
74033,103631
74128,103776
74031,103634
74088,103731
74029,103610
74122,103787
74023,103613
74081,103766
74038,103598
74057,103759
74108,103771
73976,103610
73884,103513
74005,103597
73890,103708
74141,103744
74083,103613
74112,103771
74036,103603
74093,103722
74049,103637
74106,103732
74019,103550
74112,103755
74018,103600
74110,103746
74023,103595
74081,103750
74027,103609
74060,103715
74030,103596
74119,103738
74023,103663
74121,103768
74042,103626
74119,103748
74057,103620
74097,103764
74036,103589
74091,103762
74027,103623
74107,103725
73915,103653
73961,103663
73944,103626
73939,103669
73930,103633
74103,103745
74036,103607
74090,103711
74055,103585
74074,103730
74053,103614
74148,103757
74021,103613
74124,103733
74055,103575
74116,103769
74046,103640
74130,103763
74065,103644
74112,103763
74039,103605
74128,103773
74057,103645
74106,103770
74055,103633
74126,103768
74052,103646
74108,103764
74059,103680
74161,103770
74046,103685
74107,103725
74122,103795
73944,103634
73917,103666
73921,103647
73948,103629
74049,103693
74123,103795
74095,103638
74121,103738
74072,103650
74096,103774
74042,103630
74140,103762
74056,103626
74154,103817
74052,103679
74125,103772
74051,103681
74118,103788
74053,103632
74114,103778
74086,103643
74144,103753
74073,103639
74104,103755
74078,103620
74123,103817
74071,103623
74140,103764
74072,103645
74141,103759
74077,103618
74179,103776
74062,103633
73964,103570
73974,103628
73967,103703
74005,103766
73893,103537
74168,103820
74061,103717
74122,103754
74106,103652
74151,103787
74060,103703
74122,103761
74088,103645
74122,103753
74076,103661
74157,103764
74033,103711
74128,103774
74097,103633
74105,103782
74067,103681
74121,103781
74081,103666
74155,103788
74066,103615
74140,103803
74079,103687
74120,103818
74079,103626
74154,103791
73949,103712
73942,103701
73954,103707
73964,103666
73998,103673
74166,103823
74091,103694
74154,103781
74092,103657
74142,103790
74082,103636
74150,103783
74103,103621
74173,103810
74073,103621
74110,103781
74078,103615
74150,103773
74050,103647
74150,103790
74086,103655
74142,103787
74080,103657
74161,103740
74088,103665
74130,103770
74056,103685
74152,103801
74068,103645
74121,103795
74083,103659
74154,103791
74136,103795
74009,103638
73973,103697
73945,103636
73947,103686
74061,103690
74125,103797
74136,103656
74153,103794
74087,103636
74153,103812
74107,103661
74102,103790
74108,103640
74167,103791
74091,103620
74179,103777
74071,103670
74117,103756
74092,103635
74143,103800
74107,103647
74155,103756
74094,103637
74156,103748
74083,103680
74140,103761
74092,103596
74118,103762
74043,103670
74136,103780
74067,103632
74194,103740
74100,103704
73982,103599
73953,103596
73952,103669
74085,103693
73977,103665
74074,103751
74017,103479
74103,103753
74062,103657
74115,103740
74036,103611
74138,103789
74058,103665
74063,103738
74029,103658
74090,103771
74037,103626
74102,103760
74047,103581
74096,103736
74047,103610
74081,103750
74014,103573
74067,103754
74012,103634
74050,103745
74031,103601
74081,103787
74005,103597
74050,103732
73913,103660
73879,103671
73865,103625
73874,103630
73878,103604
74071,103761
73997,103637
74069,103696
73993,103586
74025,103702
73995,103612
74024,103717
73958,103583
74063,103706
73955,103593
74011,103712
73935,103590
74009,103751
73978,103587
74031,103711
73971,103588
74046,103727
73989,103567
74022,103701
73946,103554
73992,103716
73919,103576
74020,103651
73958,103529
73978,103662
73922,103590
74050,103732
73993,103694
73785,103483
73826,103572
73783,103619
73792,103632
73935,103613
73996,103696
73909,103542
74023,103692
73929,103560
73992,103692
73942,103599
74001,103706
73954,103557
73987,103690
73895,103546
74011,103690
73945,103540
73989,103671
73948,103552
73982,103677
73971,103527
74018,103694
73937,103560
74013,103718
73946,103561
73996,103683
73925,103549
74026,103703
73921,103615
73999,103690
73945,103598
74052,103692
74078,103662
73937,103580
73793,103472
73887,103506
74057,103716
73982,103539
73970,103661
73957,103616
74029,103684
73940,103605
74019,103690
73946,103528
73970,103689
73957,103559
74023,103670
73954,103550
74027,103696
73935,103610
74056,103708
73974,103543
74029,103700
73948,103578
74004,103638
73972,103594
74019,103720
73934,103547
74000,103727
73934,103547
74028,103718
73976,103541
74020,103699
73849,103608
73822,103561
73888,103570
73818,103596
73854,103596
74055,103753
73948,103609
74055,103681
73996,103569
74050,103717
73984,103581
74025,103694
73984,103595
74029,103679
73982,103542
74020,103707
73955,103548
74031,103699
73955,103590
74070,103725
73981,103615
74059,103685
73995,103573
74017,103666
73974,103561
74044,103704
73970,103572
74035,103691
74018,103559
74033,103691
74014,103570
74020,103699
74016,103672
73823,103447
73893,103589
73854,103606
73851,103628
74014,103617
74051,103694
73975,103596
74042,103701
73989,103573
74048,103659
73988,103582
74065,103678
73953,103553
74073,103699
73990,103561
74024,103729
73983,103547
74059,103709
73974,103568
74033,103657
74000,103541
74042,103678
73981,103559
74014,103685
74000,103552
74050,103684
73971,103544
74046,103689
73980,103578
74015,103703
74017,103545
74066,103705
74072,103695
73926,103544
73853,103502
73904,103601
74063,103678
73996,103546
74059,103659
73997,103576
74037,103684
73980,103516
74055,103701
74007,103560
74049,103673
74017,103590
74042,103672
74035,103583
74075,103691
74013,103535
74091,103718
73995,103594
74053,103691
74007,103551
74067,103658
74023,103568
74083,103679
74005,103550
74053,103696
73982,103574
74079,103696
74016,103561
74075,103703
73954,103548
73916,103615
73907,103594
73909,103588
73939,103590
74070,103692
74020,103568
74082,103707
74020,103548
74042,103682
74034,103564
74091,103720
74032,103542
74069,103672
74059,103565
74077,103695
74000,103593
74104,103690
74017,103542
74108,103706
74030,103552
74084,103709
74010,103594
74087,103691
74003,103574
74071,103695
74089,103546
74092,103703
74008,103558
74098,103694
74030,103565
74075,103703
74131,103684
73835,103441
73946,103557
73901,103582
73934,103590
74072,103622
74105,103665
74041,103545
74088,103687
74034,103614
74089,103660
74059,103550
74075,103695
74059,103541
74116,103692
74046,103563
74083,103691
74045,103557
74120,103700
74026,103556
74090,103692
74038,103564
74098,103692
74043,103526
74124,103678
74032,103522
74142,103698
74041,103561
74100,103701
74013,103555
74090,103685
74036,103547
74168,103695
74170,103692
73981,103566
73901,103447
74002,103512
74117,103692
74062,103542
74050,103676
74042,103519
74128,103722
74025,103555
74083,103702
74066,103542
74112,103674
74049,103586
74121,103696
74045,103557
74084,103666
74061,103526
74104,103687
74053,103529
74095,103661
74050,103533
74111,103670
74068,103544
74061,103671
74029,103520
74087,103664
74040,103521
74074,103655
74030,103554
74109,103640
73952,103517
73912,103584
73915,103591
73926,103607
73938,103581
74093,103693
74056,103532
74116,103663
74062,103505
74124,103692
74055,103529
74086,103672
74000,103534
74051,103650
74030,103520
74076,103683
74052,103492
74106,103666
74049,103545
74127,103706
74029,103554
74100,103665
74067,103537
74085,103675
74063,103555
74096,103674
74082,103537
74046,103644
74062,103569
74121,103662
74021,103531
74109,103640
74116,103654
73916,103455
74006,103515
73915,103602
73923,103599
74081,103545
74122,103669
74068,103531
74066,103653
74035,103559
74090,103674
74038,103566
74120,103683
74052,103537
74084,103673
74043,103535
74058,103682
74035,103505
74080,103686
74043,103588
74106,103656
74057,103500
74107,103656
74047,103579
74094,103673
74046,103554
74097,103691
74029,103501
74152,103710
74046,103568
74131,103649
74043,103523
74195,103689
74029,103521
73901,103446
73975,103496
73949,103577
74174,103679
74042,103593
74109,103668
74083,103524
74084,103666
74019,103502
74128,103676
74037,103564
74113,103652
74064,103521
74087,103668
74050,103546
74119,103656
74077,103526
74111,103631
74048,103497
74128,103681
74071,103541
74098,103644
74047,103506
74126,103651
74056,103531
74101,103653
74049,103502
74146,103662
74028,103515
74087,103682
73982,103495
73945,103583
73928,103542
73951,103481
73948,103570
74161,103653
74071,103535
74098,103652
74093,103522
74101,103643
74048,103523
74131,103671
74060,103538
74113,103646
74081,103510
74113,103701
74085,103544
74103,103664
74087,103506
74130,103658
74050,103524
74158,103660
74069,103543
74099,103660
74086,103534
74142,103661
74070,103497
74135,103666
74070,103495
74143,103661
74058,103520
74087,103682
74102,103647
73950,103490
73927,103558
73981,103531
73967,103598
74121,103505
74128,103676
74079,103495
74161,103666
74099,103532
74159,103664
74084,103519
74136,103669
74102,103554
74178,103657
74075,103517
74103,103660
74079,103513
74130,103707
74056,103549
74152,103641
74085,103525
74148,103667
74078,103545
74149,103662
74082,103514
74099,103645
74092,103511
74129,103682
74094,103525
74111,103644
74070,103515
74211,103644
74055,103557
73900,103426
74016,103530
73964,103621
74210,103679
74094,103571
74122,103638
74110,103532
74135,103629
74075,103544
74126,103691
74094,103533
74179,103686
74093,103545
74135,103643
74099,103533
74161,103667
74091,103521
74156,103653
74091,103503
74136,103666
74055,103529
74159,103654
74089,103519
74157,103682
74087,103517
74139,103653
74071,103531
74195,103647
74094,103497
74190,103703
73967,103567
73989,103579
73969,103554
73935,103578
73968,103590
74195,103706
74114,103556
74141,103673
74095,103533
74141,103683
74101,103539
74174,103679
74084,103544
74174,103663
74071,103545
74159,103686
74127,103511
74148,103681
74131,103532
74139,103673
74128,103557
74167,103664
74100,103520
74157,103673
74108,103546
74149,103662
74124,103517
74143,103643
74122,103558
74152,103661
74070,103535
74190,103703
74158,103688
73996,103489
73967,103572
74023,103591
73939,103588
74137,103486
74124,103645
74111,103591
74167,103683
74085,103545
74180,103658
74094,103538
74169,103647
74118,103523
74187,103657
74126,103522
74155,103637
74105,103521
74153,103653
74143,103511
74196,103636
74117,103542
74158,103648
74095,103539
74145,103673
74110,103530
74139,103662
74120,103594
74147,103672
74098,103547
74177,103666
74134,103511
74211,103715
74184,103599
74011,103497
73992,103505
73985,103617
74235,103682
74127,103509
74192,103677
74100,103552
74173,103642
74088,103519
74210,103674
74105,103531
74181,103656
74156,103506
74165,103605
74113,103569
74166,103664
74102,103554
74147,103613
74128,103561
74152,103677
74091,103521
74166,103665
74092,103531
74134,103656
74083,103576
74227,103657
74120,103556
74185,103641
74091,103531
74169,103669
74004,103610
73995,103584
73995,103508
73978,103564
74044,103583
74157,103672
74129,103511
74184,103676
74116,103525
74182,103678
74111,103540
74169,103671
74093,103548
74176,103666
74132,103574
74195,103666
74120,103552
74168,103663
74123,103564
74123,103684
74143,103543
74196,103677
74094,103560
74179,103683
74119,103554
74193,103693
74137,103587
74165,103688
74122,103559
74136,103687
74128,103606
74169,103669
74201,103668
73987,103497
74013,103583
73987,103586
74049,103554
74162,103495
74141,103666
74112,103562
74137,103707
74114,103577
74171,103679
74125,103557
74158,103680
74145,103595
74168,103687
74142,103568
74214,103686
74157,103547
74209,103719
74131,103518
74176,103662
74129,103513
74191,103695
74126,103533
74214,103693
74174,103555
74177,103658
74130,103561
74175,103702
74113,103546
74177,103652
74143,103578
74093,103724
74054,103602
74030,103606
74003,103585
74023,103564
74143,103663
74040,103512
74197,103688
74166,103510
74165,103638
74163,103546
74192,103733
74140,103592
74207,103704
74111,103563
74187,103676
74135,103556
74201,103708
74146,103548
74197,103673
74128,103539
74180,103678
74168,103550
74172,103653
74131,103543
74170,103698
74128,103545
74186,103673
74134,103531
74211,103687
74137,103544
74176,103695
74111,103549
74015,103601
74007,103582
74042,103569
74081,103595
74197,103674
74156,103593
74205,103678
74124,103556
74215,103680
74153,103528
74215,103677
74155,103545
74224,103660
74155,103550
74225,103667
74170,103491
74197,103673
74154,103549
74184,103695
74140,103533
74203,103668
74150,103536
74206,103663
74148,103524
74211,103672
74171,103576
74175,103644
74132,103599
74193,103672
74165,103532
74176,103695
74268,103667
74021,103495
74009,103499
74039,103565
74053,103578
74187,103562
74161,103631
74152,103595
74218,103687
74154,103513
74197,103673
74175,103502
74202,103649
74122,103514
74215,103659
74132,103538
74209,103661
74113,103524
74187,103632
74154,103526
74206,103644
74166,103531
74194,103683
74137,103559
74185,103642
74139,103554
74181,103650
74129,103505
74172,103664
74149,103507
74181,103652
74152,103507
74142,103742
74207,103673
74249,103685
74066,103539
73932,103433
74117,103620
74073,103567
74099,103601
74100,103593
74104,103557
74150,103629
74084,103506
74166,103615
74089,103514
74149,103654
74097,103482
74131,103650
74126,103495
74149,103626
74085,103492
74088,103634
74095,103528
74163,103613
74071,103506
74133,103630
74085,103515
74116,103652
74088,103493
74116,103628
74085,103505
74119,103626
74049,103533
74024,103595
73924,103562
73928,103537
73938,103513
73993,103508
74114,103621
74054,103450
74070,103604
74050,103469
74107,103613
74026,103460
74077,103597
74041,103503
74086,103613
74024,103480
74096,103597
74050,103467
74101,103573
74009,103450
74059,103588
74008,103523
74058,103555
74037,103467
74063,103586
74034,103434
74092,103578
73983,103432
74060,103565
74021,103449
74044,103564
74035,103455
74049,103533
74102,103576
73919,103371
73940,103435
73909,103486
73912,103524
74024,103494
73891,103370
74171,103627
74019,103515
74082,103561
74007,103461
74067,103586
74019,103490
74070,103575
74007,103492
74083,103551
74022,103444
74090,103614
74000,103444
74076,103593
74032,103487
74075,103574
74040,103513
74093,103578
74040,103465
74078,103551
74038,103474
74059,103559
74015,103500
74111,103595
74009,103447
74107,103566
73874,103533
73894,103506
73938,103497
73934,103496
73928,103465
74170,103626
74041,103524
74093,103556
74036,103502
74098,103622
74024,103458
74097,103590
74025,103434
74118,103593
74081,103449
74072,103570
74034,103489
74076,103556
74063,103458
74091,103616
74042,103447
74107,103586
74028,103418
74083,103563
74047,103435
74065,103587
74035,103460
74080,103582
74024,103435
74100,103568
74040,103481
74116,103564
73985,103452
73958,103516
73912,103466
73898,103510
73982,103488
74078,103555
74058,103476
74109,103605
74067,103466
74129,103597
74070,103441
74106,103570
74032,103455
74092,103628
74033,103441
74098,103566
74070,103492
74074,103612
74043,103483
74122,103615
74079,103435
74115,103623
74039,103512
74073,103600
74036,103469
74129,103549
74037,103425
74095,103595
74030,103471
74086,103589
74078,103432
74116,103564
74120,103581
73856,103399
73919,103494
73896,103507
73947,103501
74040,103520
73892,103391
74183,103649
74065,103540
74130,103568
74067,103477
74121,103587
74039,103488
74131,103558
74075,103472
74086,103598
74031,103440
74072,103592
74054,103444
74104,103563
74078,103464
74168,103632
74051,103487
74117,103601
74087,103458
74107,103592
74026,103462
74126,103621
74059,103462
74120,103617
74055,103475
74102,103599
73978,103463
73961,103515
73925,103481
73931,103535
73924,103530
74171,103644
74059,103518
74127,103608
74075,103478
74076,103564
74031,103464
74107,103591
74049,103435
74158,103581
74055,103470
74135,103614
74055,103469
74099,103573
74071,103486
74080,103589
74066,103468
74143,103566
74068,103444
74101,103608
74029,103439
74131,103619
74065,103499
74153,103581
74048,103439
74143,103610
74099,103462
74137,103611
73957,103469
73925,103506
73950,103527
73937,103537
74032,103491
74091,103514
74089,103505
74130,103594
74108,103423
74125,103553
74094,103439
74128,103579
74061,103485
74139,103626
74058,103463
74165,103589
74078,103476
74133,103603
74049,103449
74138,103579
74095,103450
74175,103584
74087,103452
74134,103554
74108,103442
74125,103574
74099,103453
74131,103596
74055,103457
74180,103612
74051,103509
74137,103611
74185,103588
73955,103359
73963,103474
73940,103484
73962,103535
74107,103567
74100,103345
74131,103609
74067,103467
74128,103565
74061,103479
74155,103601
74098,103462
74160,103611
74081,103426
74122,103605
74095,103480
74113,103578
74103,103451
74164,103636
74077,103460
74145,103558
74083,103469
74158,103595
74097,103441
74156,103587
74087,103467
74146,103585
74079,103466
74150,103590
74093,103473
74152,103568
73945,103475
73987,103491
73986,103512
73995,103486
74000,103477
74230,103609
74121,103525
74183,103615
74078,103459
74198,103601
74095,103482
74210,103599
74106,103509
74157,103586
74063,103476
74147,103594
74086,103431
74180,103610
74097,103418
74161,103626
74058,103500
74160,103599
74100,103415
74175,103599
74077,103512
74119,103620
74099,103466
74135,103582
74109,103509
74157,103606
74098,103483
74171,103617
74014,103442
73988,103524
73946,103490
74014,103497
74073,103524
74129,103621
74098,103485
74128,103596
74102,103506
74167,103609
74071,103451
74167,103601
74134,103476
74149,103581
74103,103512
74160,103587
74098,103433
74142,103594
74110,103421
74122,103606
74113,103499
74144,103608
74097,103479
74131,103591
74109,103490
74172,103591
74078,103450
74173,103631
74088,103443
74167,103551
74086,103491
74171,103617
74201,103594
74077,103508
73960,103370
73997,103467
74011,103493
74112,103550
74117,103338
74131,103601
74088,103437
74125,103602
74099,103459
74123,103585
74096,103464
74180,103605
74100,103544
74125,103632
74096,103472
74156,103616
74137,103470
74158,103597
74112,103455
74180,103656
74124,103517
74191,103594
74086,103475
74177,103584
74085,103471
74119,103626
74086,103487
74170,103601
74116,103456
74192,103617
73940,103522
74009,103541
74056,103503
74012,103507
73980,103472
74225,103629
74128,103538
74112,103566
74120,103486
74156,103600
74099,103503
74167,103579
74126,103479
74204,103620
74102,103437
74153,103585
74113,103447
74154,103626
74078,103473
74165,103604
74093,103471
74192,103626
74118,103452
74168,103586
74113,103444
74169,103566
74126,103493
74149,103599
74137,103470
74183,103590
74120,103488
74175,103581
74005,103406
74039,103496
74025,103490
74019,103461
74089,103567
74190,103569
74123,103471
74156,103591
74124,103507
74230,103613
74137,103457
74173,103607
74124,103508
74202,103575
74138,103467
74178,103620
74130,103482
74184,103636
74159,103445
74189,103611
74124,103467
74124,103571
74124,103499
74167,103585
74140,103487
74190,103609
74107,103465
74190,103619
74141,103488
74201,103581
74130,103450
74175,103581
74180,103589
73935,103388
74011,103495
74036,103502
73993,103537
74148,103525
74091,103300
74196,103595
74136,103481
74186,103603
74159,103486
74198,103572
74129,103458
74192,103623
74111,103464
74168,103608
74121,103508
74187,103599
74151,103470
74202,103601
74172,103521
74205,103581
74126,103449
74248,103574
74131,103447
74192,103587
74116,103458
74175,103598
74108,103487
74205,103575
74156,103476
74193,103598
74009,103535
74036,103528
74004,103500
73993,103492
74017,103519
74265,103613
74145,103516
74201,103603
74166,103446
74175,103587
74170,103481
74171,103583
74181,103492
74207,103594
74152,103497
74206,103609
74128,103428
74202,103602
74133,103422
74205,103585
74138,103444
74210,103576
74158,103422
74211,103582
74142,103420
74215,103593
74148,103461
74216,103629
74166,103456
74211,103582
74164,103468
74199,103574
74085,103387
74048,103533
74042,103484
73961,103495
74098,103487
74192,103561
74163,103482
74186,103566
74150,103448
74190,103539
74106,103451
74167,103588
74164,103485
74185,103575
74150,103433
74196,103581
74165,103439
74190,103564
74153,103411
74217,103601
74112,103449
74203,103577
74178,103443
74201,103582
74140,103415
74180,103584
74168,103435
74204,103589
74168,103441
74213,103575
74143,103434
74199,103574
74212,103557
73982,103328
74087,103458
74025,103461
74055,103497
74112,103563
74008,103331
74234,103589
74171,103431
74204,103601
74134,103447
74183,103586
74143,103437
74215,103576
74151,103435
74205,103602
74161,103440
74200,103580
74175,103433
74192,103597
74168,103461
74213,103594
74188,103448
74228,103576
74140,103445
74267,103600
74139,103464
74232,103598
74176,103439
74223,103571
74157,103467
74203,103606
74005,103477
74036,103534
74037,103499
74041,103452
74006,103497
74247,103580
74189,103448
74196,103566
74141,103491
74212,103599
74153,103399
74198,103603
74160,103427
74218,103592
74164,103434
74218,103598
74169,103447
74247,103577
74163,103445
74214,103571
74144,103431
74227,103585
74155,103465
74210,103597
74165,103421
74235,103618
74142,103436
74195,103596
74149,103412
74180,103587
74163,103420
74217,103583
74099,103434
74017,103480
74011,103501
74048,103476
74153,103533
74206,103565
74166,103445
74196,103574
74141,103428
74219,103567
74147,103449
74212,103565
74141,103436
74215,103585
74146,103465
74211,103552
74157,103438
74187,103564
74124,103443
74247,103568
74129,103415
74177,103577
74164,103440
74199,103583
74173,103433
74200,103597
74171,103458
74226,103596
74169,103452
74255,103568
74143,103411
74217,103583
74287,103581
74152,103486
74008,103404
74080,103420
74000,103470
74113,103561
74081,103318
74208,103561
74153,103427
74175,103539
74151,103449
74204,103580
74166,103433
74183,103577
74137,103451
74227,103597
74176,103470
74178,103566
74151,103445
74218,103590
74173,103429
74235,103594
74183,103454
74185,103551
74141,103471
74210,103552
74142,103428
74237,103595
74134,103457
74222,103586
74161,103468
74226,103575
74043,103475
74011,103494
74039,103473
74034,103484
74080,103472
74329,103554
74143,103510
74185,103558
74139,103485
74225,103567
74174,103393
74216,103571
74130,103444
74254,103596
74141,103428
74249,103575
74151,103474
74207,103578
74169,103463
74207,103565
74183,103409
74272,103597
74157,103463
74230,103597
74162,103411
74239,103574
74158,103462
74208,103589
74135,103452
74213,103550
74199,103447
74217,103595
74009,103363
74036,103472
74016,103500
74066,103484
74164,103481
74209,103568
74142,103432
74198,103542
74166,103439
74241,103589
74172,103430
74190,103579
74137,103436
74209,103568
74163,103440
74239,103581
74166,103436
74220,103557
74162,103477
74220,103589
74163,103419
74225,103585
74174,103436
74243,103561
74173,103435
74227,103540
74158,103434
74219,103592
74144,103450
74215,103570
74169,103408
74217,103595
74245,103585
74019,103332
74110,103421
74044,103495
74025,103489
74203,103541
74181,103353
74222,103569
74162,103456
74210,103593
74145,103449
74214,103585
74152,103505
74290,103581
74152,103441
74215,103530
74169,103425
74253,103565
74159,103424
74190,103534
74171,103439
74240,103554
74149,103420
74270,103575
74121,103425
74275,103610
74150,103493
74234,103576
74129,103479
74249,103573
74136,103461
74227,103560
73999,103510
74045,103453
74071,103440
74011,103440
74025,103489
74273,103564
74106,103473
74208,103567
74164,103438
74199,103578
74167,103410
74212,103530
74120,103392
74165,103552
74139,103398
74238,103563
74100,103411
74208,103551
74115,103450
74164,103550
74124,103436
74192,103516
74123,103383
74208,103555
74104,103409
74200,103515
74083,103395
74144,103506
74100,103399
74176,103536
74124,103385
74181,103542
74040,103386
73967,103418
74003,103407
73979,103436
74106,103473
74164,103526
74083,103417
74172,103511
74092,103454
74146,103534
74062,103402
74158,103519
74082,103353
74146,103562
74081,103425
74190,103577
74055,103433
74129,103495
74085,103402
74141,103527
74063,103364
74136,103523
74071,103354
74181,103548
74089,103378
74111,103507
74049,103416
74164,103539
74081,103427
74146,103496
74069,103399
74181,103542
74177,103519
74027,103375
73946,103338
73977,103426
73938,103382
74030,103480
73981,103249
74137,103497
74084,103367
74133,103528
74059,103435
74116,103539
74071,103399
74151,103531
74067,103385
74138,103513
74041,103392
74130,103509
74034,103365
74114,103518
74085,103404
74127,103507
74062,103391
74094,103533
74074,103378
74109,103514
74089,103415
74132,103499
74073,103377
74123,103513
74064,103372
74131,103510
73949,103423
73929,103430
73918,103429
73920,103397
73968,103391
74194,103546
74079,103461
74122,103514
74051,103384
74135,103552
74090,103370
74158,103515
74064,103416
74109,103546
74070,103408
74152,103540
74072,103409
74152,103548
74104,103414
74148,103557
74086,103374
74168,103532
74059,103434
74151,103503
74083,103395
74142,103537
74088,103378
74149,103514
74072,103399
74152,103553
74098,103385
74180,103523
74003,103344
73971,103430
73974,103389
73954,103449
74059,103454
74154,103506
74095,103408
74135,103528
74070,103391
74116,103537
74112,103423
74164,103522
74111,103388
74148,103492
74103,103386
74165,103534
74082,103364
74151,103529
74111,103412
74164,103500
74106,103424
74174,103561
74090,103424
74130,103519
74083,103375
74127,103560
74084,103373
74164,103562
74094,103375
74159,103523
74091,103414
74180,103523
74216,103573
74102,103472
74017,103339
74011,103359
73968,103455
74170,103545
74095,103347
74165,103539
74086,103389
74161,103548
74118,103412
74173,103555
74118,103407
74193,103556
74101,103462
74146,103551
74104,103415
74161,103523
74094,103396
74199,103528
74099,103428
74183,103537
74111,103410
74168,103522
74069,103412
74149,103558
74091,103377
74175,103529
74104,103427
74185,103517
74078,103464
74191,103568
74021,103384
73981,103465
74057,103413
73961,103485
74035,103445
74223,103574
74105,103438
74183,103542
74096,103459
74195,103536
74120,103440
74173,103512
74102,103401
74174,103525
74103,103414
74180,103513
74124,103379
74181,103551
74077,103426
74204,103566
74130,103433
74168,103554
74107,103406
74166,103572
74096,103468
74167,103548
74082,103422
74177,103571
74122,103431
74216,103568
74085,103401
74183,103570
73957,103338
74028,103394
73985,103459
74025,103435
74089,103458
74157,103542
74098,103427
74178,103561
74127,103433
74142,103512
74097,103399
74166,103549
74124,103449
74184,103557
74143,103380
74171,103543
74100,103385
74207,103579
74167,103413
74168,103552
74122,103412
74173,103566
74114,103421
74189,103557
74148,103417
74172,103549
74121,103407
74215,103568
74105,103425
74175,103545
74098,103410
74183,103570
74245,103560
74218,103471
74005,103331
73997,103381
74010,103501
74191,103545
74168,103405
74164,103554
74125,103396
74189,103547
74134,103442
74204,103583
74153,103451
74170,103523
74125,103436
74219,103571
74124,103382
74181,103537
74152,103423
74210,103532
74105,103426
74212,103576
74144,103418
74184,103559
74129,103402
74186,103533
74141,103418
74216,103551
74141,103401
74156,103549
74112,103407
74233,103561
74088,103399
74014,103459
74008,103430
74062,103431
74031,103498
74280,103555
74118,103465
74245,103596
74121,103451
74185,103564
74128,103400
74254,103524
74121,103469
74217,103541
74156,103377
74193,103536
74122,103394
74205,103545
74113,103398
74186,103491
74155,103405
74198,103513
74137,103405
74224,103540
74132,103390
74215,103521
74111,103458
74197,103525
74110,103368
74217,103537
74111,103371
74227,103508
73994,103346
74081,103396
74068,103413
74029,103396
74113,103467
74196,103482
74155,103349
74211,103477
74148,103395
74225,103531
74121,103369
74167,103510
74144,103356
74180,103490
74149,103378
74180,103537
74144,103390
74212,103527
74147,103363
74195,103489
74150,103381
74217,103529
74141,103355
74211,103506
74144,103368
74206,103508
74131,103359
74225,103506
74133,103349
74172,103509
74188,103384
74227,103508
74179,103525
74084,103332
74009,103288
74025,103395
74017,103420
74125,103482
74076,103208
74194,103481
74174,103411
74191,103535
74114,103373
74205,103541
74130,103380
74205,103490
74148,103357
74198,103516
74136,103381
74170,103493
74147,103390
74192,103502
74153,103357
74177,103532
74148,103407
74226,103478
74158,103358
74216,103526
74164,103396
74191,103458
74177,103378
74228,103520
74160,103372
74216,103501
74016,103436
74044,103456
74006,103423
74020,103415
74105,103375
74231,103538
74126,103447
74193,103527
74152,103385
74208,103513
74126,103359
74202,103537
74138,103368
74236,103547
74148,103390
74203,103503
74159,103373
74185,103551
74161,103421
74244,103579
74115,103443
74213,103526
74154,103416
74215,103532
74154,103460
74218,103513
74101,103418
74224,103559
74136,103355
74212,103536
74156,103409
74199,103553
74085,103395
74058,103480
73981,103449
74043,103415
74136,103520
74199,103583
74144,103433
74250,103547
74131,103405
74217,103578
74166,103488
74213,103563
74152,103403
74174,103545
74184,103430
74216,103585
74146,103466
74240,103584
74171,103387
74223,103582
74149,103402
74220,103545
74177,103448
74236,103583
74132,103476
74190,103569
74142,103433
74222,103554
74156,103420
74239,103564
74122,103444
74199,103553
74316,103589
74185,103498
74075,103404
73998,103348
74052,103460
74293,103569
74150,103413
74225,103559
74177,103453
74256,103581
74140,103464
74232,103590
74146,103430
74239,103580
74119,103477
74235,103561
74165,103441
74187,103547
74147,103452
74230,103596
74180,103490
74225,103565
74139,103424
74204,103570
74187,103471
74209,103587
74164,103430
74219,103586
74149,103463
74259,103612
74158,103398
74248,103581
74029,103501
74051,103497
74017,103519
74056,103504
74105,103455
74339,103628
74156,103501
74250,103604
74175,103449
74225,103608
74147,103489
74267,103595
74172,103489
74267,103585
74195,103453
74239,103577
74198,103478
74220,103599
74179,103455
74291,103586
74173,103496
74249,103594
74159,103443
74249,103599
74173,103534
74266,103632
74174,103482
74238,103629
74186,103454
74279,103607
74146,103513
74254,103588
74008,103376
74095,103487
74042,103523
74023,103518
74154,103562
74258,103580
74175,103407
74283,103593
74169,103490
74264,103589
74181,103425
74266,103567
74191,103462
74246,103603
74187,103518
74263,103594
74182,103490
74278,103599
74198,103472
74213,103596
74148,103442
74259,103632
74170,103495
74258,103588
74182,103459
74242,103596
74178,103465
74279,103616
74203,103523
74240,103607
74165,103521
74254,103588
74291,103607
74278,103609
74171,103406
74049,103363
74113,103449
74330,103623
74215,103537
74268,103572
74208,103473
74247,103617
74209,103465
74246,103608
74193,103471
74254,103627
74200,103489
74299,103622
74183,103512
74266,103600
74186,103453
74291,103605
74208,103480
74238,103589
74191,103453
74298,103622
74207,103482
74270,103594
74167,103493
74274,103620
74203,103519
74273,103598
74211,103447
74268,103618
74157,103402
74087,103498
74082,103510
74141,103469
74131,103496
74320,103629
74164,103518
74261,103600
74211,103474
74280,103636
74227,103501
74265,103581
74202,103511
74257,103635
74199,103495
74279,103599
74195,103497
74275,103620
74232,103510
74301,103612
74188,103473
74270,103572
74229,103475
74304,103610
74208,103461
74287,103597
74215,103496
74246,103608
74223,103462
74274,103600
74200,103498
74288,103618
74071,103356
74133,103436
74114,103484
74104,103455
74211,103548
74285,103615
74219,103441
74297,103605
74234,103479
74298,103591
74215,103516
74265,103569
74239,103484
74262,103590
74219,103416
74300,103595
74256,103460
74287,103596
74213,103471
74296,103611
74219,103479
74302,103614
74252,103495
74259,103570
74212,103433
74271,103583
74240,103419
74287,103570
74224,103417
74313,103607
74213,103497
74288,103618
74345,103621
74249,103476
74089,103314
74135,103440
74119,103492
74282,103563
74263,103380
74284,103585
74221,103474
74299,103616
74203,103479
74329,103617
74244,103434
74317,103624
74214,103443
74299,103602
74220,103431
74285,103570
74217,103461
74305,103602
74224,103473
74294,103592
74234,103384
74265,103573
74230,103440
74286,103589
74222,103434
74289,103611
74211,103503
74278,103586
74227,103465
74305,103594
74107,103489
74118,103505
74106,103492
74098,103510
74176,103441
74305,103604
74229,103514
74288,103560
74213,103436
74286,103569
74207,103420
74325,103608
74218,103457
74317,103599
74221,103462
74302,103563
74224,103479
74293,103598
74254,103429
74315,103608
74215,103435
74298,103593
74191,103471
74315,103610
74231,103439
74325,103578
74252,103427
74299,103569
74240,103426
74297,103587
74237,103427
74305,103594
74280,103594
74142,103451
74086,103467
74187,103443
74143,103516
74230,103484
74262,103595
74256,103472
74356,103621
74221,103525
74306,103579
74220,103488
74271,103588
74239,103462
74287,103609
74214,103448
74324,103617
74259,103454
74302,103611
74252,103469
74320,103598
74232,103465
74308,103609
74247,103460
74313,103614
74199,103474
74311,103622
74251,103493
74291,103582
74229,103482
74294,103616
74210,103445
74353,103607
74217,103500
74066,103408
74161,103447
74145,103493
74204,103569
74126,103373
74313,103627
74221,103469
74294,103622
74251,103489
74316,103594
74263,103467
74289,103599
74233,103500
74342,103615
74218,103465
74305,103629
74258,103461
74299,103624
74236,103473
74289,103610
74248,103451
74315,103606
74226,103463
74317,103604
74231,103466
74286,103596
74238,103451
74298,103641
74249,103470
74301,103589
74102,103530
74137,103515
74101,103457
74155,103502
74111,103519
74363,103604
74238,103541
74308,103569
74232,103449
74268,103593
74218,103442
74327,103640
74266,103482
74273,103599
74229,103445
74283,103598
74257,103456
74288,103603
74220,103462
74289,103593
74237,103458
74285,103615
74215,103490
74291,103584
74239,103468
74314,103604
74238,103484
74277,103597
74231,103470
74294,103574
74216,103438
74301,103589
74316,103619
74050,103344
74157,103454
74093,103531
74069,103477
74233,103464
74210,103540
74220,103438
74219,103571
74189,103478
74260,103596
74204,103452
74250,103580
74172,103441
74241,103578
74171,103432
74266,103589
74220,103428
74258,103560
74182,103435
74260,103592
74170,103447
74238,103563
74167,103429
74245,103564
74152,103439
74228,103551
74181,103470
74247,103587
74155,103468
74253,103613
74162,103441
74277,103578
74283,103576
74179,103504
74074,103370
74065,103404
74171,103588
74114,103270
74204,103555
74175,103459
74229,103575
74160,103398
74232,103543
74145,103421
74199,103574
74133,103446
74204,103557
74154,103432
74212,103565
74145,103437
74202,103573
74148,103448
74244,103536
74166,103409
74148,103552
74120,103418
74191,103558
74127,103418
74248,103574
74148,103465
74197,103568
74146,103408
74160,103535
74102,103370
74021,103497
73984,103449
74001,103459
73990,103445
74209,103571
74136,103461
74190,103566
74158,103400
74204,103552
74155,103400
74181,103575
74142,103391
74206,103564
74150,103455
74198,103579
74140,103436
74207,103564
74138,103433
74236,103557
74137,103485
74208,103583
74120,103455
74225,103564
74139,103400
74210,103559
74150,103436
74201,103565
74182,103410
74192,103551
74163,103422
74160,103535
74249,103592
74055,103387
74063,103380
74063,103435
74062,103480
74149,103405
74168,103552
74176,103462
74227,103569
74178,103484
74224,103569
74159,103464
74245,103606
74158,103402
74232,103550
74159,103433
74214,103600
74159,103447
74227,103568
74160,103439
74220,103592
74167,103430
74223,103539
74173,103388
74216,103594
74174,103474
74205,103588
74176,103454
74215,103584
74168,103434
74208,103571
74184,103421
74290,103579
74158,103489
73996,103349
74104,103428
74032,103490
74263,103580
74183,103462
74231,103567
74154,103439
74274,103588
74185,103438
74252,103583
74169,103486
74233,103595
74192,103451
74233,103595
74162,103461
74239,103574
74160,103463
74267,103580
74190,103464
74244,103585
74167,103492
74216,103562
74159,103447
74225,103549
74167,103434
74244,103586
74151,103474
74248,103607
74199,103448
74257,103595
74104,103480
74048,103479
74038,103495
74059,103433
74024,103505
74253,103595
74183,103478
74250,103570
74171,103446
74237,103557
74208,103451
74239,103589
74205,103425
74251,103593
74187,103421
74279,103584
74167,103422
74226,103558
74205,103465
74242,103589
74158,103437
74266,103605
74201,103444
74239,103573
74190,103498
74247,103564
74184,103466
74241,103600
74189,103390
74237,103605
74192,103465
74257,103595
74218,103572
74092,103390
74081,103546
74051,103531
74065,103437
74201,103500
74254,103603
74241,103428
74251,103591
74189,103440
74252,103617
74208,103497
74244,103579
74202,103443
74232,103573
74212,103443
74282,103630
74210,103482
74273,103615
74203,103425
74281,103630
74191,103512
74274,103606
74205,103444
74270,103613
74222,103493
74263,103597
74214,103445
74277,103562
74237,103472
74261,103611
74202,103448
74330,103617
74326,103602
74161,103433
74054,103374
74159,103434
74360,103638
74195,103488
74278,103592
74201,103463
74293,103611
74230,103488
74283,103626
74197,103465
74291,103620
74221,103507
74259,103576
74215,103441
74287,103616
74220,103451
74278,103570
74227,103441
74305,103643
74200,103478
74269,103639
74215,103458
74288,103602
74217,103445
74281,103625
74209,103449
74301,103627
74232,103444
74285,103582
74124,103462
74103,103555
74105,103502
74133,103505
74180,103492
74283,103613
74229,103450
74296,103598
74211,103443
74310,103598
74214,103445
74305,103623
74223,103474
74277,103590
74223,103464
74308,103601
74193,103495
74298,103613
74224,103459
74284,103611
74246,103480
74275,103587
74210,103438
74288,103611
74232,103427
74309,103580
74230,103452
74287,103621
74256,103462
74294,103576
74217,103480
74285,103582
74335,103618
74184,103428
74103,103345
74174,103455
74121,103495
74235,103470
74291,103587
74249,103464
74327,103573
74226,103472
74298,103611
74221,103444
74356,103600
74232,103444
74328,103588
74231,103476
74316,103610
74257,103436
74312,103595
74224,103437
74305,103585
74246,103459
74324,103563
74245,103434
74309,103608
74194,103520
74283,103543
74235,103442
74285,103589
74288,103455
74304,103590
74229,103481
74316,103611
74343,103616
74362,103559
74161,103419
74046,103332
74249,103578
74179,103447
74246,103523
74248,103565
74231,103434
74275,103579
74232,103436
74308,103611
74234,103438
74305,103601
74250,103454
74268,103527
74227,103422
74261,103585
74248,103434
74287,103567
74241,103444
74274,103566
74216,103435
74289,103588
74245,103419
74292,103573
74248,103427
74256,103580
74244,103460
74303,103596
74214,103471
74142,103588
74155,103517
74095,103501
74111,103466
74164,103491
74299,103557
74222,103428
74303,103556
74230,103456
74329,103560
74216,103426
74300,103566
74227,103468
74283,103532
74259,103422
74324,103586
74215,103518
74294,103583
74240,103440
74292,103620
74218,103427
74255,103571
74243,103433
74332,103557
74254,103455
74274,103588
74245,103461
74327,103627
74250,103474
74302,103595
74226,103438
74214,103471
74281,103583
74021,103370
74177,103418
74087,103508
74136,103480
74258,103459
74270,103543
74262,103482
74303,103600
74243,103424
74315,103606
74263,103448
74318,103574
74246,103411
74334,103587
74237,103429
74315,103594
74256,103418
74347,103591
74250,103461
74301,103602
74249,103421
74314,103583
74259,103424
74324,103586
74223,103449
74306,103583
74264,103439
74312,103573
74255,103470
74329,103617
74238,103462
74334,103585
74392,103601
74385,103603
74201,103466
74112,103391
74399,103606
74227,103490
74271,103580
74264,103469
74322,103583
74263,103508
74322,103615
74249,103446
74289,103582
74265,103438
74384,103617
74233,103530
74282,103568
74234,103434
74361,103608
74269,103471
74313,103561
74268,103471
74300,103612
74246,103443
74327,103586
74259,103406
74339,103584
74215,103520
74286,103575
74259,103438
74293,103595
74181,103464
74156,103491
74151,103477
74108,103537
74200,103490
74287,103582
74255,103451
74343,103562
74297,103441
74324,103577
74237,103438
74300,103618
74236,103443
74338,103589
74262,103443
74342,103588
74281,103427
74318,103601
74271,103476
74295,103570
74258,103493
74325,103595
74260,103431
74349,103584
74303,103442
74327,103604
74286,103466
74350,103604
74306,103443
74346,103590
74302,103462
74293,103595
74295,103582
74225,103462
74139,103369
74152,103536
74138,103524
74224,103552
74250,103301
74318,103602
74271,103457
74294,103594
74288,103433
74310,103595
74287,103475
74292,103580
74281,103472
74370,103596
74278,103447
74335,103576
74302,103423
74319,103599
74267,103425
74346,103584
74282,103436
74341,103593
74257,103470
74345,103586
74267,103443
74323,103573
74291,103467
74348,103626
74252,103491
74341,103614
74156,103513
74153,103478
74163,103454
74109,103504
74157,103468
74438,103608
74283,103469
74320,103625
74235,103439
74334,103607
74269,103454
74363,103584
74269,103453
74377,103634
74258,103523
74339,103607
74268,103450
74332,103604
74292,103460
74367,103604
74277,103451
74338,103585
74288,103454
74321,103591
74265,103434
74348,103584
74293,103453
74309,103622
74285,103457
74344,103598
74280,103457
74321,103601
74164,103424
74160,103498
74178,103447
74138,103535
74249,103537
74291,103588
74276,103488
74350,103582
74286,103459
74328,103616
74285,103464
74329,103577
74250,103434
74322,103611
74283,103440
74342,103587
74281,103468
74373,103589
74280,103469
74356,103563
74301,103435
74360,103613
74289,103451
74343,103577
74305,103456
74334,103585
74298,103474
74339,103585
74286,103467
74364,103625
74275,103474
74321,103601
74339,103591
74171,103391
74238,103472
74196,103514
74180,103479
74302,103555
74294,103284
74366,103611
74311,103421
74365,103590
74262,103467
74316,103603
74318,103420
74354,103577
74275,103476
74334,103582
74297,103466
74357,103611
74269,103438
74373,103588
74283,103464
74350,103575
74319,103478
74356,103590
74286,103446
74319,103583
74257,103486
74335,103569
74286,103423
74387,103586
74235,103528
74349,103559
74186,103503
74200,103418
74106,103541
74208,103458
74146,103490
74389,103595
74314,103427
74365,103603
74293,103441
74383,103595
74299,103492
74371,103596
74280,103493
74336,103601
74279,103441
74380,103580
74298,103471
74352,103582
74318,103470
74373,103607
74307,103465
74357,103617
74284,103464
74348,103610
74300,103461
74368,103549
74303,103417
74320,103577
74264,103463
74364,103598
74304,103467
74357,103594
74200,103420
74167,103510
74171,103453
74255,103428
74303,103494
74315,103576
74297,103444
74375,103568
74317,103459
74348,103616
74291,103450
74351,103633
74313,103458
74358,103612
74263,103478
74374,103615
74277,103456
74429,103609
74324,103509
74368,103590
74295,103505
74374,103610
74301,103529
74364,103581
74323,103431
74326,103607
74312,103437
74395,103615
74331,103461
74354,103593
74320,103456
74357,103594
74405,103565
74332,103458
74149,103383
74241,103435
74200,103547
74254,103628
74153,103356
74344,103600
74290,103475
74355,103616
74300,103479
74356,103605
74305,103453
74341,103584
74302,103455
74357,103605
74322,103429
74357,103614
74304,103456
74345,103595
74288,103502
74370,103586
74301,103485
74368,103594
74295,103473
74351,103587
74342,103467
74376,103598
74303,103450
74376,103625
74288,103508
74378,103623
74205,103551
74204,103486
74164,103540
74196,103519
74175,103524
74456,103640
74319,103493
74328,103610
74315,103460
74368,103601
74324,103504
74362,103610
74305,103521
74387,103609
74336,103466
74371,103599
74352,103477
74373,103625
74296,103482
74417,103629
74319,103499
74364,103623
74287,103491
74369,103635
74322,103477
74363,103626
74295,103469
74356,103628
74311,103477
74393,103615
74323,103493
74378,103600
74168,103400
74226,103478
74157,103526
74209,103491
74286,103540
74360,103612
74327,103469
74395,103620
74296,103534
74383,103596
74313,103525
74382,103641
74328,103499
74374,103616
74330,103463
74388,103649
74288,103518
74415,103668
74331,103498
74396,103627
74305,103453
74388,103633
74327,103541
74383,103631
74330,103458
74373,103650
74330,103528
74402,103623
74333,103500
74387,103604
74328,103539
74378,103600
74437,103613
74316,103468
74208,103440
74266,103499
74216,103566
74278,103594
74170,103382
74424,103663
74327,103538
74381,103642
74308,103505
74385,103662
74319,103490
74410,103626
74307,103509
74397,103614
74310,103514
74376,103660
74329,103468
74376,103621
74314,103479
74395,103620
74341,103540
74418,103667
74323,103497
74409,103668
74313,103490
74412,103649
74338,103452
74392,103642
74314,103519
74416,103635
74198,103528
74187,103527
74158,103543
74212,103511
74216,103566
74450,103641
74298,103531
74330,103626
74292,103477
74357,103618
74320,103491
74351,103633
74290,103481
74357,103638
74294,103480
74351,103608
74326,103417
74371,103614
74291,103473
74328,103589
74312,103439
74333,103596
74238,103460
74358,103608
74301,103479
74363,103577
74265,103467
74316,103601
74266,103448
74331,103581
74269,103446
74358,103607
74204,103438
74179,103513
74160,103421
74136,103496
74238,103517
74302,103559
74241,103422
74334,103589
74256,103440
74296,103579
74246,103452
74292,103578
74278,103437
74303,103549
74227,103432
74273,103582
74259,103420
74318,103573
74253,103475
74300,103578
74232,103436
74288,103598
74240,103410
74294,103538
74216,103398
74313,103533
74216,103427
74321,103557
74239,103396
74318,103557
74232,103432
74358,103607
74306,103537
74182,103357
74085,103304
74171,103377
74090,103468
74213,103504
74115,103294
74307,103563
74259,103372
74268,103550
74212,103400
74287,103520
74232,103386
74287,103552
74228,103370
74259,103525
74236,103407
74281,103530
74215,103374
74287,103519
74228,103427
74295,103552
74239,103405
74303,103525
74242,103375
74270,103545
74230,103382
74281,103520
74224,103385
74289,103545
74227,103380
74332,103550
74082,103451
74089,103440
74129,103450
74131,103452
74142,103416
74370,103583
74210,103439
74305,103549
74237,103404
74281,103535
74235,103381
74294,103517
74224,103396
74295,103542
74225,103404
74251,103550
74233,103405
74274,103537
74225,103392
74269,103535
74232,103408
74328,103537
74283,103458
74271,103541
74215,103417
74312,103542
74277,103388
74336,103533
74224,103378
74320,103531
74202,103402
74288,103532
74131,103339
74096,103457
74135,103406
74113,103460
74226,103471
74268,103544
74230,103429
74331,103544
74248,103391
74306,103521
74217,103399
74294,103530
74233,103399
74328,103533
74227,103416
74278,103542
74232,103395
74344,103546
74255,103404
74252,103528
74255,103429
74308,103537
74222,103394
74312,103546
74235,103408
74325,103559
74216,103435
74308,103561
74277,103434
74292,103542
74225,103412
74288,103532
74333,103529
74322,103529
74220,103421
74092,103307
74178,103404
74370,103575
74296,103425
74332,103576
74222,103412
74303,103538
74230,103426
74325,103561
74265,103402
74321,103566
74225,103381
74332,103542
74246,103428
74330,103547
74231,103392
74322,103536
74229,103376
74316,103558
74264,103431
74283,103503
74249,103411
74340,103543
74257,103463
74333,103546
74268,103380
74312,103535
74241,103418
74322,103538
74141,103431
74121,103412
74133,103423
74129,103427
74154,103466
74380,103565
74222,103460
74298,103570
74253,103401
74328,103513
74257,103444
74325,103507
74268,103402
74327,103537
74269,103434
74325,103571
74247,103386
74336,103557
74266,103476
74294,103539
74224,103415
74324,103524
74263,103449
74340,103543
74277,103429
74298,103539
74262,103396
74330,103544
74247,103421
74307,103546
74287,103397
74353,103560
74128,103342
74196,103397
74126,103480
74186,103428
74256,103467
74320,103544
74234,103399
74335,103533
74298,103437
74333,103529
74262,103378
74307,103520
74325,103386
74337,103542
74267,103368
74357,103565
74274,103437
74331,103497
74271,103368
74308,103510
74279,103400
74321,103524
74298,103364
74336,103533
74298,103374
74317,103534
74285,103390
74346,103540
74295,103354
74340,103512
74283,103399
74353,103560
74331,103519
74239,103364
74126,103287
74198,103390
74136,103413
74319,103474
74365,103510
74286,103366
74356,103508
74295,103399
74387,103539
74285,103430
74359,103511
74289,103411
74352,103530
74283,103379
74358,103568
74259,103435
74334,103517
74287,103414
74327,103549
74316,103413
74317,103512
74266,103408
74326,103565
74309,103413
74349,103496
74288,103394
74330,103515
74251,103418
74339,103501
74278,103378
74282,103544
74186,103468
74158,103426
74161,103437
74219,103397
74425,103531
74286,103438
74339,103546
74295,103453
74387,103537
74262,103358
74362,103540
74258,103462
74370,103542
74262,103390
74330,103524
74314,103394
74313,103553
74250,103399
74344,103522
74285,103360
74361,103517
74298,103401
74352,103532
74278,103377
74322,103505
74313,103392
74325,103546
74300,103402
74376,103556
74289,103370
74379,103528
74238,103373
74171,103426
74190,103399
74175,103386
74286,103467
74340,103517
74329,103383
74370,103528
74298,103359
74342,103517
74273,103378
74353,103530
74307,103384
74357,103517
74275,103386
74355,103518
74279,103400
74349,103511
74274,103359
74310,103509
74268,103387
74388,103518
74291,103409
74367,103526
74291,103378
74366,103520
74287,103434
74368,103483
74288,103379
74366,103518
74263,103407
74379,103528
74423,103553
74317,103404
74203,103310
74225,103313
74166,103443
74422,103509
74304,103366
74384,103513
74285,103386
74361,103566
74282,103391
74346,103504
74293,103387
74361,103514
74294,103396
74388,103536
74298,103388
74337,103519
74284,103387
74305,103514
74279,103399
74412,103511
74286,103445
74344,103506
74265,103397
74359,103546
74295,103386
74345,103497
74298,103367
74349,103544
74304,103418
74374,103522
74161,103453
74169,103463
74206,103417
74169,103445
74200,103457
74464,103532
74269,103457
74354,103543
74316,103449
74391,103542
74319,103420
74365,103535
74265,103412
74373,103525
74303,103388
74365,103525
74293,103422
74319,103538
74286,103360
74349,103486
74295,103363
74360,103539
74289,103423
74354,103531
74312,103352
74365,103524
74301,103372
74353,103521
74306,103381
74386,103560
74282,103405
74334,103528
74109,103294
74220,103407
74186,103412
74160,103442
74258,103484
74352,103507
74345,103361
74358,103511
74290,103373
74333,103526
74284,103425
74335,103516
74326,103396
74374,103536
74308,103434
74363,103552
74299,103368
74393,103510
74317,103386
74364,103527
74283,103385
74351,103556
74301,103398
74387,103529
74286,103429
74368,103534
74285,103386
74384,103513
74331,103372
74330,103523
74315,103395
74334,103528
74450,103520
74351,103505
74281,103358
74141,103304
74190,103402
74410,103550
74291,103410
74373,103532
74296,103396
74388,103506
74312,103414
74335,103507
74296,103367
74378,103537
74310,103380
74410,103533
74309,103450
74367,103538
74322,103427
74379,103555
74328,103421
74359,103513
74285,103381
74347,103538
74301,103376
74365,103506
74298,103397
74348,103510
74332,103409
74369,103570
74315,103390
74367,103510
74257,103362
74200,103489
74164,103445
74208,103397
74197,103433
74412,103530
74287,103428
74380,103548
74298,103394
74380,103530
74322,103389
74371,103555
74319,103422
74401,103520
74300,103417
74402,103524
74284,103382
74382,103588
74350,103434
74393,103506
74300,103362
74361,103531
74324,103376
74391,103549
74313,103444
74360,103511
74330,103397
74426,103538
74320,103391
74384,103530
74299,103423
74371,103568
74170,103301
74287,103362
74210,103448
74225,103410
74312,103482
74377,103564
74330,103425
74392,103554
74296,103396
74387,103583
74364,103376
74397,103555
74308,103419
74379,103546
74332,103408
74426,103547
74359,103429
74382,103539
74310,103396
74388,103583
74296,103396
74376,103497
74357,103395
74377,103529
74349,103428
74385,103554
74348,103404
74366,103515
74329,103403
74377,103552
74326,103409
74371,103568
74466,103571
74286,103370
74155,103300
74249,103401
74220,103480
74387,103523
74333,103287
74419,103557
74311,103441
74371,103501
74334,103413
74387,103560
74347,103416
74357,103549
74339,103440
74405,103564
74359,103374
74340,103514
74314,103391
74358,103515
74318,103422
74345,103518
74335,103467
74368,103533
74337,103423
74425,103543
74308,103393
74365,103558
74332,103428
74328,103497
74344,103386
74380,103533
74260,103411
74205,103454
74195,103419
74210,103413
74231,103425
74435,103563
74317,103402
74402,103547
74319,103396
74379,103524
74337,103395
74379,103553
74336,103423
74413,103572
74311,103416
74392,103556
74316,103431
74425,103552
74327,103401
74429,103551
74329,103436
74405,103540
74359,103449
74382,103536
74292,103427
74430,103513
74345,103420
74392,103518
74339,103413
74399,103529
74302,103404
74372,103564
74260,103410
74177,103489
74229,103471
74231,103434
74317,103506
74365,103531
74327,103443
74391,103564
74321,103404
74384,103578
74358,103412
74472,103569
74326,103450
74398,103523
74365,103453
74410,103541
74350,103398
74405,103559
74341,103410
74397,103552
74349,103414
74400,103550
74327,103463
74396,103552
74332,103417
74377,103535
74346,103387
74434,103574
74334,103460
74405,103563
74344,103442
74372,103564
74466,103577
74328,103433
74178,103380
74228,103455
74196,103457
74304,103546
74145,103317
74442,103598
74335,103515
74411,103550
74339,103463
74397,103563
74334,103438
74438,103576
74357,103405
74404,103572
74359,103415
74391,103573
74340,103424
74431,103585
74387,103454
74420,103582
74312,103487
74426,103588
74341,103431
74436,103572
74353,103416
74436,103578
74341,103483
74387,103575
74350,103451
74422,103566
74180,103519
74275,103439
74230,103479
74237,103454
74301,103481
74427,103594
74340,103487
74429,103560
74354,103457
74415,103590
74342,103411
74412,103579
74354,103415
74413,103572
74338,103409
74411,103573
74348,103442
74403,103586
74321,103443
74390,103571
74369,103436
74443,103610
74343,103448
74422,103569
74383,103429
74441,103590
74352,103459
74385,103587
74340,103472
74410,103580
74360,103429
74422,103566
74389,103605
74290,103458
74234,103483
74238,103450
74226,103470
74349,103491
74430,103592
74334,103478
74429,103566
74356,103490
74373,103570
74357,103443
74453,103615
74364,103495
74454,103615
74313,103496
74443,103574
74374,103438
74439,103559
74347,103513
74392,103556
74363,103437
74416,103614
74359,103484
74426,103620
74348,103468
74447,103579
74366,103425
74422,103548
74351,103449
74404,103593
74357,103437
74455,103539
74344,103485
74222,103386
74268,103437
74241,103494
74413,103539
74287,103458
74384,103570
74365,103547
74358,103447
74433,103602
74379,103481
74425,103599
74355,103464
74440,103622
74401,103446
74427,103572
74372,103443
74455,103592
74410,103473
74430,103599
74355,103434
74412,103623
74359,103465
74444,103594
74353,103513
74442,103565
74375,103441
74443,103588
74383,103482
74482,103595
74361,103450
74292,103554
74261,103512
74264,103487
74277,103470
74249,103483
74468,103657
74331,103528
74434,103576
74365,103449
74452,103584
74380,103531
74415,103597
74372,103423
74432,103558
74372,103443
74447,103556
74352,103451
74447,103554
74375,103467
74400,103540
74355,103483
74437,103558
74387,103465
74427,103588
74391,103487
74386,103550
74345,103450
74428,103564
74364,103481
74431,103570
74360,103461
74361,103450
74395,103595
74190,103331
74242,103450
74196,103483
74230,103434
74350,103420
74427,103542
74336,103419
74412,103563
74307,103465
74414,103538
74329,103397
74405,103577
74307,103388
74361,103565
74311,103400
74369,103546
74308,103404
74361,103517
74302,103420
74393,103542
74352,103393
74367,103519
74302,103400
74400,103546
74283,103383
74383,103532
74289,103410
74351,103535
74276,103386
74363,103556
74301,103399
74319,103535
74353,103528
74300,103563
74248,103488
74172,103467
74323,103484
74286,103287
74318,103506
74226,103435
74339,103487
74303,103371
74329,103519
74282,103356
74331,103530
74262,103406
74333,103511
74238,103363
74322,103533
74255,103420
74367,103521
74252,103446
74297,103516
74259,103386
74357,103535
74271,103387
74337,103523
74288,103432
74308,103510
74268,103377
74300,103476
74245,103362
74332,103525
74142,103394
74130,103473
74082,103409
74128,103418
74117,103408
74297,103532
74254,103398
74306,103528
74288,103364
74342,103511
74245,103381
74319,103522
74283,103410
74330,103505
74260,103408
74329,103553
74237,103414
74308,103550
74261,103380
74266,103516
74245,103397
74307,103542
74244,103407
74306,103531
74251,103381
74340,103563
74258,103408
74315,103536
74254,103376
74288,103529
74234,103387
74332,103525
74322,103530
74121,103328
74202,103358
74113,103430
74167,103407
74254,103418
74141,103380
74380,103549
74273,103372
74282,103507
74244,103433
74332,103530
74261,103390
74298,103557
74272,103391
74334,103572
74277,103418
74325,103534
74257,103379
74342,103573
74254,103440
74339,103547
74266,103417
74338,103569
74252,103393
74329,103525
74276,103394
74343,103542
74265,103449
74327,103544
74275,103419
74313,103535
74151,103455
74151,103469
74160,103432
74175,103461
74152,103447
74350,103543
74303,103315
74329,103558
74243,103424
74327,103536
74243,103385
74310,103562
74287,103412
74372,103557
74248,103451
74336,103546
74289,103400
74370,103558
74295,103426
74337,103560
74272,103447
74364,103563
74256,103419
74369,103546
74312,103465
74372,103556
74275,103495
74341,103583
74289,103425
74315,103539
74280,103417
74356,103567
74236,103394
74149,103473
74146,103466
74228,103451
74141,103476
74352,103555
74271,103429
74404,103593
74263,103374
74373,103567
74265,103478
74312,103527
74275,103414
74354,103565
74290,103384
74322,103581
74283,103422
74363,103555
74269,103412
74329,103576
74290,103418
74380,103578
74297,103415
74360,103579
74284,103406
74378,103564
74312,103466
74359,103574
74330,103491
74359,103574
74269,103442
74356,103567
74381,103554
74190,103354
74251,103405
74158,103501
74234,103456
74324,103376
74354,103581
74300,103423
74358,103564
74302,103454
74340,103565
74283,103431
74360,103564
74334,103459
74372,103588
74285,103416
74367,103571
74305,103405
74356,103582
74306,103475
74372,103559
74290,103477
74373,103569
74330,103458
74346,103587
74280,103439
74380,103567
74294,103432
74390,103579
74312,103440
74375,103591
74308,103449
74429,103574
74298,103440
74166,103382
74238,103394
74188,103497
74358,103562
74304,103389
74387,103584
74340,103447
74384,103572
74325,103417
74369,103576
74306,103440
74357,103544
74306,103471
74406,103577
74322,103444
74379,103566
74336,103487
74373,103565
74313,103435
74394,103571
74318,103393
74400,103587
74328,103419
74354,103554
74317,103427
74352,103563
74330,103428
74400,103592
74336,103438
74403,103563
74158,103489
74168,103511
74199,103482
74205,103475
74227,103478
74357,103557
74314,103444
74401,103579
74317,103384
74392,103585
74345,103444
74413,103574
74335,103479
74409,103600
74344,103443
74404,103577
74331,103431
74398,103555
74343,103421
74397,103585
74311,103434
74406,103581
74355,103452
74394,103576
74341,103430
74385,103582
74344,103467
74405,103565
74347,103465
74386,103572
74308,103480
74403,103563
74417,103541
74209,103360
74212,103436
74258,103439
74235,103476
74355,103392
74402,103561
74311,103433
74385,103550
74311,103437
74394,103569
74326,103442
74422,103579
74347,103461
74409,103546
74351,103446
74408,103580
74325,103449
74384,103570
74324,103444
74410,103548
74320,103461
74389,103562
74355,103408
74385,103562
74335,103439
74430,103557
74303,103431
74413,103555
74319,103419
74409,103569
74331,103422
74464,103524
74437,103530
74287,103394
74232,103369
74285,103388
74470,103554
74308,103461
74405,103551
74350,103408
74425,103539
74336,103464
74396,103548
74332,103447
74413,103561
74351,103423
74371,103535
74339,103426
74387,103553
74364,103414
74410,103560
74311,103428
74383,103543
74333,103391
74441,103545
74349,103385
74431,103575
74372,103469
74409,103561
74345,103396
74442,103555
74336,103407
74408,103571
74249,103450
74237,103458
74246,103492
74239,103434
74244,103452
74402,103546
74344,103451
74444,103567
74351,103426
74401,103568
74349,103402
74394,103555
74347,103402
74393,103545
74332,103378
74433,103577
74333,103416
74406,103549
74367,103463
74378,103538
74331,103403
74424,103558
74314,103406
74396,103536
74364,103414
74387,103575
74338,103403
74397,103536
74351,103390
74424,103558
74342,103405
74408,103571
74397,103568
74230,103328
74260,103413
74216,103472
74220,103438
74379,103441
74398,103549
74355,103435
74419,103539
74352,103396
74444,103545
74327,103427
74393,103551
74336,103429
74425,103549
74353,103422
74392,103572
74338,103454
74407,103556
74339,103379
74416,103556
74353,103397
74420,103553
74338,103428
74397,103586
74358,103403
74403,103580
74344,103431
74412,103558
74368,103424
74417,103545
74357,103442
74290,103580
74246,103493
74183,103446
74299,103408
74231,103448
74348,103547
74312,103297
74374,103537
74358,103416
74446,103552
74347,103457
74404,103583
74318,103441
74417,103572
74338,103414
74425,103531
74357,103426
74424,103584
74356,103445
74441,103545
74344,103396
74421,103570
74392,103419
74465,103586
74343,103478
74451,103549
74346,103426
74400,103549
74369,103410
74415,103557
74358,103423
74423,103573
74285,103387
74255,103485
74260,103469
74253,103460
74296,103489
74416,103568
74350,103473
74406,103581
74384,103453
74436,103582
74356,103419
74456,103585
74382,103450
74428,103580
74338,103443
74417,103557
74360,103435
74413,103549
74357,103436
74425,103583
74356,103432
74427,103556
74361,103422
74428,103573
74330,103436
74427,103581
74377,103429
74396,103554
74354,103407
74397,103578
74353,103444
74423,103573
74498,103578
74319,103368
74190,103381
74296,103462
74281,103504
74417,103484
74365,103535
74351,103432
74421,103589
74351,103416
74439,103555
74361,103403
74422,103579
74374,103433
74448,103551
74395,103431
74457,103585
74382,103434
74438,103590
74354,103435
74462,103553
74372,103451
74414,103543
74386,103455
74390,103572
74401,103466
74434,103592
74361,103423
74430,103536
74382,103415
74444,103569
74391,103430
74429,103609
74372,103609
74239,103498
74268,103478
74276,103430
74535,103582
74377,103504
74443,103580
74392,103476
74431,103578
74373,103428
74443,103580
74391,103439
74461,103555
74402,103502
74460,103581
74376,103433
74440,103534
74399,103419
74437,103511
74388,103417
74470,103594
74360,103403
74468,103552
74386,103448
74440,103585
74381,103454
74442,103561
74368,103504
74434,103539
74385,103424
74418,103542
74297,103394
74302,103460
74288,103440
74241,103472
74321,103472
74430,103586
74403,103443
74451,103582
74380,103433
74440,103563
74391,103401
74473,103573
74405,103440
74476,103589
74394,103455
74434,103572
74400,103411
74438,103551
74385,103422
74442,103594
74389,103443
74450,103548
74358,103399
74444,103555
74375,103435
74483,103589
74413,103412
74461,103569
74395,103412
74418,103563
74373,103442
74418,103542
74471,103552
74289,103378
74300,103383
74268,103527
74282,103477
74437,103406
74432,103559
74373,103453
74452,103591
74390,103478
74421,103587
74376,103423
74468,103551
74378,103446
74466,103566
74367,103435
74430,103585
74415,103431
74441,103554
74411,103452
74441,103566
74369,103424
74464,103553
74383,103420
74466,103552
74410,103408
74467,103568
74418,103403
74448,103557
74363,103421
74485,103554
74379,103440
74526,103551
74387,103485
74309,103310
74371,103397
74280,103494
74525,103594
74404,103453
74444,103549
74407,103425
74456,103572
74404,103418
74482,103585
74415,103467
74417,103560
74409,103434
74513,103587
74375,103447
74421,103550
74406,103400
74448,103570
74379,103444
74447,103579
74438,103386
74463,103579
74390,103421
74468,103539
74415,103458
74458,103565
74405,103413
74424,103568
74390,103427
74432,103573
74362,103414
74288,103515
74249,103455
74256,103484
74309,103468
74448,103520
74420,103433
74467,103541
74396,103428
74474,103564
74417,103450
74460,103563
74418,103417
74451,103551
74402,103439
74471,103576
74403,103430
74446,103598
74387,103480
74448,103556
74414,103419
74477,103585
74383,103426
74473,103574
74385,103450
74471,103564
74410,103440
74441,103572
74374,103432
74446,103555
74427,103448
74432,103573
74478,103585
74232,103347
74283,103481
74247,103477
74284,103477
74439,103405
74468,103595
74421,103398
74483,103593
74421,103465
74461,103551
74400,103411
74458,103569
74373,103450
74443,103578
74395,103432
74481,103584
74399,103449
74451,103584
74413,103447
74490,103587
74406,103430
74498,103618
74407,103487
74470,103586
74406,103433
74472,103560
74415,103462
74465,103585
74431,103447
74445,103588
74394,103444
74515,103575
74541,103601
74443,103519
74336,103387
74299,103392
74496,103608
74439,103428
74447,103590
74438,103457
74503,103560
74404,103499
74501,103592
74400,103436
74459,103565
74412,103406
74478,103576
74421,103441
74473,103579
74443,103452
74484,103589
74392,103468
74497,103616
74441,103452
74484,103579
74435,103475
74488,103567
74398,103448
74512,103578
74403,103464
74493,103589
74413,103442
74475,103605
74269,103496
74292,103438
74307,103494
74321,103482
74362,103557
74473,103558
74420,103452
74471,103571
74420,103428
74516,103565
74442,103478
74497,103583
74424,103417
74471,103537
74429,103439
74540,103577
74417,103415
74484,103563
74415,103450
74459,103558
74414,103426
74486,103555
74417,103455
74481,103556
74386,103468
74523,103568
74402,103473
74497,103600
74390,103489
74478,103575
74414,103453
74475,103605
74513,103599
74300,103355
74323,103445
74309,103513
74315,103432
74456,103422
74495,103561
74410,103416
74495,103568
74414,103434
74486,103559
74381,103409
74450,103577
74383,103409
74449,103539
74395,103446
74475,103551
74394,103388
74498,103558
74402,103409
74457,103552
74385,103407
74447,103551
74400,103360
74453,103550
74367,103439
74426,103525
74358,103414
74418,103548
74385,103394
74415,103526
74366,103383
74313,103546
74312,103360
74246,103404
74228,103439
74267,103453
74384,103530
74373,103246
74407,103523
74353,103377
74412,103487
74339,103382
74393,103505
74369,103366
74447,103518
74314,103372
74416,103539
74362,103382
74401,103537
74343,103366
74391,103483
74326,103389
74388,103504
74319,103357
74401,103503
74347,103364
74381,103513
74335,103341
74416,103496
74332,103328
74387,103472
74347,103360
74374,103520
74276,103359
74193,103397
74190,103412
74169,103372
74291,103385
74355,103477
74320,103396
74419,103479
74308,103402
74358,103498
74318,103358
74377,103503
74305,103329
74403,103492
74317,103383
74376,103447
74311,103349
74382,103477
74283,103343
74388,103509
74314,103376
74387,103496
74303,103352
74356,103518
74284,103365
74373,103485
74322,103349
74351,103476
74320,103352
74351,103516
74312,103355
74374,103520
74361,103501
74240,103282
74155,103311
74193,103399
74199,103370
74264,103465
74212,103188
74340,103469
74301,103382
74349,103476
74306,103363
74404,103520
74302,103403
74387,103479
74307,103381
74393,103477
74324,103399
74364,103494
74288,103345
74349,103459
74308,103356
74386,103501
74321,103396
74410,103520
74316,103348
74352,103468
74323,103347
74390,103487
74299,103371
74378,103510
74319,103364
74360,103498
74129,103436
74194,103404
74172,103371
74222,103392
74159,103386
74333,103496
74296,103202
74430,103475
74337,103344
74388,103501
74335,103353
74386,103489
74302,103347
74391,103475
74330,103377
74407,103501
74313,103442
74393,103519
74313,103358
74376,103473
74306,103356
74386,103503
74363,103357
74403,103497
74310,103339
74398,103539
74333,103408
74419,103514
74307,103341
74375,103509
74309,103371
74398,103509
74281,103346
74166,103404
74244,103368
74248,103448
74256,103445
74375,103449
74316,103379
74399,103509
74330,103368
74389,103496
74341,103409
74397,103508
74335,103387
74378,103550
74341,103400
74393,103523
74333,103359
74391,103512
74324,103368
74412,103534
74355,103357
74402,103505
74337,103403
74433,103501
74322,103386
74391,103488
74337,103366
74372,103525
74334,103371
74428,103533
74367,103385
74398,103509
74425,103549
74327,103416
74150,103317
74280,103339
74226,103440
74382,103414
74316,103418
74363,103411
74392,103501
74350,103356
74391,103502
74338,103350
74397,103552
74323,103407
74409,103527
74342,103359
74405,103549
74345,103407
74443,103520
74343,103377
74377,103516
74313,103396
74357,103524
74358,103368
74383,103511
74343,103401
74429,103523
74367,103370
74423,103507
74343,103392
74379,103502
74341,103397
74407,103571
74493,103595
74399,103497
74293,103366
74249,103361
74491,103554
74366,103420
74431,103543
74375,103374
74446,103546
74348,103448
74431,103534
74360,103403
74392,103501
74339,103422
74415,103535
74359,103404
74405,103546
74378,103386
74449,103546
74341,103422
74426,103533
74383,103396
74441,103524
74354,103401
74407,103540
74372,103392
74449,103541
74343,103405
74425,103522
74379,103437
74414,103523
74288,103380
74234,103427
74243,103385
74201,103469
74308,103483
74428,103502
74390,103388
74415,103502
74357,103424
74417,103524
74372,103421
74427,103517
74392,103414
74429,103490
74396,103361
74454,103539
74377,103380
74411,103523
74354,103424
74444,103528
74362,103409
74425,103528
74421,103402
74392,103528
74395,103410
74418,103508
74377,103428
74448,103548
74374,103380
74420,103512
74365,103418
74414,103523
74455,103515
74211,103321
74277,103377
74214,103475
74252,103430
74372,103450
74210,103349
74492,103556
74394,103454
74422,103507
74402,103382
74472,103523
74382,103397
74418,103508
74398,103374
74398,103492
74376,103406
74386,103516
74360,103401
74432,103533
74358,103360
74417,103527
74366,103404
74462,103501
74378,103410
74433,103515
74380,103365
74453,103518
74349,103410
74449,103526
74419,103386
74426,103555
74252,103457
74260,103441
74259,103429
74268,103405
74281,103426
74487,103543
74371,103473
74432,103530
74393,103399
74397,103494
74362,103375
74460,103569
74332,103369
74442,103536
74384,103425
74435,103543
74394,103381
74452,103512
74371,103375
74454,103564
74339,103383
74449,103532
74378,103396
74430,103519
74395,103390
74445,103530
74401,103427
74445,103541
74358,103419
74434,103541
74398,103385
74449,103543
74272,103358
74209,103449
74276,103430
74231,103440
74339,103469
74464,103536
74371,103377
74409,103540
74377,103386
74449,103523
74383,103389
74462,103513
74390,103379
74450,103523
74358,103397
74435,103519
74421,103408
74422,103539
74369,103378
74468,103538
74368,103423
74437,103533
74372,103412
74455,103560
74402,103456
74474,103531
74382,103395
74459,103534
74371,103452
74450,103538
74377,103443
74449,103543
74450,103528
74220,103332
74254,103416
74247,103429
74251,103437
74383,103458
74208,103307
74506,103571
74409,103470
74448,103540
74381,103370
74433,103581
74397,103396
74480,103528
74382,103414
74488,103550
74404,103414
74443,103520
74383,103365
74449,103514
74404,103388
74481,103552
74365,103455
74426,103500
74369,103397
74508,103537
74413,103435
74437,103523
74396,103374
74430,103494
74378,103379
74439,103519
74268,103375
74297,103412
74254,103426
74245,103384
74297,103409
74531,103569
74413,103436
74457,103530
74391,103390
74475,103525
74365,103413
74470,103531
74407,103388
74478,103524
74385,103403
74465,103542
74416,103370
74454,103529
74398,103354
74474,103539
74397,103386
74475,103537
74430,103365
74462,103498
74400,103393
74453,103524
74388,103390
74457,103548
74404,103391
74446,103538
74389,103356
74465,103504
74358,103406
74266,103412
74342,103403
74280,103430
74427,103413
74426,103492
74397,103386
74453,103506
74378,103413
74498,103530
74384,103432
74471,103527
74391,103415
74447,103505
74426,103418
74455,103515
74385,103375
74480,103561
74384,103380
74495,103527
74395,103383
74443,103505
74409,103389
74476,103520
74406,103357
74492,103509
74375,103390
74475,103511
74396,103365
74490,103541
74393,103357
74465,103504
74509,103503
74362,103349
74253,103264
74283,103411
74312,103369
74445,103502
74415,103325
74468,103540
74424,103400
74492,103485
74414,103345
74474,103542
74380,103382
74476,103533
74428,103387
74480,103520
74380,103353
74484,103521
74423,103397
74478,103519
74396,103409
74452,103542
74433,103399
74484,103516
74423,103347
74457,103503
74446,103357
74471,103532
74437,103338
74505,103517
74396,103384
74496,103537
74304,103400
74293,103403
74295,103376
74276,103419
74304,103411
74540,103518
74424,103397
74512,103497
74425,103381
74496,103526
74422,103385
74502,103532
74407,103409
74476,103525
74438,103365
74481,103493
74448,103324
74504,103512
74443,103375
74465,103525
74430,103363
74462,103518
74417,103387
74484,103515
74428,103386
74516,103524
74441,103335
74530,103538
74416,103445
74496,103544
74415,103442
74474,103485
74346,103361
74297,103453
74292,103416
74304,103456
74382,103443
74502,103491
74412,103382
74472,103521
74446,103347
74487,103489
74427,103371
74500,103492
74429,103347
74487,103537
