42245
42281
42271
42281
42274
42260
42265
42300
42264
42254
42283
42256
42276
42286
42274
42265
42256
42289
42259
42248
42284
42266
42268
42285
42267
42261
42284
42277
42253
42244
42290
42258
42207
42273
42274
42249
42267
42259
42267
42248
42236
42270
42240
42239
42277
42234
42236
42260
42252
42227
42214
42251
42231
42222
42247
42238
42220
42204
42244
42207
42203
42225
42202
42203
42207
42206
42199
42213
42183
42193
42194
42178
42201
42189
42177
42193
42168
42179
42194
42186
42177
42145
42182
42160
42154
42189
42162
42154
42147
42171
42146
42150
42174
42138
42141
42140
42150
42149
42140
42145
42127
42122
42124
42146
42120
42118
42101
42127
42100
42113
42127
42112
42092
42085
42118
42094
42084
42121
42099
42079
42080
42114
42077
42066
42107
42066
42079
42094
42105
42083
42068
42072
42083
42069
42070
42083
42075
42060
42052
42084
42057
42053
42090
42061
42058
42050
42078
42052
42047
42076
42050
42052
42060
42078
42043
42048
42081
42052
42058
42055
42043
42027
42039
42064
42063
42044
42056
42046
42072
42043
42023
42059
42039
42046
42068
42050
42038
42029
42063
42044
42036
42075
42044
42048
42043
42069
42046
42037
42063
42033
42033
42055
42061
42059
42052
42069
42033
42041
42022
42061
42042
42053
42070
42058
42047
42018
42074
42045
42045
42067
42063
42048
42024
42073
42039
42059
42069
42058
42050
42029
42076
42053
42055
42077
42069
42061
42048
42058
42061
42060
42044
42074
42056
42068
42072
42061
42048
42050
42073
42065
42054
42078
42042
42057
42050
42082
42052
42038
42077
42057
42050
42089
42066
42062
42042
42081
42054
42054
42057
42071
42073
42050
42041
42078
42052
42069
42081
42068
42057
42043
42076
42057
42065
42080
42069
42063
42056
42100
42058
42051
42083
42060
42074
42080
42068
42060
42054
42081
42070
42054
42059
42085
42079
42064
42097
42070
42066
42078
42090
42068
42045
42089
42071
42064
42084
42064
42074
42066
42102
42065
42065
42087
42067
42075
42093
42080
42066
42069
42105
42070
42083
42085
42103
42076
42069
42062
42096
42068
42072
42097
42072
42074
42056
42087
42068
42068
42087
42070
42065
42061
42091
42072
42056
42088
42065
42060
42069
42089
42062
42061
42084
42068
42083
42086
42054
42062
42060
42089
42083
42056
42040
42078
42062
42050
42084
42072
42067
42055
42074
42056
42053
42081
42068
42063
42071
42085
42055
42042
42081
42055
42057
42073
42081
42059
42047
42060
42079
42056
42082
42062
42076
42052
42031
42077
42051
42055
42075
42083
42044
42043
42081
42052
42057
42065
42065
42061
42033
42080
42043
42055
42084
42077
42048
42043
42073
42043
42062
42081
42057
42052
42071
42075
42044
42054
42073
42077
42059
42041
42070
42053
42056
42074
42053
42059
42072
42089
42057
42056
42079
42045
42059
42067
42073
42057
42045
42076
42046
42047
42076
42073
42062
42056
42063
42096
42054
42061
42086
42054
42064
42051
42094
42060
42054
42087
42054
42063
42079
42079
42061
42038
42088
42060
42057
42090
42066
42068
42091
42090
42077
42049
42080
42062
42085
42067
42070
42097
42058
42067
42091
42080
42080
42062
42100
42065
42067
42096
42071
42077
42090
42095
42079
42057
42108
42077
42070
42095
42078
42079
42059
42106
42089
42075
42077
42104
42089
42083
42126
42084
42089
42070
42104
42086
42070
42103
42072
42087
42109
42094
42093
42084
42110
42073
42079
42105
42079
42089
42101
42110
42082
42077
42122
42083
42094
42111
42093
42065
42102
42107
42119
42096
42082
42109
42087
42099
42100
42120
42092
42090
42114
42095
42101
42105
42120
42095
42082
42114
42089
42092
42119
42083
42096
42106
42116
42097
42099
42128
42109
42110
42126
42106
42133
42118
42100
42087
42141
42109
42104
42136
42121
42104
42093
42130
42106
42107
42127
42104
42111
42116
42136
42105
42112
42140
42116
42113
42125
42147
42119
42128
42137
42106
42126
42131
42114
42123
42140
42115
42105
42143
42114
42117
42129
42142
42119
42102
42138
42108
42122
42130
42137
42115
42103
42148
42125
42113
42159
42120
42111
42131
42157
42120
42137
42137
42121
42147
42138
42145
42149
42125
42107
42155
42115
42134
42147
42149
42133
42110
42149
42125
42125
42140
42134
42133
42111
42153
42129
42116
42136
42121
42110
42100
42134
42105
42118
42118
42121
42120
42107
42107
42133
42088
42097
42125
42098
42094
42078
42122
42090
42092
42114
42107
42074
42061
42099
42062
42067
42102
42074
42060
42045
42082
42057
42057
42071
42060
42046
42055
42043
42060
42060
42026
42041
42024
42028
42047
42035
42022
42004
42037
42006
42020
42034
42023
42001
41984
42017
41985
41988
41993
42005
41981
41952
41997
41963
41970
41993
41968
41984
41961
41990
41952
41958
41950
41973
41954
41945
41930
41959
41934
41932
41952
41931
41935
41918
41958
41918
41914
41950
41925
41930
41940
41944
41912
41902
41947
41914
41919
41937
41932
41900
41931
41922
41903
41910
41910
41904
41898
41928
41906
41882
41934
41909
41903
41914
41940
41902
41902
41935
41902
41911
41910
41936
41900
41890
41928
41900
41914
41884
41921
41898
41894
41904
41889
41898
41917
41914
41897
41883
41926
41892
41906
41931
41906
41898
41893
41926
41907
41897
41914
41903
41911
41929
41925
41899
41892
41926
41904
41915
41922
41920
41905
41888
41935
41907
41928
41922
41912
41908
41907
41926
41936
41919
41907
41936
41913
41912
41905
41939
41917
41917
41941
41923
41919
41901
41942
41922
41922
41943
41936
41923
41905
41960
41933
41930
41962
41944
41942
41930
41951
41946
41953
41949
41941
41919
41957
41938
41943
41963
41962
41940
41931
41979
41950
41955
41978
41966
41949
41946
41982
41953
41964
41988
41957
41969
41974
41982
41962
41987
41969
41969
41974
41982
41964
41959
41995
41965
41973
41984
41996
41965
41963
41989
41960
41974
41989
41998
41964
41964
41989
41966
41980
42005
42006
41969
41963
42003
41978
41984
41994
41987
41983
41975
41978
41997
42001
41976
41964
42008
41985
41982
42010
41994
41977
41968
41999
41985
41980
42010
41992
41979
41993
42005
41976
41968
42008
41987
41984
41992
41998
41977
41970
41969
41990
41998
41984
41952
41983
41971
41997
41970
41983
41990
41997
41973
41969
41999
41976
41978
41994
42004
41972
41968
41988
41976
41980
41966
42002
41982
41978
41991
41972
41967
41984
41995
41979
41962
41978
41985
41976
41996
41967
41969
41990
41976
41975
41966
41995
41967
41974
41999
41971
41979
41952
41992
41964
41968
41985
41973
41976
41965
41991
41959
41972
41989
41984
41973
41967
41974
41961
41965
41990
41995
41961
41957
41987
41959
41966
41987
41999
41967
41957
41989
41971
41971
41971
41995
41961
41957
41999
41970
41984
41986
42000
41968
41960
41991
41968
41988
41978
41964
41980
41965
41999
41970
41971
41999
41978
41979
41967
42009
41986
41984
42000
41970
41982
41982
42005
41982
41979
42012
41990
41972
41992
42018
41978
41968
42004
41989
41985
41985
41989
41990
41983
42017
41998
41986
41966
41993
41982
41987
41993
41994
41984
41974
42018
41990
41982
42007
42004
41990
41983
42013
41984
41983
42005
42000
41984
41974
42018
41995
41994
42011
42006
41997
41986
42008
42018
41990
41972
42012
41994
42007
42023
42019
42000
41979
42010
42002
42010
42021
42017
41993
41976
42020
41991
42006
42031
42023
41993
41986
42016
41998
42003
42018
42012
42017
41996
42005
42030
42017
42006
41987
42026
42000
42008
42010
42025
41998
41989
42026
41993
41994
42011
42024
41995
41993
42023
41998
42010
41997
42031
42009
41990
42018
42003
42028
42000
42005
42006
41992
41986
42023
41995
41998
42022
42027
41999
41989
42025
42001
42004
42022
42024
42006
41995
42022
42007
42010
42032
42033
42016
41995
42036
42009
42019
42026
42045
42028
42008
42029
42016
42028
42009
42020
42042
42026
42016
42000
42043
42021
42013
42027
42041
42024
42025
42050
42027
42021
42033
42049
42017
42017
42047
42024
42028
42030
42063
42032
42038
42040
42048
42035
42037
42031
42049
42066
42033
42029
42059
42034
42052
42063
42070
42040
42044
42071
42041
42047
42068
42067
42042
42038
42067
42038
42039
42052
42071
42039
42043
42069
42060
42053
42042
42041
42078
42068
42032
42076
42041
42059
42060
42068
42040
42027
42056
42026
42038
42051
42060
42023
42025
42052
42029
42025
42043
42044
42016
42016
42042
42015
42013
41992
42030
41993
42013
42013
42021
41997
41987
42010
41993
41989
41983
42014
41984
41973
41987
41995
41977
41953
41992
41953
41963
41967
41980
41943
41936
41958
41931
41933
41945
41951
41927
41906
41939
41929
41895
41913
41893
41997
41880
41907
41889
41886
41891
41900
41871
41852
41897
41869
41859
41873
41876
41848
41846
41865
41841
41843
41859
41861
41824
41825
41849
41816
41819
41826
41848
41821
41815
41825
41809
41815
41798
41788
41826
41799
41801
41804
41817
41789
41787
41809
41777
41789
41792
41802
41775
41767
41791
41774
41778
41774
41791
41774
41771
41794
41759
41770
41756
41776
41756
41773
41771
41800
41772
41757
41791
41766
41757
41740
41788
41762
41771
41774
41784
41756
41749
41774
41757
41754
41770
41772
41752
41743
41769
41754
41756
41754
41783
41737
41747
41743
41757
41786
41765
41775
41738
41750
41772
41775
41752
41743
41771
41753
41740
41760
41783
41750
41761
41778
41761
41767
41743
41775
41754
41766
41796
41771
41773
41738
41776
41759
41747
41793
41787
41782
41771
41758
41792
41764
41775
41799
41794
41766
41763
41787
41768
41777
41768
41803
41781
41775
41797
41778
41791
41786
41804
41784
41780
41801
41795
41777
41766
41812
41794
41793
41813
41807
41801
41787
41793
41814
41821
41792
41801
41814
41794
41801
41793
41827
41795
41801
41826
41823
41798
41792
41831
41808
41811
41832
41815
41808
41792
41835
41808
41817
41831
41800
41821
41816
41841
41836
41820
41823
41804
41836
41814
41822
41835
41845
41820
41821
41848
41813
41833
41810
41842
41813
41819
41847
41827
41829
41815
41841
41821
41817
41842
41819
41808
41826
41825
41846
41808
41853
41848
41821
41826
41826
41851
41815
41820
41840
41822
41821
41812
41848
41822
41825
41837
41835
41818
41811
41843
41813
41829
41834
41846
41821
41814
41838
41820
41833
41836
41812
41810
41834
41837
41823
41812
41845
41812
41823
41834
41845
41817
41815
41844
41815
41820
41813
41858
41821
41828
41842
41838
41824
41805
41837
41820
41830
41836
41841
41821
41815
41832
41848
41827
41834
41846
41818
41832
41848
41831
41826
41802
41840
41820
41824
41819
41853
41805
41819
41838
41824
41824
41807
41834
41816
41821
41834
41830
41821
41803
41843
41818
41815
41838
41820
41823
41832
41821
41842
41815
41818
41815
41849
41813
41830
41843
41825
41825
41819
41836
41817
41826
41837
41839
41812
41811
41841
41824
41827
41826
41842
41819
41826
41851
41816
41830
41821
41817
41813
41813
41846
41824
41830
41821
41845
41826
41825
41843
41826
41826
41822
41846
41825
41823
41843
41830
41825
41824
41848
41818
41828
41853
41817
41832
41821
41845
41857
41837
41822
41820
41822
41831
41835
41863
41824
41832
41858
41835
41833
41816
41863
41831
41834
41866
41822
41829
41809
41856
41831
41842
41860
41835
41835
41814
41859
41834
41835
41845
41838
41841
41841
41822
41844
41812
41854
41836
41838
41855
41862
41833
41831
41864
41838
41842
41859
41862
41836
41828
41868
41838
41835
41840
41871
41844
41838
41860
41838
41849
41823
41862
41838
41849
41854
41848
41844
41851
41826
41869
41833
41846
41861
41872
41846
41838
41873
41837
41856
41847
41876
41857
41845
41870
41852
41854
41837
41866
41839
41850
41863
41876
41850
41840
41858
41867
41854
41859
41879
41851
41848
41849
41867
41848
41845
41873
41848
41858
41842
41872
41848
41853
41879
41864
41848
41832
41881
41860
41851
41869
41885
41860
41839
41879
41850
41860
41871
41856
41849
41869
41869
41885
41855
41844
41895
41876
41871
41877
41881
41859
41848
41887
41863
41864
41886
41895
41874
41865
41890
41873
41870
41873
41889
41871
41861
41892
41870
41878
41878
41884
41876
41871
41865
41880
41876
41886
41908
41878
41870
41899
41884
41887
41873
41910
41875
41880
41907
41896
41885
41869
41903
41877
41879
41884
41904
41876
41889
41910
41891
41879
41890
41893
41876
41881
41865
41903
41900
41881
41865
41907
41882
41884
41898
41897
41869
41869
41899
41874
41869
41904
41896
41864
41876
41898
41874
41864
41864
41889
41856
41857
41879
41870
41864
41847
41859
41866
41872
41840
41825
41854
41833
41836
41838
41852
41824
41821
41854
41830
41814
41788
41827
41800
41793
41821
41800
41782
41766
41791
41778
41762
41779
41788
41747
41745
41753
41770
41742
41750
41723
41754
41730
41725
41741
41726
41712
41698
41720
41697
41699
41694
41712
41675
41676
41702
41697
41673
41655
41687
41657
41668
41668
41676
41652
41639
41672
41643
41643
41652
41633
41614
41630
41615
41598
41648
41609
41605
41630
41618
41604
41595
41613
41594
41592
41603
41609
41578
41571
41598
41585
41575
41581
41598
41576
41565
41587
41593
41577
41643
41536
41564
41568
41562
41570
41553
41564
41580
41568
41564
41546
41576
41552
41555
41562
41578
41551
41550
41574
41552
41556
41546
41574
41550
41559
41578
41562
41550
41538
41576
41544
41554
41536
41572
41568
41579
41560
41588
41555
41561
41536
41574
41560
41556
41574
41578
41556
41549
41587
41563
41564
41543
41576
41568
41574
41563
41592
41569
41556
41586
41574
41557
41545
41590
41541
41595
41558
41576
41583
41577
41566
41556
41594
41565
41567
41543
41591
41558
41563
41593
41590
41566
41557
41596
41570
41569
41586
41595
41569
41574
41595
41582
41572
41566
41594
41584
41579
41595
41584
41614
41612
41584
41610
41598
41588
41576
41615
41599
41597
41605
41625
41606
41602
41623
41614
41617
41590
41634
41612
41597
41593
41629
41604
41604
41617
41635
41616
41605
41624
41596
41606
41614
41618
41644
41619
41630
41616
41653
41617
41631
41661
41650
41640
41614
41657
41621
41638
41633
41671
41634
41633
41655
41658
41632
41633
41668
41645
41642
41630
41665
41650
41658
41645
41656
41618
41655
41647
41667
41651
41652
41673
41664
41653
41638
41667
41651
41651
41633
41677
41642
41653
41665
41668
41652
41647
41668
41663
41649
41638
41663
41644
41651
41646
41646
41648
41684
41676
41676
41671
41638
41645
41681
41655
41651
41642
41676
41647
41660
41654
41675
41652
41657
41675
41665
41652
41633
41676
41645
41650
41660
41674
41647
41658
41671
41640
41627
41643
41677
41664
41637
41649
41651
41672
41643
41648
41663
41663
41644
41642
41669
41637
41647
41650
41659
41645
41640
41662
41649
41630
41619
41657
41643
41649
41636
41672
41642
41635
41660
41642
41637
41629
41669
41638
41643
41664
41659
41629
41632
41669
41642
41642
41622
41653
41628
41636
41668
41659
41648
41631
41656
41631
41630
41629
41658
41633
41639
41646
41642
41648
41649
41630
41668
41644
41655
41640
41634
41630
41667
41628
41632
41653
41659
41637
41629
41656
41630
41639
41651
41659
41634
41629
41657
41637
41644
41640
41650
41631
41641
41660
41647
41648
41632
41626
41652
41630
41657
41651
41628
41623
41655
41628
41629
41620
41659
41633
41640
41646
41650
41635
41634
41660
41638
41632
41629
41664
41640
41629
41664
41645
41643
41627
41666
41627
41653
41640
41657
41641
41641
41647
41640
41665
41632
41643
41664
41646
41648
41634
41676
41645
41638
41674
41655
41648
41635
41678
41650
41657
41672
41677
41655
41654
41678
41665
41656
41654
41688
41671
41656
41682
41680
41658
41652
41672
41660
41662
41656
41691
41664
41668
41676
41692
41664
41662
41676
41675
41663
41643
41684
41656
41667
41647
41688
41650
41669
41673
41687
41686
41647
41647
41652
41674
41653
41635
41678
41655
41658
41661
41682
41656
41654
41676
41677
41656
41642
41676
41655
41660
41638
41673
41663
41659
41688
41685
41656
41650
41685
41666
41661
41661
41674
41664
41674
41660
41663
41644
41695
41665
41668
41691
41690
41668
41663
41685
41675
41674
41649
41701
41673
41672
41673
41692
41668
41673
41695
41703
41679
41677
41708
41686
41697
41702
41680
41686
41671
41709
41704
41685
41675
41669
41715
41675
41681
41683
41710
41671
41693
41702
41706
41675
41682
41704
41694
41680
41674
41709
41686
41687
41702
41706
41683
41680
41718
41694
41690
41676
41697
41698
41682
41662
41699
41681
41691
41693
41703
41676
41676
41697
41692
41670
41658
41698
41674
41685
41673
41694
41671
41669
41695
41677
41669
41649
41688
41658
41668
41662
41671
41629
41651
41657
41682
41651
41660
41674
41669
41644
41632
41666
41641
41641
41639
41659
41621
41624
41650
41627
41628
41595
41638
41599
41615
41614
41629
41595
41580
41611
41668
41474
41598
41584
41606
41580
41574
41590
41568
41554
41534
41576
41543
41540
41530
41567
41536
41529
41549
41540
41513
41516
41528
41507
41503
41490
41517
41487
41488
41504
41517
41480
41479
41474
41491
41472
41486
41458
41451
41476
41449
41453
41436
41464
41440
41453
41457
41445
41434
41418
41447
41433
41425
41427
41440
41412
41415
41432
41416
41406
41386
41424
41400
41405
41398
41405
41402
41393
41374
41383
41414
41387
41389
41401
41417
41387
41386
41400
41393
41385
41364
41403
41370
41366
41369
41399
41370
41366
41380
41382
41367
41351
41394
41365
41369
41354
41388
41387
41371
41369
41388
41372
41365
41394
41394
41372
41355
41401
41371
41359
41367
41395
41364
41375
41382
41400
41361
41358
41394
41369
41368
41339
41388
41364
41379
41379
41403
41372
41373
41375
41359
41372
41392
41385
41408
41375
41394
41403
41402
41383
41366
41407
41385
41389
41380
41418
41377
41375
41411
41402
41390
41377
41411
41385
41395
41382
41421
41392
41396
41418
41401
41410
41421
41403
41424
41415
41401
41403
41424
41399
41417
41419
41435
41425
41413
41439
41434
41425
41413
41452
41421
41428
41409
41452
41425
41421
41431
41458
41429
41428
41458
41442
41436
41449
41447
41426
41432
41441
41433
41461
41433
41449
41457
41472
41446
41445
41469
41466
41446
41429
41461
41446
41439
41455
41470
41440
41445
41473
41462
41436
41431
41468
41459
41439
41435
41431
41453
41450
41449
41440
41467
41448
41437
41431
41471
41447
41446
41430
41468
41441
41450
41436
41476
41446
41450
41462
41476
41442
41437
41469
41445
41446
41437
41469
41435
41444
41438
41457
41438
41468
41459
41462
41448
41427
41461
41449
41449
41462
41478
41443
41433
41466
41456
41437
41426
41467
41438
41432
41419
41456
41435
41439
41435
41454
41426
41437
41456
41471
41438
41437
41469
41438
41429
41438
41439
41428
41459
41448
41437
41424
41452
41438
41434
41430
41456
41430
41435
41460
41465
41432
41432
41449
41452
41429
41422
41464
41439
41435
41420
41463
41439
41437
41442
41456
41416
41445
41418
41456
41424
41441
41439
41469
41437
41442
41462
41458
41435
41433
41458
41432
41440
41425
41460
41440
41434
41447
41461
41436
41444
41476
41461
41448
41448
41462
41456
41460
41451
41479
41438
41469
41448
41450
41444
41471
41447
41454
41470
41471
41453
41445
41476
41462
41456
41437
41475
41460
41456
41440
41480
41454
41452
41445
41476
41459
41452
41457
41481
41440
41464
41466
41481
41456
41448
41466
41480
41452
41464
41475
41481
41462
41456
41487
41466
41457
41446
41476
41459
41463
41461
41482
41458
41463
41490
41477
41468
41463
41486
41453
41454
41473
41487
41478
41483
41473
41459
41494
41478
41469
41460
41486
41473
41470
41487
41496
41460
41477
41510
41485
41469
41459
41505
41474
41482
41484
41510
41478
41487
41504
41489
41476
41479
41482
41512
41494
41497
41493
41518
41513
41496
41490
41520
41507
41497
41494
41513
41502
41493
41483
41526
41495
41497
41516
41521
41505
41502
41536
41529
41499
41491
41543
41502
41506
41511
41533
41526
41518
41520
41539
41507
41506
41546
41526
41516
41513
41540
41517
41515
41518
41543
41520
41524
41549
41538
41525
41513
41551
41522
41543
41553
41555
41542
41513
41559
41551
41531
41547
41552
41542
41572
41560
41544
41530
41570
41542
41556
41549
41581
41544
41538
41572
41570
41552
41546
41575
41548
41559
41577
41581
41553
41549
41590
41584
41559
41550
41559
41595
41587
41556
41552
41579
41566
41576
41562
41598
41577
41564
41601
41584
41581
41567
41594
41573
41590
41575
41605
41581
41577
41609
41615
41591
41569
41621
41592
41590
41578
41607
41590
41598
41607
41606
41610
41599
41591
41590
41625
41592
41599
41623
41613
41594
41597
41629
41605
41603
41590
41627
41590
41595
41586
41625
41589
41596
41619
41621
41589
41589
41616
41612
41607
41598
41591
41589
41600
41585
41600
41598
41574
41568
41589
41571
41564
41554
41592
41552
41541
41560
41569
41547
41542
41560
41540
41532
41509
41548
41516
41513
41505
41540
41500
41502
41507
41511
41499
41506
41504
41485
41497
41466
41473
41477
41487
41460
41461
41476
41464
41442
41433
41462
41448
41426
41415
41454
41411
41417
41396
41423
41400
41408
41408
41419
41382
41383
41407
41376
41382
41372
41376
41375
41372
41359
41347
41369
41352
41348
41343
41362
41336
41344
41342
41358
41340
41331
41350
41346
41317
41316
41345
41336
41318
41299
41346
41311
41303
41298
41337
41301
41314
41296
41313
41317
41298
41304
41317
41328
41299
41298
41326
41303
41302
41284
41332
41308
41292
41282
41329
41290
41301
41291
41326
41297
41300
41319
41336
41307
41304
41334
41317
41308
41311
41305
41316
41311
41316
41317
41332
41324
41307
41295
41341
41305
41318
41306
41342
41323
41324
41337
41348
41318
41319
41352
41327
41319
41308
41339
41323
41335
41335
41346
41333
41357
41347
41335
41354
41338
41321
41369
41350
41345
41339
41363
41333
41346
41367
41383
41355
41360
41376
41369
41365
41352
41386
41354
41373
41374
41391
41371
41371
41385
41403
41380
41385
41382
41395
41407
41386
41391
41385
41416
41393
41393
41392
41420
41390
41404
41424
41429
41402
41410
41440
41424
41416
41402
41442
41415
41415
41412
41450
41422
41429
41439
41455
41431
41385
41467
41435
41458
41445
41451
41441
41432
41458
41457
41434
41441
41470
41457
41439
41436
41483
41455
41451
41439
41477
41447
41460
41441
41486
41457
41465
41488
41484
41466
41455
41493
41473
41482
41467
41470
41486
41476
41470
41458
41502
41469
41484
41491
41496
41469
41465
41496
41466
41474
41458
41496
41475
41470
41468
41491
41470
41466
41497
41504
41464
41487
41503
41512
41484
41482
41481
41485
41499
41482
41469
41501
41506
41481
41475
41500
41480
41483
41459
41509
41486
41490
41480
41512
41482
41482
41516
41509
41487
41486
41511
41506
41489
41489
41509
41491
41493
41486
41499
41480
41489
41504
41492
41496
41512
41520
41491
41489
41518
41515
41498
41486
41510
41493
41498
41468
41511
41496
41494
41489
41509
41492
41495
41511
41521
41504
41494
41515
41519
41493
41497
41497
41501
41505
41514
41524
41494
41501
41520
41498
41500
41483
41512
41496
41499
41484
41517
41486
41492
41511
41527
41494
41507
41524
41505
41498
41489
41527
41500
41500
41492
41525
41503
41511
41514
41533
41505
41525
41505
41502
41503
41546
41521
41522
41537
41533
41533
41514
41545
41539
41521
41527
41548
41527
41531
41513
41558
41528
41534
41513
41548
41522
41529
41537
41542
41557
41558
41558
41524
41563
41535
41548
41536
41565
41539
41549
41549
41574
41537
41555
41545
41575
41551
41552
41555
41568
41551
41553
41547
41588
41553
41563
41565
41577
41561
41553
41559
41544
41568
41569
41574
41549
41585
41584
41567
41553
41588
41562
41569
41551
41592
41573
41571
41558
41586
41581
41583
41562
41608
41580
41576
41583
41606
41578
41587
41598
41608
41600
41622
41591
41570
41611
41594
41589
41623
41630
41597
41587
41631
41616
41603
41600
41625
41621
41593
41594
41631
41606
41615
41588
41636
41615
41609
41609
41641
41615
41616
41617
41608
41671
41627
41623
41618
41612
41628
41617
41647
41632
41634
41625
41653
41618
41625
41607
41657
41626
41633
41624
41653
41637
41629
41651
41664
41630
41641
41653
41668
41633
41637
41667
41667
41671
41660
41642
41641
41639
41644
41645
41662
41673
41640
41643
41669
41669
41636
41644
41680
41668
41653
41637
41679
41660
41655
41643
41683
41662
41659
41651
41686
41647
41665
41646
41680
41659
41683
41654
41689
41676
41690
41667
41670
41672
41692
41659
41664
41690
41692
41663
41670
41689
41671
41675
41658
41693
41676
41676
41650
41711
41680
41670
41662
41700
41668
41674
41671
41688
41696
41674
41698
41678
41714
41677
41683
41697
41701
41678
41685
41693
41687
41682
41673
41701
41685
41673
41657
41693
41672
41656
41643
41685
41670
41651
41628
41667
41638
41643
41619
41628
41657
41630
41633
41641
41638
41607
41619
41584
41627
41594
41602
41602
41612
41579
41574
41597
41601
41574
41558
41581
41572
41556
41535
41570
41551
41534
41514
41555
41529
41523
41501
41514
41493
41494
41520
41511
41487
41487
41510
41492
41473
41468
41483
41484
41460
41442
41467
41443
41447
41423
41462
41441
41435
41414
41450
41415
41419
41422
41446
41413
41413
41426
41435
41423
41406
41405
41407
41440
41393
41394
41386
41415
41389
41387
41375
41410
41386
41371
41368
41401
41374
41372
41359
41401
41367
41375
41363
41398
41375
41364
41365
41398
41364
41377
41385
41371
41377
41380
41384
41373
41396
41368
41362
41392
41384
41350
41373
41392
41393
41358
41364
41387
41383
41390
41367
41404
41381
41384
41353
41405
41378
41368
41359
41404
41378
41392
41401
41409
41402
41374
41383
41392
41410
41389
41394
41407
41418
41392
41388
41428
41413
41393
41399
41420
41420
41395
41408
41428
41423
41408
41406
41431
41415
41420
41394
41438
41415
41415
41401
41477
41423
41440
41442
41442
41427
41429
41418
41464
41440
41443
41444
41467
41438
41451
41460
41475
41453
41462
41475
41481
41469
41468
41468
41483
41477
41477
41493
41492
41476
41473
41498
41477
41475
41500
41497
41501
41508
41493
41493
41495
41514
41489
41497
41503
41515
41500
41500
41514
41525
41511
41506
41527
41517
41508
41505
41539
41530
41505
41496
41535
41523
41518
41493
41514
41518
41528
41531
41530
41504
41545
41516
41522
41504
41535
41530
41532
41511
41543
41528
41528
41508
41545
41514
41538
41515
41551
41521
41531
41519
41558
41526
41536
41526
41555
41529
41515
41559
41542
41546
41567
41533
41560
41551
41543
41528
41551
41564
41530
41527
41543
41530
41523
41511
41543
41526
41535
41525
41544
41511
41528
41518
41545
41522
41528
41522
41546
41521
41543
41524
41557
41534
41538
41517
41519
41546
41520
41518
41503
41538
41522
41527
41504
41544
41516
41524
41504
41535
41509
41518
41516
41547
41518
41518
41529
41538
41515
41519
41511
41528
41524
41521
41520
41531
41522
41547
41505
41499
41531
41540
41504
41508
41533
41535
41499
41505
41538
41520
41511
41481
41520
41508
41500
41497
41536
41495
41508
41487
41526
41501
41501
41503
41518
41504
41528
41508
41531
41522
41522
41495
41502
41535
41519
41492
41508
41525
41524
41500
41499
41522
41509
41506
41493
41529
41498
41510
41506
41527
41511
41504
41490
41531
41506
41502
41515
41502
41518
41508
41498
41517
41497
41541
41506
41516
41502
41544
41524
41530
41515
41544
41516
41520
41520
41545
41522
41519
41534
41546
41518
41519
41541
41557
41524
41528
41553
41557
41543
41532
41552
41529
41551
41523
41534
41522
41548
41528
41532
41520
41548
41545
41542
41524
41559
41532
41540
41540
41567
41544
41549
41551
41569
41540
41545
41542
41565
41541
41535
41557
41576
41550
41562
41541
41557
41538
41541
41558
41582
41552
41561
41571
41590
41557
41551
41572
41583
41564
41559
41582
41581
41566
41568
41586
41590
41561
41567
41595
41590
41570
41565
41590
41576
41571
41550
41592
41585
41605
41580
41583
41612
41612
41579
41587
41618
41622
41596
41601
41633
41624
41599
41602
41622
41647
41608
41613
41614
41640
41610
41624
41643
41645
41623
41631
41637
41637
41664
41635
41644
41636
41657
41634
41637
41656
41664
41638
41638
41666
41654
41638
41648
41669
41663
41647
41632
41668
41661
41654
41653
41681
41662
41671
41640
41672
41664
41669
41667
41683
41666
41698
41679
41670
41684
41699
41667
41678
41694
41695
41685
41683
41709
41694
41684
41680
41695
41698
41692
41685
41700
41690
41684
41681
41715
41685
41699
41680
41724
41693
41698
41695
41726
41702
41699
41701
41724
41729
41702
41701
41735
41728
41696
41707
41725
41717
41715
41703
41729
41710
41711
41685
41729
41710
41701
41698
41735
41709
41705
41693
41733
41717
41707
41696
41704
41723
41699
41699
41669
41714
41687
41681
41663
41708
41680
41679
41658
41701
41665
41676
41665
41688
41655
41656
41665
41682
41643
41652
41658
41667
41628
41631
41648
41641
41636
41612
41630
41626
41624
41592
41588
41624
41597
41589
41576
41601
41577
41571
41549
41580
41546
41549
41540
41570
41539
41540
41518
41549
41513
41519
41500
41526
41504
41496
41498
41518
41496
41501
41482
41467
41498
41501
41469
41464
41486
41475
41456
41454
41474
41456
41440
41438
41470
41458
41441
41426
41450
41439
41421
41407
41456
41421
41420
41401
41438
41419
41411
41395
41434
41412
41384
41407
41424
41433
41403
41401
41420
41429
41404
41395
41426
41409
41394
41401
41417
41399
41401
41385
41420
41405
41395
41381
41417
41392
41392
41375
41413
41394
41399
41395
41421
41392
41411
41413
41419
41399
41401
41414
41416
41402
41411
41413
41429
41393
41401
41411
41424
41401
41410
41424
41428
41408
41409
41429
41441
41394
41407
41428
41430
41405
41411
41441
41421
41416
41435
41409
41389
41445
41422
41424
41418
41439
41433
41422
41414
41456
41424
41426
41419
41457
41437
41427
41416
41475
41438
41442
41425
41472
41459
41453
41432
41474
41464
41455
41468
41475
41477
41463
41487
41473
41474
41498
41491
41478
41480
41511
41497
41491
41486
41508
41495
41500
41480
41522
41489
41492
41480
41529
41509
41500
41489
41542
41498
41523
41497
41534
41516
41512
41551
41525
41521
41537
41562
41525
41543
41560
41556
41529
41539
41556
41578
41537
41557
41557
41576
41548
41559
41558
41574
41547
41558
41547
41593
41558
41570
41556
41590
41567
41579
41572
41579
41582
41600
41568
41559
41587
41580
41573
41580
41594
41572
41566
41575
41610
41574
41579
41579
41593
41575
41578
41591
41608
41582
41589
41588
41601
41591
41582
41587
41609
41596
41611
41598
41575
41582
41586
41588
41606
41611
41585
41589
41605
41608
41578
41575
41605
41607
41579
41583
41617
41601
41580
41586
41610
41616
41585
41584
41606
41615
41588
41573
41607
41586
41614
41598
41583
41638
41610
41582
41582
41602
41610
41584
41591
41603
41600
41587
41578
41612
41612
41591
41581
41615
41606
41581
41580
41609
41585
41587
41569
41608
41589
41582
41566
41566
41590
41585
41594
41588
41577
41615
41587
41594
41581
41614
41589
41593
41582
41621
41593
41586
41592
41615
41588
41593
41608
41624
41592
41599
41616
41618
41605
41610
41598
41634
41566
41639
41621
41595
41597
41582
41602
41620
41604
41605
41576
41622
41602
41610
41596
41629
41607
41611
41601
41626
41613
41612
41600
41632
41623
41612
41608
41657
41621
41606
41610
41646
41636
41678
41648
41636
41630
41633
41617
41648
41635
41628
41633
41658
41639
41631
41630
41662
41634
41630
41621
41664
41642
41640
41629
41672
41645
41658
41643
41673
41643
41652
41640
41683
41648
41678
41670
41652
41677
41665
41656
41668
41694
41674
41670
41662
41693
41665
41666
41687
41687
41673
41674
41696
41698
41674
41682
41698
41695
41666
41671
41710
41713
41686
41684
41711
41711
41696
41716
41695
41709
41719
41696
41681
41715
41703
41702
41688
41717
41707
41705
41684
41726
41703
41715
41703
41747
41714
41717
41707
41744
41717
41726
41735
41745
41722
41721
41735
41751
41718
41731
41749
41751
41730
41732
41709
41761
41736
41736
41718
41755
41736
41738
41721
41758
41739
41732
41737
41758
41736
41745
41726
41771
41744
41743
41745
41771
41742
41753
41758
41771
41766
41767
41762
41747
41770
41751
41752
41768
41774
41755
41755
41773
41782
41759
41753
41778
41786
41752
41764
41768
41790
41759
41769
41786
41783
41759
41766
41777
41791
41756
41770
41784
41776
41762
41772
41778
41780
41795
41771
41769
41780
41803
41768
41782
41792
41810
41776
41778
41809
41809
41787
41777
41804
41805
41784
41786
41810
41798
41785
41777
41815
41792
41800
41777
41792
41791
41782
41822
41803
41809
41806
41786
41792
41812
41816
41792
41789
41809
41802
41792
41769
41808
41790
41782
41778
41808
41796
41788
41773
41806
41789
41773
41764
41798
41785
41771
41785
41766
41796
41752
41755
41757
41771
41779
41737
41741
41763
41753
41735
41724
41751
41746
41713
41705
41736
41703
41699
41681
41709
41687
41686
41669
41697
41669
41661
41650
41685
41771
41535
41664
41664
41653
41656
41636
41632
41651
41614
41622
41610
41624
41592
41594
41613
41613
41577
41577
41597
41581
41554
41554
41578
41576
41545
41550
41564
41559
41527
41529
41552
41542
41442
41493
41529
41512
41505
41496
41507
41502
41534
41495
41495
41511
41514
41487
41483
41495
41507
41473
41475
41493
41496
41465
41480
41491
41496
41460
41458
41477
41486
41461
41464
41462
41442
41478
41448
41472
41458
41435
41474
41454
41453
41434
41471
41444
41443
41431
41482
41449
41445
41444
41471
41442
41450
41464
41472
41451
41457
41468
41472
41441
41456
41478
41469
41459
41464
41454
41447
41451
41451
41461
41450
41486
41451
41464
41460
41482
41458
41469
41463
41488
41459
41466
41489
41487
41464
41474
41493
41488
41475
41483
41497
41506
41474
41489
41504
41509
41520
41502
41494
41479
41488
41491
41478
41523
41508
41508
41495
41531
41498
41510
41490
41530
41504
41513
41500
41536
41511
41530
41512
41546
41529
41529
41521
41552
41529
41536
41506
41566
41535
41510
41541
41568
41551
41563
41539
41544
41561
41585
41553
41556
41569
41587
41549
41560
41586
41595
41562
41576
41573
41603
41576
41580
41601
41602
41571
41575
41588
41597
41585
41585
41601
41598
41595
41608
41616
41594
41603
41610
41592
41597
41590
41615
41596
41610
41596
41623
41602
41606
41595
41636
41610
41620
41598
41635
41608
41623
41603
41639
41617
41619
41597
41654
41644
41655
41635
41644
41635
41646
41628
41623
41635
41651
41624
41639
41621
41651
41632
41622
41635
41646
41620
41635
41629
41650
41625
41624
41614
41652
41623
41642
41620
41660
41626
41627
41643
41631
41648
41628
41634
41635
41619
41664
41646
41646
41618
41661
41645
41632
41629
41655
41648
41636
41617
41660
41641
41631
41621
41649
41640
41629
41630
41661
41631
41629
41623
41627
41632
41629
41647
41636
41635
41647
41635
41630
41655
41640
41633
41621
41661
41650
41633
41615
41652
41640
41636
41613
41650
41620
41633
41619
41649
41618
41626
41602
41649
41625
41621
41611
41646
41646
41628
41623
41600
41630
41641
41653
41631
41630
41655
41654
41628
41633
41633
41646
41633
41629
41610
41659
41639
41639
41618
41651
41649
41636
41625
41667
41642
41635
41624
41667
41646
41659
41642
41655
41668
41663
41641
41647
41634
41661
41649
41635
41637
41664
41652
41641
41637
41671
41653
41651
41642
41669
41653
41646
41632
41670
41663
41652
41648
41672
41681
41649
41665
41655
41645
41663
41688
41667
41683
41691
41662
41654
41690
41686
41669
41659
41684
41683
41661
41668
41696
41703
41676
41666
41674
41701
41669
41681
41664
41706
41671
41681
41658
41704
41660
41672
41687
41685
41689
41673
41694
41671
41704
41683
41697
41664
41710
41679
41695
41669
41705
41680
41681
41672
41704
41690
41692
41681
41717
41687
41693
41683
41724
41694
41694
41696
41713
41684
41696
41712
41688
41717
41701
41695
41681
41715
41698
41700
41678
41721
41694
41709
41687
41717
41703
41705
41684
41739
41700
41704
41684
41730
41702
41710
41701
41730
41723
41701
41700
41740
41711
41719
41704
41693
41728
41719
41715
41694
41742
41706
41721
41706
41732
41723
41716
41708
41734
41735
41711
41710
41736
41736
41713
41714
41740
41747
41720
41715
41743
41740
41729
41720
41748
41739
41725
41718
41714
41751
41725
41721
41703
41749
41730
41727
41722
41741
41754
41723
41737
41741
41755
41730
41730
41752
41752
41720
41736
41761
41755
41724
41736
41745
41757
41743
41747
41758
41719
41750
41746
41735
41730
41764
41755
41734
41729
41753
41765
41721
41736
41753
41772
41742
41734
41750
41767
41743
41740
41765
41760
41734
41736
41769
41771
41729
41733
41722
41744
41746
41742
41731
41726
41750
41740
41725
41725
41750
41747
41731
41722
41747
41745
41708
41718
41734
41730
41700
41713
41716
41715
41693
41694
41689
41700
41689
41684
41729
41563
41688
41685
41670
41687
41654
41649
41656
41678
41649
41650
41638
41662
41626
41629
41617
41640
41607
41610
41608
41632
41589
41605
41577
41607
41586
41577
41562
41594
41564
41566
41544
41563
41559
41552
41558
41556
41538
41549
41521
41534
41507
41537
41512
41519
41486
41527
41497
41492
41482
41514
41490
41481
41478
41506
41504
41461
41471
41489
41491
41454
41465
41458
41472
41434
41449
41449
41468
41446
41438
41430
41411
41446
41440
41428
41420
41444
41448
41421
41431
41449
41447
41414
41423
41434
41440
41408
41407
41410
41432
41396
41411
41405
41430
41398
41403
41406
41422
41404
41434
41426
41392
41437
41422
41410
41406
41435
41417
41408
41407
41433
41436
41418
41428
41425
41438
41408
41412
41426
41447
41419
41425
41444
41450
41417
41423
41445
41456
41432
41448
41447
41440
41455
41436
41432
41432
41465
41443
41445
41427
41472
41458
41443
41437
41476
41467
41446
41451
41476
41478
41457
41450
41485
41486
41469
41461
41468
41489
41474
41468
41483
41482
41494
41470
41463
41480
41503
41486
41497
41466
41519
41483
41485
41483
41520
41505
41499
41493
41526
41522
41505
41498
41541
41533
41512
41516
41540
41534
41526
41525
41549
41563
41518
41533
41505
41533
41572
41546
41537
41535
41562
41568
41540
41556
41569
41561
41550
41558
41569
41576
41547
41557
41575
41588
41554
41556
41573
41588
41561
41561
41560
41587
41566
41564
41556
41576
41550
41572
41579
41567
41595
41565
41569
41561
41603
41570
41583
41555
41605
41575
41576
41562
41600
41580
41584
41565
41611
41611
41590
41592
41606
41622
41591
41602
41609
41564
41620
41617
41595
41622
41609
41629
41604
41604
41590
41638
41620
41597
41603
41633
41622
41600
41597
41608
41640
41601
41612
41601
41627
41597
41599
41594
41633
41601
41605
41590
41629
41604
41635
41593
41606
41589
41603
41610
41606
41597
41636
41614
41617
41607
41647
41630
41604
41609
41629
41632
41607
41609
41627
41641
41623
41619
41593
41642
41602
41632
41615
41645
41638
41614
41635
41643
41624
41637
41625
41612
41637
41637
41622
41613
41610
41644
41614
41606
41601
41640
41618
41613
41611
41638
41644
41603
41612
41637
41642
41612
41621
41614
41633
41612
41628
41603
41621
41616
41632
41628
41639
41603
41637
41635
41609
41614
41638
41643
41616
41611
41613
41636
41614
41625
41591
41643
41613
41613
41607
41637
41621
41624
41616
41645
41632
41618
41621
41643
41637
41635
41623
41637
41612
41630
41606
41651
41627
41620
41615
41650
41634
41638
41628
41657
41628
41641
41613
41654
41634
41631
41623
41661
41640
41636
41637
41668
41665
41635
41640
41653
41649
41658
41653
41667
41647
41639
41672
41668
41648
41651
41668
41679
41645
41666
41673
41686
41640
41652
41664
41675
41662
41665
41648
41689
41650
41660
41645
41687
41666
41669
41654
41697
41694
41685
41686
41669
41675
41672
41670
41663
41691
41694
41665
41672
41694
41700
41671
41686
41696
41715
41677
41686
41681
41708
41690
41692
41676
41719
41689
41685
41692
41709
41717
41689
41699
41718
41699
41716
41699
41696
41708
41716
41698
41705
41693
41718
41692
41702
41684
41726
41706
41708
41694
41732
41715
41709
41700
41751
41727
41720
41714
41757
41735
41725
41724
41751
41734
41719
41721
41749
41751
41746
41709
41732
41744
41747
41728
41736
41753
41761
41742
41731
41752
41760
41729
41738
41746
41765
41728
41734
41754
41759
41740
41734
41742
41776
41742
41751
41774
41755
41755
41741
41771
41762
41745
41751
41739
41776
41774
41747
41755
41766
41786
41751
41757
41757
41785
41748
41761
41758
41775
41751
41752
41735
41784
41752
41757
41750
41785
41770
41736
41754
41758
41782
41765
41746
41752
41774
41773
41761
41763
41778
41784
41754
41752
41776
41784
41752
41758
41749
41780
41751
41755
41731
41774
41749
41749
41735
41774
41744
41731
41727
41736
41728
41733
41749
41736
41725
41748
41739
41703
41723
41719
41732
41703
41702
41691
41720
41698
41691
41666
41708
41676
41674
41662
41676
41677
41646
41642
41671
41666
41637
41634
41641
41626
41635
41628
41587
41612
41628
41602
41589
41588
41604
41600
41571
41565
41585
41585
41554
41547
41565
41568
41536
41536
41515
41539
41517
41514
41495
41520
41500
41493
41468
41518
41486
41500
41478
41476
41472
41487
41482
41457
41452
41471
41467
41440
41438
41438
41453
41428
41431
41414
41447
41415
41412
41409
41433
41431
41410
41407
41431
41433
41402
41409
41432
41429
41397
41408
41393
41398
41395
41399
41399
41371
41413
41390
41388
41381
41411
41400
41366
41382
41406
41401
41391
41378
41402
41402
41376
41381
41406
41403
41379
41387
41394
41407
41383
41384
41400
41408
41405
41391
41410
41396
41420
41390
41390
41383
41414
41396
41383
41393
41430
41424
41397
41398
41399
41422
41398
41399
41389
41424
41408
41408
41391
41426
41415
41431
41404
41438
41436
41435
41416
41434
41411
41473
41432
41425
41428
41447
41446
41428
41434
41454
41473
41440
41442
41447
41471
41450
41451
41447
41484
41450
41457
41429
41489
41470
41458
41449
41489
41497
41468
41485
41464
41475
41480
41460
41468
41507
41496
41485
41478
41509
41511
41476
41489
41510
41524
41490
41513
41492
41526
41502
41502
41506
41535
41505
41512
41501
41540
41520
41509
41503
41552
41519
41514
41546
41529
41538
41531
41524
41518
41546
41530
41528
41511
41563
41539
41536
41515
41560
41558
41545
41531
41563
41546
41543
41536
41566
41550
41555
41548
41589
41573
41552
41552
41589
41576
41547
41565
41547
41549
41585
41558
41557
41545
41579
41562
41559
41550
41577
41565
41567
41548
41590
41590
41559
41560
41585
41583
41567
41568
41580
41579
41567
41565
41556
41591
41589
41569
41572
41556
41545
41585
41558
41563
41550
41585
41575
41569
41554
41587
41585
41564
41563
41578
41583
41568
41568
41559
41588
41557
41566
41549
41583
41567
41566
41542
41587
41566
41558
41581
41561
41581
41581
41561
41565
41580
41584
41549
41556
41548
41578
41557
41555
41540
41578
41555
41553
41533
41580
41549
41551
41550
41572
41580
41546
41556
41580
41579
41549
41558
41547
41587
41552
41561
41553
41563
41538
41579
41564
41563
41558
41575
41578
41562
41563
41562
41583
41549
41561
41553
41585
41552
41560
41548
41585
41562
41561
41552
41582
41588
41568
41558
41568
41579
41560
41576
41568
41546
41586
41581
41567
41554
41580
41586
41568
41574
41543
41587
41572
41562
41553
41598
41580
41569
41570
41597
41596
41572
41568
41571
41594
41574
41569
41570
41582
41570
41584
41597
41583
41586
41574
41568
41602
41596
41581
41573
41590
41612
41587
41576
41567
41599
41584
41581
41566
41600
41587
41583
41576
41612
41621
41587
41585
41599
41601
41578
41591
41582
41583
41573
41604
41596
41588
41586
41602
41604
41593
41587
41620
41623
41592
41584
41591
41616
41597
41594
41568
41608
41598
41592
41580
41620
41611
41594
41603
41599
41621
41594
41596
41617
41600
41629
41625
41590
41603
41592
41623
41619
41605
41610
41632
41634
41612
41606
41612
41641
41611
41610
41598
41635
41611
41616
41605
41643
41632
41626
41614
41640
41650
41623
41636
41619
41658
41628
41645
41662
41626
41622
41619
41647
41633
41637
41611
41654
41634
41634
41630
41653
41656
41631
41638
41659
41670
41639
41637
41661
41678
41630
41644
41630
41669
41623
41682
41676
41654
41666
41653
41657
41635
41677
41661
41656
41635
41674
41673
41654
41663
41672
41684
41657
41655
41638
41680
41651
41667
41654
41687
41685
41659
41672
41680
41690
41655
41670
41682
41686
41687
41686
41656
41676
41651
41696
41673
41685
41672
41703
41701
41675
41685
41710
41703
41677
41691
41703
41704
41674
41689
41707
41713
41692
41698
41670
41719
41691
41692
41677
41700
41698
41715
41720
41695
41712
41681
41691
41676
41717
41711
41692
41692
41706
41707
41691
41701
41686
41715
41691
41688
41666
41696
41693
41674
41672
41698
41693
41662
41668
41654
41684
41670
41652
41666
41640
41682
41677
41641
41642
41614
41651
41626
41626
41614
41642
41631
41605
41596
41617
41618
41595
41600
41573
41600
41585
41571
41555
41582
41581
41553
41543
41557
41561
41543
41536
41534
41532
41527
41525
41501
41497
41496
41512
41485
41483
41456
41493
41477
41465
41450
41475
41463
41449
41442
41468
41461
41429
41433
41410
41447
41407
41414
41395
41437
41410
41421
41400
41415
41407
41396
41412
41406
41393
41375
41395
41410
41383
41383
41375
41391
41365
41374
41354
41376
41364
41358
41349
41386
41384
41353
41355
41367
41372
41346
41352
41350
41373
41375
41356
41357
41360
41394
41386
41344
41341
41336
41372
41342
41343
41329
41375
41345
41352
41333
41370
41350
41340
41336
41369
41353
41352
41334
41376
41365
41355
41346
41371
41377
41363
41361
41371
41363
41392
41384
41362
41355
41354
41389
41379
41370
41379
41402
41412
41382
41392
41366
41406
41388
41397
41375
41427
41406
41397
41381
41421
41411
41407
41412
41431
41431
41363
41498
41419
41432
41415
41417
41413
41438
41430
41428
41415
41455
41453
41441
41432
41468
41468
41438
41454
41456
41480
41449
41450
41440
41482
41462
41458
41456
41494
41474
41469
41466
41499
41546
41494
41491
41502
41495
41514
41499
41494
41521
41536
41504
41496
41520
41542
41503
41503
41503
41540
41512
41519
41507
41550
41543
41517
41527
41559
41559
41531
41546
41538
41553
41538
41546
41533
41530
41549
41547
41555
41536
41546
41571
41560
41550
41541
41530
41563
41544
41546
41544
41574
41556
41558
41542
41577
41576
41556
41548
41543
41574
41561
41554
41541
41588
41564
41547
41573
41572
41568
41570
41558
41572
41544
41579
41565
41571
41553
41592
41592
41559
41566
41567
41583
41565
41569
41546
41578
41567
41564
41547
41589
41577
41559
41560
41570
41588
41555
41562
41573
41556
41569
41571
41580
41589
41551
41561
41563
41584
41554
41560
41552
41574
41568
41565
41548
41584
41575
41560
41560
41580
41589
41570
41558
41548
41575
41551
41561
41555
41583
41560
41547
41563
41576
41577
41556
41547
41577
41569
41552
41558
41571
41581
41557
41554
41540
41581
41557
41562
41551
41582
41578
41552
41560
41565
41579
41554
41570
41559
41565
41557
41558
41560
41578
41555
41568
41571
41554
41544
41577
41585
41553
41559
41557
41582
41556
41557
41542
41580
41572
41564
41561
41581
41583
41560
41560
41557
41580
41561
41569
41557
41591
41579
41563
41591
41566
41593
41566
41586
41571
41568
41555
41581
41574
41561
41560
41585
41601
41563
41566
41554
41596
41568
41573
41551
41596
41590
41558
41573
41587
41604
41570
41575
41559
41595
41576
41571
41593
41573
41582
41591
41568
41570
41560
41590
41567
41569
41559
41599
41588
41569
41577
41595
41603
41578
41575
41555
41590
41587
41576
41571
41582
41606
41575
41583
41557
41594
41572
41586
41578
41598
41586
41600
41608
41580
41581
41574
41614
41591
41582
41573
41608
41602
41591
41592
41612
41628
41584
41606
41586
41621
41595
41604
41601
41617
41628
41599
41604
41617
41572
41649
41601
41580
41610
41598
41617
41600
41610
41615
41629
41604
41608
41599
41640
41614
41612
41609
41640
41637
41612
41626
41621
41640
41618
41616
41611
41645
41643
41614
41626
41652
41650
41649
41632
41633
41647
41637
41619
41657
41647
41636
41628
41658
41660
41638
41638
41643
41659
41643
41636
41629
41660
41649
41642
41639
41669
41666
41642
41641
41667
41678
41648
41651
41658
41664
41658
41661
41674
41651
41667
41681
41656
41668
41648
41691
41664
41670
41645
41683
41655
41662
41665
41694
41686
41660
41665
41697
41692
41668
41676
41663
41685
41670
41675
41660
41707
41687
41676
41682
41685
41693
41707
41680
41686
41676
41718
41686
41680
41676
41699
41685
41690
41679
41720
41713
41688
41688
41716
41726
41684
41695
41687
41715
41700
41701
41678
41708
41700
41708
41686
41713
41694
41703
41690
41672
41704
41680
41678
41669
41704
41686
41674
41672
41680
41684
41661
41656
41651
41675
41643
41651
41631
41675
41634
41639
41615
41656
41636
41622
41619
41623
41620
41637
41598
41600
41602
41584
41610
41577
41566
41567
41585
41575
41561
41555
41570
41572
41541
41530
41516
41544
41538
41515
41518
41530
41533
41504
41503
41472
41514
41485
41487
41492
41482
41475
41473
41478
41455
41445
41476
41442
41454
41433
41467
41459
41436
41419
41414
41440
41420
41416
41410
41436
41422
41406
41403
41419
41436
41385
41400
41377
41412
41385
41382
41400
41391
41375
41376
41397
41364
41377
41378
41394
41373
41361
41345
41393
41374
41361
41365
41384
41392
41359
41365
41366
41384
41367
41370
41349
41388
41378
41357
41363
41386
41392
41363
41361
41383
41368
41366
41391
41381
41363
41368
41394
41399
41373
41376
41379
41403
41379
41381
41352
41406
41383
41394
41383
41407
41411
41385
41392
41377
41421
41398
41395
41378
41416
41363
41458
41401
41420
41432
41402
41406
41435
41436
41403
41419
41432
41439
41426
41424
41411
41443
41428
41434
41418
41454
41454
41435
41424
41457
41458
41436
41452
41455
41466
41450
41450
41438
41458
41478
41451
41476
41481
41452
41492
41468
41469
41460
41501
41477
41471
41458
41501
41496
41483
41490
41505
41509
41487
41495
41489
41516
41488
41492
41474
41529
41517
41490
41498
41531
41500
41526
41507
41519
41508
41525
41539
41506
41514
41492
41540
41515
41517
41503
41537
41525
41519
41509
41537
41550
41509
41513
41503
41547
41518
41517
41510
41534
41533
41511
41509
41517
41523
41526
41528
41525
41524
41497
41538
41514
41511
41508
41522
41537
41509
41504
41484
41509
41506
41505
41499
41514
41517
41488
41496
41493
41515
41491
41487
41453
41501
41491
41480
41487
41470
41501
41473
41493
41475
41461
41482
41486
41456
41459
41441
41479
41457
41451
41444
41471
41466
41441
41448
41432
41465
41435
41426
41422
41470
41447
41416
41423
41440
41452
41422
41429
41433
41421
41443
41416
41394
41407
41405
41433
41394
41401
41393
41420
41416
41397
41394
41392
41415
41389
41400
41378
41412
41416
41379
41389
41382
41409
41371
41383
41363
41397
41379
41379
41382
41374
41374
41396
41379
41386
41367
41400
41365
41368
41358
41395
41368
41361
41371
41381
41399
41370
41357
41357
41393
41365
41365
41360
41388
41396
41355
41359
41352
41379
41356
41358
41377
41360
41370
41370
41379
41347
41360
41367
41380
41363
41361
41351
41378
41381
41354
41359
41357
41385
41344
41345
41338
41381
41349
41352
41351
41374
41376
41344
41356
41336
41383
41351
41367
41361
41355
41355
41346
41382
41379
41364
41357
41362
41382
41347
41358
41336
41385
41367
41353
41349
41396
41375
41356
41376
41379
41397
41369
41363
41349
41407
41374
41366
41364
41351
41414
41381
41400
41363
41390
41396
41401
41377
41381
41382
41403
41373
41379
41380
41408
41411
41383
41389
41383
41409
41401
41393
41391
41417
41425
41391
41398
41387
41420
41399
41411
41394
41414
41404
41404
41437
41415
41422
41413
41445
41415
41425
41405
41443
41445
41425
41429
41444
41465
41445
41433
41422
41462
41463
41449
41448
41436
41470
41444
41448
41446
41473
41481
41451
41477
41471
41463
41475
41469
41463
41501
41467
41479
41459
41503
41494
41480
41483
41514
41517
41485
41500
41480
41508
41502
41492
41497
41518
41531
41499
41513
41505
41525
41508
41515
41492
41537
41530
41530
41526
41530
41532
41532
41541
41525
41526
41505
41552
41535
41536
41537
41546
41563
41540
41542
41531
41565
41541
41550
41548
41566
41570
41549
41548
41538
41582
41558
41556
41581
41559
41591
41564
41586
41568
41546
41588
41573
41565
41567
41583
41597
41580
41579
41555
41599
41583
41577
41572
41589
41615
41584
41585
41575
41607
41587
41583
41592
41609
41612
41591
41602
41609
41602
41609
41610
41598
41599
41625
41632
41603
41609
41579
41630
41610
41596
41608
41619
41618
41589
41606
41582
41624
41603
41590
41578
41600
41609
41577
41587
41565
41605
41594
41592
41577
41579
41560
41592
41574
41580
41549
41546
41523
41557
41543
41528
41516
41544
41541
41508
41505
41503
41527
41491
41489
41483
41496
41495
41465
41464
41477
41485
41453
41442
41423
41457
41430
41444
41413
41408
41407
41394
41422
41418
41379
41385
41370
41391
41358
41348
41353
41365
41375
41339
41329
41313
41343
41318
41314
41303
41338
41321
41293
41291
41283
41313
41266
41296
41286
41289
41273
41256
41287
41263
41255
41244
41262
41267
41239
41241
41239
41257
41228
41227
41214
41245
41231
41225
41213
41240
41248
41211
41214
41206
41241
41209
41212
41219
41266
41238
41208
41198
41205
41180
41218
41199
41206
41236
41241
41211
41213
41197
41229
41223
41210
41209
41228
41237
41217
41209
41239
41249
41218
41222
41211
41245
41234
41231
41220
41256
41262
41238
41240
41223
41244
41257
41227
41259
41237
41247
41241
41264
41268
41240
41254
41254
41287
41253
41262
41248
41281
41271
41273
41267
41289
41298
41270
41275
41265
41298
41295
41270
41268
41295
41292
41278
41299
41299
41299
41306
41317
41330
41306
41319
41299
41344
41342
41324
41324
41332
41360
41333
41332
41315
41362
41346
41346
41342
41359
41374
41347
41348
41360
41377
41365
41373
41370
41378
41356
41382
41392
41375
41370
41365
41400
41374
41386
41376
41409
41418
41382
41390
41394
41425
41394
41400
41393
41427
41416
41400
41410
41426
41436
41409
41414
41402
41446
41424
41432
41419
41443
41420
41447
41419
41437
41433
41455
41424
41437
41408
41460
41447
41430
41427
41458
41463
41446
41448
41435
41470
41445
41442
41432
41470
41467
41454
41449
41472
41471
41470
41484
41450
41470
41464
41483
41466
41462
41448
41487
41484
41465
41472
41475
41486
41458
41473
41450
41483
41489
41460
41467
41488
41497
41468
41480
41460
41504
41473
41484
41467
41498
41471
41486
41489
41485
41533
41487
41474
41466
41486
41497
41470
41475
41447
41500
41480
41478
41464
41501
41488
41466
41462
41467
41499
41472
41469
41476
41497
41500
41478
41471
41462
41493
41479
41464
41476
41479
41497
41500
41467
41472
41459
41501
41462
41481
41458
41496
41491
41462
41465
41452
41491
41484
41479
41474
41489
41492
41471
41475
41452
41489
41477
41478
41468
41493
41499
41484
41481
41485
41473
41501
41468
41474
41451
41495
41482
41472
41471
41496
41510
41475
41480
41461
41501
41483
41480
41472
41501
41495
41474
41484
41477
41493
41468
41483
41461
41509
41500
41491
41494
41485
41487
41468
41508
41486
41490
41483
41493
41509
41477
41479
41470
41504
41480
41486
41482
41504
41509
41481
41493
41468
41511
41494
41493
41484
41511
41512
41491
41492
41500
41491
41487
41458
41487
41488
41477
41520
41497
41489
41489
41516
41505
41487
41491
41479
41513
41498
41506
41481
41529
41526
41499
41504
41489
41521
41504
41512
41506
41525
41541
41514
41510
41517
41508
41531
41533
41514
41537
41515
41521
41495
41534
41530
41516
41517
41517
41541
41517
41518
41502
41544
41535
41518
41534
41522
41552
41523
41525
41516
41558
41552
41530
41527
41534
41550
41534
41547
41531
41536
41521
41560
41531
41537
41535
41563
41563
41539
41538
41536
41569
41534
41538
41529
41567
41554
41549
41555
41565
41574
41550
41551
41529
41578
41556
41549
41543
41549
41544
41551
41582
41554
41561
41550
41581
41583
41556
41568
41546
41587
41572
41554
41567
41579
41583
41574
41569
41545
41596
41598
41572
41570
41559
41593
41575
41573
41565
41586
41572
41590
41588
41580
41571
41573
41595
41607
41579
41582
41572
41610
41596
41587
41582
41600
41605
41572
41584
41572
41609
41609
41580
41582
41589
41610
41583
41594
41589
41626
41614
41592
41607
41594
41622
41590
41603
41596
41596
41629
41627
41608
41606
41599
41617
41608
41602
41593
41628
41633
41610
41608
41597
41640
41607
41616
41609
41635
41645
41604
41603
41598
41638
41617
41620
41610
41615
41633
41601
41623
41610
41607
41595
41632
41623
41594
41602
41619
41623
41598
41597
41578
41610
41612
41579
41582
41569
41599
41584
41577
41570
41595
41588
41553
41565
41617
41432
41545
41584
41540
41537
41569
41561
41526
41526
41500
41532
41521
41507
41510
41520
41517
41486
41494
41465
41509
41485
41475
41470
41474
41487
41452
41448
41436
41477
41438
41434
41427
41343
41410
41435
41413
41416
41409
41392
41414
41424
41391
41389
41366
41398
41359
41364
41354
41379
41371
41336
41342
41341
41370
41332
41333
41334
41358
41356
41324
41329
41313
41338
41319
41343
41312
41308
41301
41335
41304
41316
41290
41317
41310
41287
41300
41306
41319
41297
41291
41275
41307
41317
41289
41288
41284
41314
41293
41294
41287
41305
41322
41281
41283
41270
41304
41286
41292
41289
41301
41287
41314
41307
41288
41285
41291
41315
41294
41284
41289
41307
41321
41290
41285
41277
41322
41305
41298
41313
41309
41328
41298
41302
41284
41326
41323
41301
41304
41312
41315
41314
41334
41310
41310
41306
41309
41344
41342
41313
41323
41303
41344
41325
41321
41334
41348
41347
41327
41326
41304
41347
41358
41334
41336
41308
41350
41335
41333
41324
41366
41337
41371
41363
41348
41358
41345
41363
41374
41346
41352
41332
41388
41365
41349
41352
41351
41368
41357
41355
41351
41368
41387
41358
41362
41338
41388
41389
41363
41377
41363
41391
41364
41379
41364
41371
41367
41377
41385
41377
41362
41412
41399
41384
41389
41399
41417
41389
41407
41378
41431
41424
41409
41412
41396
41422
41411
41408
41403
41430
41442
41413
41421
41398
41438
41423
41394
41422
41425
41434
41403
41453
41427
41423
41425
41450
41459
41432
41435
41422
41448
41441
41435
41449
41435
41464
41445
41439
41429
41467
41461
41440
41445
41446
41470
41441
41449
41447
41473
41461
41476
41455
41453
41444
41471
41470
41447
41464
41461
41478
41454
41458
41450
41475
41471
41460
41463
41451
41485
41452
41459
41457
41489
41499
41463
41466
41445
41490
41449
41495
41461
41468
41475
41466
41467
41463
41474
41492
41462
41461
41462
41497
41479
41472
41468
41480
41492
41466
41463
41455
41495
41488
41466
41470
41464
41507
41472
41474
41466
41488
41505
41495
41483
41487
41489
41475
41469
41487
41463
41509
41496
41485
41477
41476
41515
41483
41488
41477
41496
41502
41481
41489
41490
41516
41488
41491
41478
41503
41508
41491
41493
41474
41514
41490
41472
41503
41524
41495
41509
41498
41522
41492
41506
41503
41523
41513
41496
41504
41503
41514
41498
41502
41489
41530
41528
41499
41505
41491
41524
41517
41494
41510
41529
41541
41499
41506
41484
41504
41490
41504
41536
41503
41515
41494
41532
41502
41514
41511
41533
41534
41512
41511
41511
41542
41546
41514
41523
41519
41541
41518
41523
41528
41544
41545
41531
41524
41518
41541
41540
41541
41542
41553
41551
41521
41528
41536
41551
41559
41543
41533
41525
41554
41541
41542
41533
41556
41558
41538
41545
41521
41564
41549
41547
41539
41552
41575
41543
41545
41528
41574
41538
41529
41539
41538
41539
41546
41567
41571
41548
41556
41538
41579
41564
41549
41549
41566
41573
41544
41549
41536
41570
41587
41561
41555
41560
41568
41546
41558
41547
41584
41575
41551
41571
41580
41542
41546
41577
41584
41564
41575
41551
41586
41591
41560
41564
41559
41596
41584
41564
41573
41559
41593
41565
41575
41559
41600
41585
41583
41579
41585
41604
41574
41580
41588
41578
41562
41585
41609
41590
41594
41573
41614
41616
41584
41597
41586
41619
41598
41606
41606
41619
41628
41599
41591
41588
41615
41630
41605
41603
41610
41632
41604
41608
41606
41629
41626
41613
41625
41603
41608
41608
41632
41639
41619
41622
41608
41650
41644
41611
41630
41630
41649
41622
41631
41623
41638
41651
41630
41639
41628
41657
41661
41631
41641
41619
41669
41629
41649
41671
41646
41646
41658
41664
41635
41643
41632
41672
41660
41652
41647
41656
41666
41643
41649
41638
41670
41667
41652
41653
41651
41674
41646
41651
41633
41675
41672
41641
41654
41632
41649
41656
41652
41631
41660
41647
41652
41659
41636
41632
41605
41651
41634
41625
41619
41633
41645
41615
41615
41600
41636
41623
41600
41604
41578
41617
41597
41588
41578
41598
41603
41576
41571
41559
41552
41558
41569
41554
41540
41543
41553
41548
41529
41523
41508
41542
41522
41509
41507
41511
41515
41482
41486
41457
41501
41476
41457
41459
41456
41473
41442
41449
41432
41465
41424
41433
41429
41414
41420
41424
41420
41399
41403
41379
41410
41411
41385
41382
41367
41407
41377
41361
41354
41386
41383
41344
41357
41326
41362
41358
41340
41334
41354
41358
41328
41334
41338
41350
41316
41337
41314
41324
41311
41341
41323
41315
41310
41339
41335
41309
41306
41291
41337
41321
41309
41313
41326
41333
41309
41307
41298
41329
41325
41315
41308
41311
41326
41302
41303
41330
41314
41317
41309
41321
41294
41304
41309
41321
41309
41308
41312
41309
41336
41313
41314
41304
41343
41333
41301
41320
41291
41338
41335
41316
41320
41317
41350
41325
41323
41321
41318
41345
41335
41328
41359
41326
41329
41323
41355
41363
41335
41344
41337
41362
41340
41347
41340
41370
41369
41337
41352
41331
41372
41374
41356
41363
41370
41383
41359
41365
41360
41389
41382
41389
41374
41389
41378
41365
41400
41401
41386
41392
41383
41415
41398
41402
41404
41418
41420
41402
41401
41393
41429
41430
41406
41410
41416
41445
41423
41415
41428
41454
41443
41435
41442
41464
41441
41451
41440
41434
41462
41480
41447
41459
41441
41479
41481
41451
41450
41442
41472
41469
41458
41460
41487
41488
41464
41466
41452
41501
41472
41475
41477
41499
41496
41435
41500
41475
41474
41457
41481
41479
41473
41494
41509
41481
41484
41461
41509
41487
41473
41483
41493
41498
41479
41490
41475
41508
41489
41487
41487
41492
41518
41486
41488
41492
41508
41526
41500
41490
41500
41489
41486
41517
41516
41485
41496
41477
41517
41503
41485
41494
41503
41519
41493
41505
41482
41523
41525
41496
41502
41482
41525
41496
41502
41495
41516
41518
41502
41497
41507
41500
41500
41492
41495
41500
41497
41499
41516
41522
41502
41499
41496
41525
41517
41495
41501
41488
41526
41514
41501
41510
41531
41533
41511
41506
41484
41524
41521
41497
41513
41487
41501
41507
41535
41508
41508
41513
41530
41537
41502
41511
41496
41525
41536
41504
41509
41499
41538
41539
41506
41509
41527
41540
41510
41508
41486
41532
41528
41506
41520
41500
41533
41511
41496
41507
41503
41518
41513
41526
41508
41522
41520
41533
41507
41521
41505
41534
41538
41515
41514
41511
41540
41541
41510
41526
41518
41546
41508
41510
41522
41531
41545
41514
41524
41503
41546
41514
41531
41526
41513
41529
41520
41526
41542
41527
41528
41520
41552
41545
41526
41529
41516
41562
41530
41530
41533
41533
41561
41536
41533
41525
41564
41565
41534
41541
41535
41562
41547
41540
41555
41557
41575
41548
41551
41556
41542
41562
41558
41551
41543
41561
41595
41552
41561
41545
41590
41587
41556
41562
41549
41583
41558
41560
41558
41576
41589
41563
41565
41550
41589
41564
41591
41571
41571
41570
41563
41599
41596
41577
41581
41568
41598
41577
41576
41569
41596
41603
41575
41569
41558
41616
41587
41574
41583
41574
41601
41592
41577
41594
41604
41608
41607
41594
41613
41584
41585
41604
41611
41587
41581
41581
41610
41624
41590
41597
41587
41617
41597
41599
41579
41622
41621
41595
41601
41578
41625
41608
41604
41605
41610
41634
41599
41608
41678
41614
41615
41628
41614
41595
41640
41629
41614
41622
41606
41637
41630
41619
41620
41623
41647
41613
41624
41624
41647
41657
41629
41629
41623
41652
41657
41628
41637
41625
41664
41652
41678
41625
41629
41643
41662
41665
41652
41635
41639
41665
41682
41641
41648
41635
41670
41676
41633
41647
41647
41672
41676
41648
41647
41638
41685
41671
41650
41659
41673
41681
41655
41655
41682
41650
41657
41644
41647
41658
41655
41649
41681
41658
41650
41644
41677
41674
41641
41645
41641
41664
41656
41626
41641
41629
41662
41639
41633
41631
41651
41650
41609
41615
41600
41633
41628
41606
41617
41604
41621
41574
41604
41580
41570
41569
41569
41580
41557
41545
41548
41544
41563
41528
41529
41522
41543
41541
41508
41500
41488
41525
41510
41480
41482
41458
41491
41481
41439
41457
41424
41454
41452
41458
41425
41417
41401
41415
41428
41391
41396
41383
41416
41404
41374
41362
41336
41378
41347
41342
41350
41352
41356
41326
41334
41316
41327
41337
41308
41305
41313
41322
41314
41300
41452
41294
41274
41292
41308
41277
41273
41255
41288
41270
41262
41265
41257
41282
41260
41255
41253
41267
41279
41249
41248
41226
41270
41252
41242
41243
41246
41265
41266
41232
41252
41262
41252
41218
41262
41256
41247
41242
41244
41266
41250
41250
41246
41262
41265
41235
41249
41239
41276
41264
41238
41248
41235
41272
41263
41248
41264
41247
41283
41277
41254
41246
41278
41268
41262
41250
41251
41285
41281
41261
41270
41277
41297
41286
41281
41262
41302
41296
41278
41286
41268
41319
41304
41286
41292
41291
41320
41307
41296
41305
41279
41317
41285
41312
41305
41307
41306
41331
41345
41308
41312
41308
41344
41343
41326
41332
41333
41345
41335
41332
41330
41360
41369
41329
41345
41334
41374
41377
41352
41352
41348
41391
41376
41317
41413
41361
41383
41390
41387
41374
41385
41353
41407
41415
41385
41386
41372
41423
41405
41391
41395
41402
41428
41399
41399
41396
41419
41427
41409
41400
41406
41437
41441
41418
41417
41396
41413
41413
41410
41436
41422
41421
41409
41458
41440
41425
41431
41425
41450
41425
41422
41422
41441
41454
41419
41430
41416
41456
41451
41425
41432
41414
41447
41433
41427
41428
41419
41451
41426
41439
41414
41449
41427
41406
41447
41451
41412
41425
41413
41442
41444
41425
41416
41406
41445
41422
41422
41425
41434
41430
41407
41411
41410
41432
41433
41411
41408
41396
41429
41426
41412
41424
41421
41412
41412
41404
41409
41392
41418
41431
41397
41400
41374
41414
41398
41397
41396
41404
41414
41389
41401
41368
41404
41399
41376
41382
41371
41401
41391
41388
41375
41374
41367
41395
41380
41391
41375
41360
41397
41371
41378
41357
41385
41382
41371
41376
41360
41392
41395
41364
41371
41350
41391
41391
41368
41367
41351
41386
41392
41356
41366
41355
41391
41373
41364
41361
41359
41341
41365
41377
41361
41369
41358
41392
41375
41370
41379
41361
41398
41376
41377
41370
41379
41405
41374
41377
41373
41397
41404
41370
41374
41361
41402
41397
41380
41382
41391
41393
41406
41375
41395
41377
41382
41367
41413
41413
41382
41396
41369
41409
41384
41393
41389
41407
41420
41392
41396
41376
41421
41435
41393
41401
41384
41419
41417
41404
41404
41400
41392
41414
41392
41419
41422
41412
41413
41409
41429
41418
41407
41404
41440
41444
41420
41421
41398
41435
41438
41413
41428
41413
41452
41435
41433
41431
41435
41455
41428
41428
41431
41458
41447
41434
41454
41451
41440
41426
41470
41467
41444
41448
41440
41477
41460
41455
41452
41472
41474
41446
41460
41453
41471
41482
41469
41461
41445
41490
41480
41467
41473
41488
41490
41458
41527
41463
41483
41491
41495
41464
41505
41496
41484
41481
41482
41499
41488
41471
41488
41502
41514
41482
41485
41486
41515
41519
41495
41488
41475
41522
41507
41501
41509
41506
41537
41508
41527
41503
41506
41509
41535
41498
41535
41533
41510
41525
41504
41545
41545
41517
41516
41518
41545
41526
41519
41525
41526
41552
41521
41540
41526
41556
41560
41525
41538
41516
41559
41564
41529
41542
41537
41565
41541
41565
41557
41535
41552
41549
41578
41562
41548
41549
41544
41561
41549
41555
41555
41584
41586
41554
41565
41547
41583
41583
41562
41560
41557
41590
41578
41553
41561
41548
41561
41567
41564
41562
41560
41588
41580
41563
41567
41567
41580
41595
41562
41559
41548
41579
41588
41550
41565
41544
41581
41581
41561
41563
41538
41572
41563
41556
41557
41548
41553
41559
41541
41569
41539
41530
41562
41543
41522
41532
41533
41546
41523
41514
41511
41513
41528
41494
41498
41488
41500
41512
41471
41478
41447
41502
41488
41464
41463
41450
41475
41454
41447
41458
41459
41437
41439
41442
41418
41400
41406
41390
41418
41391
41382
41380
41372
41392
41361
41362
41354
41359
41364
41345
41333
41330
41341
41341
41318
41310
41318
41325
41320
41294
41324
41294
41310
41285
41287
41272
41274
41255
41286
41287
41263
41257
41246
41276
41277
41245
41246
41223
41258
41256
41235
41238
41213
41254
41240
41231
41237
41211
41243
41242
41220
41216
41232
41229
41226
41233
41232
41222
41213
41208
41236
41231
41214
41210
41199
41228
41218
41210
41217
41213
41253
41224
41209
41230
41232
41252
41221
41222
41219
41232
41239
41219
41226
41216
41284
41241
41232
41234
41230
41222
41235
41234
41255
41240
41245
41231
41267
41259
41239
41248
41226
41260
41276
41243
41251
41249
41284
41276
41257
41256
41236
41294
41280
41254
41263
41265
41340
41271
41279
41298
41287
41274
41275
41280
41278
41309
41291
41281
41288
41285
41316
41297
41296
41294
41308
41326
41293
41302
41304
41327
41331
41308
41321
41315
41335
41348
41331
41328
41340
41335
41357
41339
41350
41359
41341
41341
41341
41374
41350
41343
41363
41362
41388
41359
41370
41354
41377
41395
41370
41382
41366
41407
41403
41376
41381
41386
41411
41410
41388
41391
41396
41409
41389
41401
41420
41406
41404
41412
41430
41414
41415
41418
41413
41436
41416
41423
41419
41427
41446
41433
41430
41424
41433
41462
41442
41439
41436
41452
41459
41440
41434
41448
41435
41434
41446
41439
41443
41435
41463
41469
41445
41450
41446
41468
41472
41451
41450
41439
41476
41479
41449
41453
41440
41470
41483
41453
41455
41439
41482
41479
41462
41449
41438
41488
41448
41461
41460
41487
41465
41450
41484
41482
41455
41465
41461
41484
41462
41464
41459
41461
41488
41456
41458
41465
41464
41485
41467
41471
41454
41465
41480
41460
41464
41465
41458
41483
41496
41478
41464
41475
41470
41472
41445
41483
41478
41461
41466
41450
41479
41471
41463
41468
41475
41482
41456
41466
41463
41467
41494
41461
41453
41461
41453
41491
41475
41461
41469
41455
41474
41487
41473
41488
41479
41464
41480
41472
41461
41477
41471
41489
41475
41473
41470
41471
41490
41466
41470
41477
41483
41490
41460
41474
41465
41469
41500
41471
41478
41464
41502
41505
41492
41466
41456
41485
41479
41464
41505
41505
41479
41484
41465
41505
41494
41475
41474
41478
41501
41493
41483
41488
41486
41510
41499
41475
41495
41482
41509
41502
41491
41497
41485
41505
41543
41502
41502
41493
41498
41507
41527
41501
41509
41495
41514
41526
41502
41497
41492
41520
41532
41500
41507
41506
41515
41533
41512
41511
41494
41526
41544
41506
41507
41498
41528
41535
41543
41527
41526
41524
41543
41545
41530
41526
41531
41538
41536
41519
41531
41530
41541
41550
41523
41533
41531
41554
41555
41532
41532
41528
41562
41564
41533
41540
41533
41562
41571
41548
41527
41535
41542
41537
41553
41570
41544
41558
41540
41570
41588
41551
41553
41546
41583
41575
41562
41565
41545
41587
41574
41570
41562
41569
41589
41565
41563
41573
41572
41590
41567
41574
41566
41555
41564
41603
41587
41577
41576
41603
41607
41580
41586
41567
41613
41612
41588
41596
41578
41604
41605
41594
41599
41594
41621
41595
41596
41601
41628
41632
41602
41612
41610
41625
41605
41625
41636
41611
41641
41628
41613
41614
41622
41635
41633
41615
41616
41612
41645
41650
41627
41633
41621
41653
41656
41619
41627
41613
41647
41653
41634
41627
41616
41650
41666
41639
41648
41661
41635
41632
41652
41635
41632
41644
41639
41665
41654
41638
41648
41620
41658
41652
41635
41649
41644
41662
41645
41643
41652
41633
41663
41646
41630
41643
41653
41668
41635
41638
41638
41651
41633
41658
41642
41631
41623
41652
41650
41618
41618
41607
41627
41635
41603
41608
41603
41615
41629
41604
41591
41594
41599
41619
41573
41574
41574
41583
41591
41552
41564
41543
41576
41545
41567
41525
41533
41531
41523
41506
41538
41514
41514
41498
41522
41522
41485
41482
41478
41496
41501
41464
41461
41452
41474
41481
41435
41443
41438
41446
41448
41412
41423
41427
41423
41441
41397
41404
41406
41395
41389
41386
41406
41376
41373
41371
41367
41387
41360
41349
41354
41352
41369
41348
41345
41339
41350
41363
41327
41335
41323
41353
41353
41315
41318
41427
41291
41306
41337
41317
41319
41341
41305
41307
41301
41330
41325
41305
41305
41276
41328
41317
41301
41296
41277
41321
41298
41296
41303
41298
41319
41296
41300
41301
41297
41319
41302
41297
41291
41312
41296
41319
41307
41295
41288
41325
41324
41298
41297
41300
41323
41334
41294
41300
41293
41331
41329
41311
41300
41292
41329
41336
41310
41321
41295
41343
41344
41320
41319
41319
41328
41322
41329
41353
41332
41332
41315
41362
41364
41328
41340
41314
41370
41363
41341
41351
41333
41378
41357
41353
41363
41353
41390
41373
41359
41370
41367
41389
41368
41373
41381
41392
41359
41378
41356
41388
41415
41385
41372
41416
41415
41404
41403
41377
41423
41418
41407
41407
41417
41434
41410
41414
41405
41442
41450
41423
41438
41416
41449
41447
41430
41438
41420
41469
41465
41469
41447
41442
41444
41436
41473
41466
41441
41458
41436
41464
41476
41437
41460
41443
41477
41491
41463
41465
41463
41493
41504
41471
41478
41463
41495
41498
41478
41476
41462
41502
41496
41489
41492
41474
41471
41487
41474
41498
41512
41490
41485
41474
41497
41509
41483
41486
41477
41501
41521
41480
41488
41484
41523
41509
41487
41498
41472
41512
41502
41485
41496
41479
41489
41514
41473
41523
41501
41482
41495
41486
41520
41498
41492
41491
41481
41512
41509
41479
41498
41466
41511
41507
41480
41490
41484
41514
41487
41490
41499
41479
41515
41490
41486
41492
41478
41488
41499
41508
41488
41516
41491
41492
41484
41475
41508
41481
41483
41477
41503
41503
41475
41485
41478
41483
41501
41478
41479
41469
41506
41509
41475
41489
41461
41510
41510
41477
41499
41487
41510
41483
41506
41505
41483
41479
41471
41496
41500
41477
41473
41469
41504
41504
41474
41489
41467
41509
41507
41474
41483
41473
41505
41509
41476
41488
41479
41512
41509
41477
41524
41472
41476
41490
41506
41511
41492
41483
41474
41512
41508
41486
41481
41485
41502
41510
41489
41485
41486
41504
41523
41485
41483
41482
41509
41520
41494
41492
41494
41496
41518
41498
41524
41498
41476
41499
41510
41497
41513
41523
41494
41501
41495
41522
41517
41503
41502
41489
41528
41528
41496
41504
41491
41522
41530
41494
41507
41499
41526
41529
41503
41523
41494
41542
41503
41530
41513
41516
41525
41516
41540
41521
41511
41522
41494
41541
41538
41512
41520
41502
41537
41527
41526
41522
41518
41551
41525
41521
41521
41521
41537
41526
41520
41531
41541
41548
41546
41528
41533
41546
41530
41544
41532
41519
41562
41532
41537
41544
41540
41554
41527
41540
41543
41548
41565
41547
41534
41546
41549
41568
41549
41538
41545
41542
41575
41550
41539
41548
41568
41551
41530
41549
41516
41587
41554
41554
41544
41579
41576
41551
41557
41553
41584
41582
41562
41559
41542
41587
41569
41560
41572
41554
41590
41576
41555
41568
41550
41589
41583
41565
41554
41552
41573
41543
41516
41565
41574
41568
41575
41594
41582
41578
41581
41579
41587
41575
41564
41576
41574
41596
41568
41572
41572
41570
41604
41580
41571
41573
41569
41600
41580
41579
41599
41581
41601
41569
41621
41607
41576
41578
41564
41598
41605
41576
41574
41564
41599
41609
41579
41581
41563
41606
41597
41579
41588
41578
41607
41587
41573
41579
41592
41598
41576
41586
41596
41592
41597
41570
41595
41563
41570
41544
41593
41591
41568
41571
41548
41582
41577
41564
41555
41532
41573
41565
41544
41546
41536
41573
41552
41533
41527
41510
41548
41547
41514
41523
41502
41519
41506
41495
41512
41483
41478
41461
41496
41490
41469
41464
41447
41488
41469
41439
41445
41423
41455
41438
41416
41430
41393
41429
41397
41394
41385
41380
41396
41369
41360
41523
41262
41366
41363
41353
41352
41359
41360
41328
41321
41304
41332
41312
41306
41300
41310
41309
41275
41280
41258
41296
41297
41252
41265
41240
41276
41283
41243
41240
41224
41258
41257
41220
41262
41230
41234
41217
41228
41216
41238
41237
41208
41214
41193
41236
41230
41198
41207
41191
41214
41222
41197
41196
41186
41217
41213
41188
41195
41183
41212
41185
41183
41176
41210
41218
41177
41186
41192
41190
41197
41220
41186
41198
41164
41234
41209
41197
41190
41169
41218
41210
41190
41201
41169
41223
41210
41202
41204
41193
41225
41223
41202
41218
41198
41239
41218
41205
41204
41236
41211
41213
41222
41219
41219
41219
41228
41241
41224
41221
41228
41239
41251
41234
41229
41227
41257
41259
41237
41239
41226
41261
41263
41249
41247
41250
41279
41278
41261
41262
41260
41263
41266
41276
41264
41273
41271
41263
41306
41275
41284
41282
41292
41305
41285
41289
41303
41305
41310
41299
41300
41302
41315
41330
41304
41300
41317
41316
41335
41313
41316
41320
41316
41349
41315
41319
41329
41350
41326
41334
41328
41350
41353
41339
41339
41341
41354
41371
41334
41345
41337
41367
41388
41341
41353
41334
41386
41379
41351
41371
41353
41384
41375
41368
41385
41365
41366
41365
41397
41396
41355
41373
41357
41393
41401
41371
41384
41371
41393
41399
41376
41380
41377
41410
41409
41371
41386
41380
41408
41405
41383
41386
41367
41405
41417
41384
41410
41410
41395
41387
41411
41415
41388
41395
41389
41404
41416
41389
41390
41391
41406
41403
41384
41401
41385
41408
41415
41385
41386
41379
41414
41411
41389
41385
41378
41420
41415
41389
41421
41388
41421
41395
41375
41421
41409
41392
41402
41382
41413
41420
41397
41391
41383
41419
41418
41388
41392
41379
41419
41416
41396
41403
41384
41423
41418
41395
41396
41395
41415
41389
41421
41406
41398
41408
41412
41399
41390
41396
41414
41425
41399
41405
41403
41422
41432
41397
41405
41394
41402
41422
41397
41407
41403
41408
41424
41400
41397
41402
41415
41426
41402
41391
41421
41395
41424
41412
41411
41425
41401
41394
41403
41423
41428
41405
41402
41400
41428
41426
41408
41407
41398
41430
41428
41408
41399
41405
41421
41442
41416
41414
41403
41440
41434
41415
41417
41426
41440
41430
41409
41439
41414
41423
41401
41436
41441
41415
41419
41405
41439
41449
41414
41428
41407
41443
41436
41422
41429
41408
41448
41442
41434
41437
41407
41466
41448
41423
41448
41439
41461
41439
41468
41455
41427
41442
41429
41452
41465
41434
41453
41435
41467
41452
41439
41449
41427
41480
41478
41447
41461
41437
41471
41479
41448
41456
41438
41481
41478
41460
41493
41460
41468
41462
41457
41476
41465
41470
41455
41493
41479
41470
41469
41453
41506
41503
41480
41463
41470
41499
41505
41484
41480
41465
41498
41507
41481
41493
41479
41513
41508
41492
41492
41523
41514
41501
41505
41499
41486
41535
41511
41493
41505
41498
41531
41522
41513
41507
41496
41534
41521
41513
41507
41489
41539
41531
41518
41526
41515
41540
41546
41526
41526
41515
41546
41550
41509
41530
41532
41552
41553
41523
41535
41517
41564
41558
41539
41539
41513
41563
41556
41544
41545
41520
41570
41569
41539
41548
41532
41575
41569
41540
41556
41544
41575
41577
41576
41570
41565
41583
41550
41549
41572
41569
41559
41564
41534
41575
41575
41550
41554
41554
41582
41596
41565
41565
41552
41596
41597
41562
41565
41551
41586
41588
41566
41566
41547
41577
41520
41568
41588
41554
41594
41565
41557
41600
41568
41563
41561
41568
41579
41567
41551
41562
41569
41579
41558
41553
41546
41551
41575
41552
41541
41555
41544
41563
41547
41538
41527
41516
41419
41518
41520
41535
41518
41507
41506
41514
41523
41495
41503
41499
41493
41507
41482
41485
41475
41462
41485
41474
41460
41445
41462
41463
41439
41446
41429
41415
41448
41433
41414
41404
41419
41415
41432
41381
41413
41394
41384
41380
41369
41388
41382
41356
41354
41336
41377
41376
41338
41341
41320
41356
41349
41322
41319
41303
41335
41335
41306
41307
41284
41328
41314
41292
41292
41294
41280
41300
41288
41282
41302
41276
41270
41277
41248
41291
41286
41264
41258
41242
41284
41284
41257
41261
41248
41283
41285
41243
41262
41241
41268
41274
41251
41249
41248
41267
41253
41266
41255
41249
41285
41276
41270
41248
41269
41236
41275
41282
41256
41260
41251
41289
41287
41264
41275
41259
41277
41293
41261
41271
41262
41269
41296
41273
41275
41275
41276
41297
41274
41305
41291
41310
41298
41291
41288
41281
41294
41320
41300
41299
41297
41289
41320
41306
41306
41313
41288
41337
41343
41320
41321
41306
41332
41348
41316
41318
41329
41307
41348
41337
41333
41342
41327
41328
41354
41336
41344
41342
41354
41375
41361
41351
41354
41345
41382
41384
41354
41360
41352
41393
41386
41374
41380
41358
41408
41409
41387
41379
41371
41419
41417
41394
41382
41398
41406
41403
41420
41424
41433
41409
41411
41408
41414
41442
41434
41420
41426
41406
41453
41447
41430
41431
41410
41459
41455
41430
41447
41434
41452
41458
41440
41443
41436
41448
41440
41456
41464
41457
41475
41440
41454
41441
41475
41479
41448
41461
41440
41482
41486
41457
41447
41452
41473
41481
41465
41458
41468
41456
41497
41466
41466
41461
41455
41486
41481
41448
41490
41455
41466
41483
41484
41493
41470
41469
41452
41497
41496
41467
41475
41457
41486
41490
41476
41464
41472
41450
41488
41480
41468
41468
41449
41494
41502
41465
41472
41469
41487
41495
41463
41476
41484
41465
41466
41453
41491
41505
41464
41473
41461
41491
41499
41468
41471
41466
41464
41495
41481
41460
41468
41454
41487
41489
41472
41476
41469
41489
41498
41467
41466
41449
41463
41490
41471
41483
41438
41490
41468
41469
41467
41471
41486
41487
41459
41475
41457
41490
41507
41461
41475
41470
41501
41502
41471
41467
41477
41485
41489
41470
41475
41478
41486
41498
41484
41486
41488
41498
41486
41509
41503
41478
41479
41463
41507
41510
41474
41476
41482
41506
41515
41482
41483
41479
41515
41503
41483
41486
41483
41496
41514
41483
41492
41491
41472
41506
41478
41509
41502
41480
41514
41528
41505
41497
41510
41487
41530
41521
41512
41513
41502
41539
41530
41513
41518
41503
41541
41536
41515
41513
41511
41517
41546
41521
41509
41520
41499
41549
41537
41523
41507
41533
41549
41520
41515
41526
41548
41553
41532
41540
41533
41532
41561
41534
41542
41540
41547
41556
41551
41546
41542
41547
41556
41557
41556
41547
41527
41575
41577
41553
41574
41560
41573
41544
41538
41556
41585
41568
41555
41559
41553
41594
41587
41560
41569
41554
41586
41594
41572
41579
41580
41585
41604
41570
41581
41586
41584
41607
41583
41579
41595
41575
41599
41594
41605
41599
41604
41590
41601
41581
41623
41629
41607
41594
41596
41631
41631
41605
41614
41606
41614
41635
41609
41606
41617
41604
41642
41623
41621
41627
41613
41642
41639
41620
41633
41615
41645
41617
41624
41659
41654
41635
41638
41615
41662
41663
41641
41636
41643
41668
41666
41650
41645
41640
41644
41661
41655
41652
41650
41661
41681
41657
41648
41653
41655
41620
41669
41671
41658
41671
41668
41657
41659
41663
41635
41676
41666
41653
41658
41638
41680
41686
41655
41666
41643
41684
41672
41656
41665
41654
41686
41677
41658
41660
41664
41662
41685
41671
41645
41647
41659
41685
41662
41673
41667
41640
41677
41677
41658
41666
41658
41682
41687
41661
41663
41655
41680
41686
41661
41660
41648
41650
41670
41645
41656
41650
41636
41670
41640
41638
41645
41637
41641
41625
41637
41618
41610
41602
41639
41637
41604
41601
41593
41615
41602
41581
41587
41569
41574
41598
41567
41561
41555
41544
41571
41565
41547
41531
41519
41545
41539
41518
41514
41535
41501
41527
41498
41509
41476
41470
41468
41475
41484
41453
41443
41433
41438
41456
41444
41439
41423
41401
41439
41434
41406
41407
41394
41419
41418
41382
41388
41371
41395
41401
41384
41372
41373
41372
41363
41330
41366
41375
41351
41337
41333
41363
41348
41332
41321
41316
41326
41340
41313
41313
41317
41307
41336
41320
41307
41310
41287
41321
41329
41300
41302
41290
41312
41290
41303
41304
41303
41306
41310
41294
41292
41290
41283
41319
41296
41283
41291
41274
41321
41321
41293
41291
41280
41315
41319
41283
41287
41294
41304
41320
41294
41298
41297
41286
41298
41308
41307
41308
41317
41313
41296
41299
41291
41327
41333
41307
41302
41298
41335
41344
41305
41310
41311
41319
41343
41313
41307
41314
41298
41343
41354
41324
41315
41312
41352
41339
41326
41345
41339
41326
41324
41338
41322
41364
41372
41342
41350
41341
41356
41370
41354
41345
41354
41345
41378
41375
41360
41368
41351
41388
41379
41365
41374
41367
41386
41389
41369
41384
41388
41387
41366
41382
41393
41373
41414
41413
41389
41399
41385
41424
41428
41402
41408
41404
41403
41428
41414
41414
41423
41412
41447
41456
41425
41418
41412
41448
41458
41425
41419
41384
41473
41444
41432
41424
41440
41431
41450
41470
41431
41439
41447
41450
41458
41451
41443
41446
41431
41480
41481
41450
41450
41446
41469
41473
41457
41462
41461
41455
41475
41483
41455
41467
41473
41448
41471
41469
41504
41470
41483
41471
41458
41461
41455
41497
41481
41473
41466
41457
41493
41500
41470
41476
41473
41458
41496
41492
41468
41474
41460
41486
41497
41473
41471
41464
41468
41496
41490
41505
41494
41479
41473
41475
41478
41498
41491
41468
41483
41467
41491
41496
41473
41477
41465
41505
41500
41480
41477
41471
41492
41495
41483
41478
41472
41479
41496
41499
41470
41502
41500
41487
41491
41472
41472
41473
41466
41497
41481
41464
41484
41455
41502
41497
41464
41469
41461
41495
41501
41466
41462
41474
41464
41492
41506
41479
41470
41462
41481
41497
41465
41493
41473
41490
41476
41470
41467
41467
41492
41494
41465
41479
41483
41461
41494
41487
41467
41471
41458
41499
41498
41477
41478
41464
41496
41499
41471
41469
41471
41464
41501
41500
41490
41508
41484
41476
41470
41500
41508
41485
41487
41476
41500
41507
41482
41474
41483
41474
41504
41495
41488
41498
41465
41511
41515
41479
41492
41482
41512
41513
41482
41491
41489
41479
41483
41513
41500
41494
41520
41521
41493
41493
41497
41505
41512
41489
41485
41496
41492
41515
41503
41490
41494
41486
41518
41525
41493
41495
41496
41482
41526
41521
41495
41507
41489
41526
41505
41514
41525
41498
41548
41508
41512
41512
41488
41531
41532
41507
41513
41497
41531
41543
41521
41510
41510
41546
41537
41518
41517
41522
41518
41545
41539
41514
41528
41515
41549
41558
41544
41530
41514
41530
41538
41533
41530
41526
41554
41557
41526
41536
41521
41561
41559
41544
41527
41532
41536
41565
41546
41532
41553
41528
41567
41558
41543
41549
41536
41569
41569
41558
41596
41530
41562
41558
41565
41580
41553
41557
41562
41559
41578
41553
41557
41565
41551
41579
41574
41572
41561
41556
41590
41587
41564
41562
41561
41578
41595
41579
41573
41574
41555
41603
41596
41566
41608
41603
41578
41579
41572
41586
41601
41577
41583
41584
41566
41614
41611
41576
41575
41581
41578
41610
41594
41584
41590
41567
41607
41616
41580
41585
41593
41583
41614
41600
41591
41604
41589
41610
41582
41587
41632
41617
41587
41600
41601
41596
41630
41600
41579
41600
41582
41627
41628
41592
41603
41598
41607
41619
41599
41595
41602
41586
41618
41611
41583
41590
41599
41612
41600
41587
41583
41601
41583
41578
41576
41562
41593
41592
41562
41564
41560
41596
41583
41554
41557
41546
41551
41558
41558
41534
41542
41517
41552
41555
41516
41520
41505
41523
41513
41489
41492
41485
41499
41485
41482
41498
41486
41470
41461
41458
41453
41474
41465
41432
41430
41426
41448
41445
41416
41405
41409
41407
41418
41394
41385
41388
41363
41403
41395
41360
41367
41377
41372
41344
41499
41335
41342
41360
41347
41324
41324
41316
41322
41324
41309
41300
41297
41288
41310
41310
41279
41287
41269
41277
41294
41287
41271
41265
41244
41283
41285
41260
41274
41264
41261
41263
41253
41241
41245
41238
41263
41241
41232
41232
41203
41252
41252
41234
41221
41225
41240
41251
41226
41219
41227
41205
41249
41245
41203
41215
41215
41234
41237
41233
41226
41219
41203
41222
41224
41224
41231
41203
41243
41243
41216
41209
41209
41224
41249
41231
41211
41217
41209
41247
41246
41226
41212
41224
41204
41248
41254
41236
41241
41224
41240
41251
41252
41223
41267
41246
41235
41247
41227
41271
41266
41248
41250
41258
41239
41270
41265
41246
41250
41240
41277
41275
41254
41255
41258
41274
41291
41270
41266
41273
41258
41299
41290
41251
41328
41283
41282
41294
41295
41300
41289
41293
41289
41288
41314
41310
41302
41302
41284
41321
41328
41312
41303
41301
41308
41333
41341
41316
41320
41307
41346
41348
41319
41334
41338
41322
41328
41359
41327
41353
41354
41341
41337
41372
41369
41354
41351
41337
41374
41384
41353
41358
41354
41374
41387
41363
41370
41361
41353
41398
41390
41369
41373
41372
41370
41389
41376
41371
41378
41383
41381
41368
41375
41373
41383
41360
41400
41405
41377
41387
41383
41363
41411
41417
41390
41399
41382
41413
41408
41387
41388
41394
41397
41415
41400
41391
41405
41383
41424
41421
41407
41417
41414
41397
41405
41412
41394
41414
41382
41417
41430
41401
41403
41392
41432
41429
41406
41406
41403
41405
41425
41409
41403
41404
41396
41425
41434
41406
41409
41396
41424
41427
41403
41408
41427
41401
41439
41393
41398
41389
41430
41435
41402
41403
41395
41424
41435
41404
41405
41406
41396
41425
41422
41399
41407
41398
41432
41420
41405
41407
41401
41418
41429
41404
41402
41419
41418
41416
41404
41385
41437
41423
41409
41412
41409
41419
41435
41416
41417
41408
41393
41433
41433
41414
41412
41411
41416
41439
41425
41410
41417
41396
41434
41431
41408
41410
41412
41427
41422
41415
41422
41412
41413
41417
41445
41430
41415
41426
41403
41451
41444
41411
41425
41427
41398
41447
41449
41410
41416
41420
41436
41437
41419
41420
41429
41415
41447
41450
41425
41444
41436
41439
41428
41430
41431
41447
41453
41437
41432
41438
41418
41454
41463
41427
41428
41429
41447
41469
41439
41434
41439
41412
41463
41466
41434
41443
41450
41432
41464
41450
41462
41454
41445
41440
41424
41416
41470
41469
41445
41441
41450
41436
41467
41460
41444
41447
41434
41468
41465
41449
41448
41448
41448
41473
41485
41457
41457
41447
41478
41478
41450
41459
41504
41465
41461
41477
41490
41470
41449
41503
41491
41473
41477
41474
41454
41496
41505
41476
41473
41490
41480
41501
41490
41482
41498
41474
41492
41501
41483
41484
41493
41466
41527
41510
41504
41489
41513
41497
41498
41496
41502
41482
41519
41529
41498
41492
41508
41496
41522
41531
41510
41503
41508
41511
41527
41526
41511
41506
41500
41536
41536
41515
41511
41508
41509
41539
41516
41534
41522
41545
41516
41520
41525
41524
41506
41546
41554
41518
41523
41519
41534
41552
41534
41526
41533
41522
41548
41550
41535
41530
41533
41521
41554
41561
41530
41527
41527
41532
41545
41547
41542
41535
41536
41561
41556
41535
41547
41529
41521
41562
41556
41543
41537
41537
41565
41567
41542
41550
41540
41533
41557
41563
41548
41537
41536
41550
41558
41549
41545
41540
41565
41554
41546
41559
41553
41533
41548
41562
41566
41524
41542
41541
41557
41564
41563
41542
41548
41535
41550
41564
41552
41525
41545
41534
41540
41562
41548
41528
41529
41515
41546
41543
41550
41531
41534
41530
41511
41502
41506
41502
41483
41529
41518
41486
41489
41494
41470
41509
41506
41474
41471
41458
41471
41475
41463
41448
41459
41437
41457
41451
41435
41424
41426
41409
41403
41404
41400
41409
41406
41416
41389
41383
41383
41352
41390
41389
41353
41347
41340
41337
41367
41338
41327
41323
41307
41335
41337
41312
41305
41294
41300
41310
41291
41281
41275
41260
41296
41273
41271
41240
41255
41251
41248
41234
41260
41269
41228
41232
41228
41237
41255
41244
41225
41218
41214
41244
41245
41210
41221
41212
41200
41236
41231
41207
41211
41201
41220
41260
41198
41204
41224
41195
41182
41226
41232
41202
41191
41194
41169
41222
41220
41193
41190
41178
41209
41214
41186
41187
41189
41179
41213
41216
41199
41182
41181
41218
41219
41192
41190
41203
41198
41226
41208
41222
41211
41200
41210
41190
41222
41237
41204
41204
41219
41232
41227
41211
41210
41222
41194
41242
41244
41218
41223
41223
41222
41249
41229
41230
41231
41214
41259
41252
41254
41232
41263
41229
41262
41254
41239
41243
41240
41271
41271
41248
41252
41258
41241
41277
41282
41250
41261
41267
41257
41290
41293
41278
41277
41263
41299
41294
41274
41275
41274
41270
41291
41288
41287
41296
41292
41308
41291
41323
41326
41300
41301
41297
41324
41333
41338
41303
41312
41304
41344
41347
41332
41331
41336
41322
41354
41360
41333
41335
41341
41337
41365
41362
41343
41342
41380
41352
41366
41358
41329
41380
41374
41351
41361
41361
41364
41380
41365
41364
41357
41357
41387
41392
41373
41363
41376
41352
41403
41404
41367
41372
41375
41365
41393
41383
41364
41363
41371
41375
41370
41399
41380
41376
41373
41392
41394
41377
41379
41381
41359
41403
41402
41372
41364
41370
41383
41391
41379
41375
41376
41358
41394
41405
41374
41370
41376
41385
41376
41365
41372
41373
41368
41396
41400
41379
41376
41368
41396
41404
41382
41374
41375
41361
41399
41397
41373
41383
41367
41391
41397
41369
41375
41358
41352
41395
41391
41363
41370
41363
41401
41369
41385
41372
41368
41363
41393
41385
41368
41377
41369
41356
41387
41377
41363
41365
41361
41361
41388
41376
41365
41371
41361
41375
41396
41367
41355
41373
41354
41382
41389
41361
41368
41390
41368
41358
41382
41384
41368
41367
41341
41384
41384
41374
41354
41378
41356
41393
41400
41368
41359
41367
41377
41402
41373
41371
41373
41360
41399
41405
41373
41368
41377
41361
41404
41386
41377
41390
41385
41413
41408
41385
41390
41387
41414
41413
41390
41395
41399
41382
41423
41419
41404
41396
41381
41431
41431
41403
41407
41402
41423
41442
41433
41410
41407
41399
41404
41430
41421
41421
41437
41448
41407
41405
41417
41416
41439
41432
41416
41434
41418
41429
41451
41439
41426
41429
41417
41454
41453
41438
41423
41439
41412
41459
41464
41426
41441
41439
41448
41461
41448
41466
41440
41467
41469
41452
41447
41446
41430
41470
41488
41435
41459
41454
41444
41484
41467
41451
41459
41442
41479
41484
41456
41462
41449
41451
41483
41482
41460
41464
41468
41461
41490
41464
41476
41448
41491
41492
41464
41455
41469
41458
41500
41498
41470
41469
41467
41484
41486
41473
41467
41473
41463
41503
41499
41481
41480
41473
41503
41505
41488
41474
41516
41497
41475
41506
41498
41502
41484
41489
41501
41477
41518
41518
41486
41492
41494
41471
41517
41514
41507
41497
41495
41510
41526
41496
41501
41503
41510
41531
41515
41481
41506
41485
41512
41488
41524
41522
41498
41515
41502
41513
41496
41534
41531
41493
41510
41514
41496
41529
41534
41510
41507
41505
41505
41535
41530
41510
41509
41511
41545
41536
41517
41517
41503
41493
41512
41522
41522
41522
41534
41536
41544
41512
41515
41512
41509
41549
41534
41519
41520
41515
41530
41546
41519
41514
41519
41507
41550
41550
41515
41521
41520
41500
41549
41546
41511
41519
41530
41526
41520
41509
41510
41501
41500
41528
41535
41512
41504
41519
41495
41527
41524
41489
41495
41485
41512
41520
41501
41488
41484
41461
41511
41502
41466
41468
41464
41464
41476
41466
41452
41445
41437
41451
41432
41431
41414
41440
41433
41407
41404
41377
41417
41416
41389
41382
41393
41356
41398
41389
41355
41360
41346
41354
41368
41352
41320
41328
41316
41327
41333
41466
41218
41304
41306
41291
41297
41294
41307
41274
41268
41264
41244
41279
41281
41249
41249
41244
41220
41261
41253
41220
41218
41207
41187
41222
41223
41192
41198
41183
41208
41213
41204
41185
41218
41176
41197
41180
41151
41193
41171
41167
41165
41159
41183
41184
41152
41161
41154
41153
41177
41165
41139
41149
41139
41172
41175
41151
41139
41148
41127
41165
41173
41140
41143
41136
41146
41145
41152
41143
41158
41144
41149
41135
41130
41164
41165
41133
41153
41128
41162
41163
41147
41135
41145
41133
41165
41167
41138
41136
41144
41146
41165
41166
41150
41155
41148
41149
41162
41164
41147
41152
41153
41145
41155
41153
41156
41183
41183
41144
41162
41152
41184
41197
41177
41172
41168
41162
41197
41199
41178
41176
41187
41173
41200
41201
41175
41185
41190
41187
41191
41184
41207
41185
41198
41191
41201
41194
41182
41231
41229
41200
41202
41202
41202
41238
41230
41223
41217
41213
41216
41248
41253
41221
41232
41220
41242
41273
41241
41228
41231
41229
41258
41238
41253
41244
41255
41249
41244
41254
41273
41262
41258
41264
41254
41267
41289
41280
41262
41275
41260
41286
41283
41277
41257
41254
41271
41302
41292
41276
41270
41283
41270
41291
41273
41306
41296
41306
41285
41295
41304
41296
41277
41285
41268
41315
41321
41280
41290
41281
41296
41311
41306
41280
41296
41271
41292
41310
41291
41288
41298
41270
41321
41314
41284
41295
41283
41321
41277
41306
41315
41297
41286
41293
41275
41293
41322
41315
41293
41290
41274
41311
41321
41296
41291
41291
41273
41313
41305
41284
41288
41281
41267
41315
41311
41283
41288
41295
41308
41321
41277
41306
41315
41297
41286
41293
41275
41293
41322
41315
41293
41290
41274
41311
41321
41296
41291
41291
41273
41313
41305
41284
41288
41281
41267
41315
41311
41283
41288
41295
41298
41299
41299
41299
41299
41299
41299
41299
41323
41323
41323
41323
41323
41323
41323
41288
41288
41288
41288
41288
41288
41288
41309
41283
41283
41283
41283
41283
41283
41283
41286
41286
41285
41297
41313
41292
41283
41287
41285
41313
41307
41300
41285
41289
41281
41309
41318
41282
41277
41293
41267
41307
41310
41295
41290
41292
41276
41298
41317
41283
41283
41283
41286
41286
41287
41309
41290
41300
41282
41293
41283
41278
41315
41326
41284
41287
41288
41274
41307
41319
41290
41284
41278
41284
41310
41306
41287
41289
41285
41291
41306
41290
41285
41278
41266
41309
41294
41291
41288
41290
41281
41286
41285
41305
41312
41293
41283
41279
41262
41306
41308
41287
41289
41293
41263
41309
41310
41294
41291
41291
41273
41311
41326
41287
41296
41302
41268
41315
41310
41278
41302
41319
41314
41281
41326
41322
41300
41301
41294
41309
41331
41321
41299
41312
41305
41320
41327
41325
41315
41308
41310
41335
41336
41328
41309
41324
41320
41345
41349
41336
41341
41323
41360
41335
41366
41368
41336
41332
41336
41328
41364
41370
41347
41345
41340
41338
41379
41385
41345
41357
41356
41343
41381
41390
41367
41360
41359
41339
41386
41384
41358
41363
41359
41355
41382
41357
41373
41367
41373
41352
41394
41397
41372
41374
41379
41354
41393
41399
41375
41374
41383
41366
41407
41406
41384
41383
41386
41384
41409
41407
41381
41389
41389
41386
41371
41392
41392
41404
41382
41411
41421
41405
41393
41402
41397
41416
41428
41411
41413
41410
41392
41428
41432
41405
41412
41411
41400
41432
41428
41413
41417
41417
41395
41429
41451
41386
41403
41446
41429
41441
41428
41420
41427
41449
41431
41420
41424
41413
41441
41450
41419
41413
41422
41410
41446
41451
41417
41411
41421
41401
41442
41443
41409
41411
41413
41391
41428
41430
41403
41399
41362
41402
41380
41383
41400
41404
41385
41375
41360
41368
41395
41373
41358
41350
41337
41354
41356
41345
41334
41333
41310
41353
41337
41313
41316
41302
41294
41325
41315
41287
41270
41277
41250
41269
41253
41252
41254
41228
41263
41259
41229
41223
41215
41197
41224
41234
41199
41195
41185
41176
41201
41181
41166
41165
41150
41176
41175
41145
41138
41141
41124
41156
41147
41121
41097
41110
41132
41095
41128
41121
41080
41089
41083
41085
41092
41088
41068
41063
41056
41077
41081
41050
41042
41048
41029
41056
41064
41038
41039
41039
41025
41056
41050
41024
41046
41027
41035
41024
41042
41048
41029
41017
41022
41007
41035
41052
41017
41015
41027
41002
41049
41049
41026
41023
41022
41010
41042
41052
41028
41022
41027
41008
41052
41046
41013
41030
41027
41058
41029
41045
41042
41065
41038
41041
41042
41026
41067
41072
41045
41042
41033
41054
41070
41050
41053
41057
41044
41079
41074
41055
41054
41065
41051
41087
41096
41060
41075
41073
41079
41070
41070
41057
41090
41079
41089
41070
41112
41119
41090
41092
41093
41100
41122
41117
41102
41105
41101
41129
41132
41119
41113
41127
41106
41152
41148
41123
41132
41129
41134
41158
41139
41158
41137
41177
41168
41186
41156
41164
41164
41135
41190
41194
41162
41170
41179
41178
41195
41205
41187
41193
41190
41195
41214
41206
41188
41196
41201
41224
41227
41205
41210
41212
41217
41226
41210
41228
41245
41217
41223
41218
41219
41243
41251
41226
41230
41229
41239
41250
41245
41233
41239
41220
41268
41268
41238
41240
41240
41232
41274
41261
41246
41248
41249
41212
41282
41245
41231
41263
41244
41270
41254
41248
41255
41239
41279
41277
41258
41252
41265
41242
41285
41283
41251
41258
41264
41241
41291
41277
41263
41263
41260
41238
41280
41290
41244
41258
41282
41257
41269
41251
41271
41261
41247
41282
41280
41253
41259
41264
41242
41288
41276
41260
41267
41260
41271
41278
41277
41262
41271
41249
41287
41279
41261
41260
41253
41251
41289
41291
41277
41287
41258
41265
41268
41263
41290
41288
41269
41270
41264
41286
41286
41281
41265
41272
41263
41288
41297
41279
41281
41276
41267
41283
41287
41289
41279
41283
41264
41282
41297
41303
41292
41271
41283
41280
41296
41276
41286
41296
41295
41279
41285
41271
41290
41307
41287
41286
41281
41275
41317
41309
41288
41285
41282
41275
41323
41315
41290
41292
41284
41284
41314
41318
41315
41326
41319
41331
41307
41302
41335
41304
41306
41310
41311
41320
41331
41313
41302
41306
41290
41343
41341
41317
41313
41319
41322
41359
41344
41331
41325
41318
41336
41356
41338
41322
41340
41352
41344
41371
41344
41342
41340
41334
41336
41355
41357
41338
41352
41341
41371
41375
41358
41343
41359
41336
41378
41369
41365
41361
41350
41368
41383
41384
41366
41359
41355
41392
41376
41390
41390
41370
41408
41399
41372
41365
41377
41355
41397
41393
41376
41376
41376
41348
41405
41397
41374
41378
41375
41358
41391
41407
41378
41382
41392
41366
41411
41418
41393
41382
41407
41385
41400
41394
41386
41390
41392
41374
41423
41423
41396
41383
41404
41385
41429
41427
41411
41403
41413
41395
41425
41433
41423
41407
41411
41409
41440
41443
41418
41420
41424
41410
41418
41426
41432
41424
41424
41411
41442
41446
41428
41416
41430
41408
41448
41448
41427
41428
41441
41422
41460
41455
41442
41434
41431
41437
41452
41452
41435
41440
41440
41418
41465
41410
41449
41437
41466
41444
41450
41445
41451
41433
41473
41463
41453
41439
41446
41438
41456
41472
41453
41453
41446
41435
41473
41469
41459
41459
41451
41433
41482
41478
41458
41451
41459
41439
41449
41464
41460
41491
41468
41473
41482
41466
41462
41463
41444
41482
41488
41463
41460
41459
41450
41486
41490
41472
41464
41469
41455
41491
41492
41475
41463
41465
41455
41476
41479
41471
41451
41448
41457
41438
41460
41448
41452
41454
41439
41475
41478
41452
41446
41444
41429
41472
41462
41437
41435
41436
41411
41438
41457
41426
41417
41420
41404
41436
41433
41397
41409
41399
41402
41379
41381
41391
41380
41372
41383
41369
41349
41390
41379
41344
41338
41344
41329
41361
41348
41314
41325
41315
41296
41330
41327
41295
41293
41284
41270
41299
41292
41251
41254
41241
41247
41262
41258
41248
41245
41214
41247
41230
41215
41203
41201
41184
41215
41215
41185
41175
41181
41158
41191
41191
41155
41152
41154
41138
41179
41180
41140
41144
41137
41127
41154
41136
41125
41123
41107
41114
41106
41129
41097
41103
41094
41113
41116
41105
41094
41106
41079
41103
41097
41091
41080
41085
41058
41102
41110
41072
41074
41081
41045
41094
41104
41062
41063
41074
41094
41070
41094
41066
41123
41082
41076
41062
41060
41082
41097
41090
41066
41078
41069
41085
41091
41080
41069
41076
41062
41080
41095
41089
41081
41086
41084
41097
41106
41081
41086
41086
41106
41102
41083
41102
41113
41102
41096
41098
41077
41120
41123
41103
41105
41103
41098
41125
41139
41103
41108
41114
41106
41135
41144
41118
41128
41127
41121
41148
41152
41134
41141
41086
41223
41139
41146
41140
41143
41129
41179
41168
41156
41159
41164
41164
41180
41189
41161
41169
41174
41165
41189
41202
41181
41173
41193
41174
41213
41224
41198
41194
41196
41183
41213
41226
41223
41212
41210
41225
41236
41240
41246
41207
41223
41235
41231
41251
41251
41233
41238
41233
41221
41256
41265
41241
41238
41239
41243
41273
41269
41242
41249
41248
41240
41279
41272
41256
41260
41258
41242
41264
41248
41256
41262
41265
41254
41289
41283
41261
41266
41268
41261
41295
41293
41268
41267
41277
41261
41287
41298
41281
41270
41286
41259
41311
41308
41283
41265
41279
41292
41274
41274
41287
41287
41296
41307
41283
41278
41290
41262
41301
41301
41280
41271
41282
41262
41290
41303
41287
41279
41276
41262
41296
41313
41278
41277
41264
41258
41283
41294
41284
41265
41273
41296
41270
41265
41293
41286
41267
41273
41263
41285
41297
41268
41274
41273
41255
41284
41287
41268
41271
41269
41262
41283
41288
41255
41263
41263
41253
41294
41284
41272
41247
41268
41276
41271
41251
41254
41258
41269
41238
41282
41286
41263
41250
41263
41246
41279
41275
41259
41251
41253
41225
41271
41280
41255
41245
41248
41244
41263
41269
41258
41241
41243
41252
41250
41261
41257
41245
41267
41252
41237
41274
41273
41244
41251
41251
41254
41284
41276
41246
41252
41251
41271
41288
41261
41257
41249
41240
41282
41283
41260
41248
41268
41235
41279
41284
41256
41271
41269
41271
41284
41280
41259
41258
41252
41245
41282
41282
41251
41268
41250
41250
41286
41276
41260
41250
41262
41246
41279
41280
41275
41253
41262
41254
41262
41279
41276
41261
41264
41250
41261
41246
41278
41267
41274
41270
41279
41289
41296
41272
41271
41271
41256
41299
41312
41267
41268
41278
41254
41299
41304
41284
41279
41282
41274
41308
41311
41295
41276
41261
41322
41296
41293
41285
41318
41274
41322
41329
41299
41292
41300
41291
41318
41322
41310
41307
41302
41289
41322
41334
41331
41295
41315
41312
41310
41335
41329
41310
41321
41311
41344
41351
41322
41326
41349
41335
41331
41332
41323
41324
41323
41351
41356
41340
41335
41325
41328
41350
41356
41355
41340
41327
41344
41329
41373
41375
41344
41345
41348
41332
41377
41389
41356
41351
41354
41367
41363
41361
41355
41375
41351
41350
41359
41343
41395
41387
41364
41357
41370
41346
41390
41387
41370
41374
41369
41359
41400
41394
41377
41372
41377
41357
41402
41411
41385
41374
41376
41398
41391
41386
41384
41393
41395
41393
41375
41407
41412
41396
41394
41395
41382
41406
41425
41408
41403
41406
41385
41397
41425
41418
41401
41403
41408
41379
41423
41435
41393
41402
41410
41412
41414
41423
41423
41409
41409
41391
41410
41412
41420
41394
41398
41395
41391
41408
41416
41384
41401
41385
41385
41398
41401
41370
41380
41376
41353
41385
41385
41370
41357
41366
41373
41374
41348
41331
41336
41364
41348
41328
41322
41326
41296
41340
41327
41307
41305
41314
41282
41316
41314
41285
41280
41279
41255
41272
41282
41260
41254
41247
41237
41246
41259
41227
41209
41234
41233
41220
41241
41223
41194
41194
41191
41165
41196
41200
41173
41184
41170
41145
41193
41178
41152
41152
41150
41131
41158
41158
41136
41135
41123
41121
41133
41136
41141
41107
41125
41102
41117
41102
41144
41120
41104
41099
41095
41070
41107
41113
41087
41083
41086
41074
41101
41096
41095
41079
41085
41070
41078
41101
41096
41076
41074
41081
41061
41095
41100
41079
41085
41084
41074
41079
41082
41097
41082
41061
41068
41070
41052
41090
41106
41073
41078
41079
41055
41092
41098
41089
41079
41084
41071
41099
41100
41091
41078
41091
41082
41096
41102
41079
41162
41103
41113
41101
41104
41123
41090
41095
41090
41082
41119
41125
41097
41108
41106
41104
41118
41137
41141
41113
41114
41113
41103
41140
41143
41129
41128
41124
41117
41155
41151
41148
41162
41150
41138
41153
41154
41172
41165
41146
41151
41152
41152
41186
41183
41163
41166
41170
41154
41206
41200
41188
41181
41189
41180
41194
41222
41210
41200
41203
41189
41216
41237
41219
41208
41236
41219
41212
41224
41231
41209
41251
41254
41226
41229
41222
41212
41261
41265
41250
41243
41246
41229
41255
41265
41283
41252
41254
41256
41243
41285
41286
41263
41252
41262
41243
41281
41236
41219
41212
41224
41231
41209
41251
41254
41226
41229
41222
41212
41261
41265
41250
41243
41246
41229
41255
41265
41283
41252
41254
41256
41243
41285
41286
41263
41252
41262
41243
41291
41274
41294
41318
41297
41287
41291
41279
41286
41323
41309
41292
41302
41295
41299
41327
41316
41299
41294
41303
41283
41317
41322
41295
41294
41299
41285
41319
41324
41303
41289
41308
41320
41320
41320
41320
41318
41323
41323
41323
41323
41323
41323
41310
41306
41306
41306
41306
41306
41306
41315
41293
41293
41293
41293
41293
41293
41293
41297
41297
41297
41297
41297
41297
41323
41321
41322
41303
41297
41295
41284
41313
41324
41307
41297
41305
41293
41285
41313
41320
41304
41301
41309
41287
41316
41331
41303
41306
41299
41300
41306
41329
41297
41297
41297
41297
41294
41326
41302
41326
41332
41336
41309
41301
41308
41287
41328
41332
41318
41308
41307
41293
41335
41336
41318
41300
41320
41310
41340
41348
41320
41319
41309
41299
41334
41356
41339
41309
41329
41315
41328
41337
41321
41325
41319
41331
41359
41339
41328
41329
41324
41338
41358
41358
41330
41324
41340
41320
41357
41358
41352
41327
41341
41339
41336
41362
41349
41341
41337
41309
41394
41315
41328
41337
41321
41325
41319
41331
41359
41339
41328
41329
41324
41338
41358
41358
41330
41324
41340
41320
41357
41358
41352
41327
41341
41339
41336
41362
41349
41341
41337
41309
41362
41393
41393
41393
41393
41393
41393
41393
41397
41399
41399
41399
41399
41399
41399
41416
41361
41361
41361
41361
41361
41361
41361
41370
41370
41370
41370
41370
41370
41370
41375
41375
41394
41399
41408
41403
41430
41429
41398
41410
41407
41416
41443
41437
41406
41414
41415
41400
41441
41446
41421
41427
41430
41401
41436
41448
41427
41413
41423
41370
41370
41370
41375
41375
41423
41444
41427
41445
41415
41462
41468
41433
41425
41431
41419
41440
41455
41456
41441
41447
41443
41439
41466
41467
41440
41445
41444
41431
41461
41476
41443
41440
41451
41438
41461
41476
41459
41457
41462
41464
41444
41474
41462
41455
41461
41461
41483
41485
41487
41464
41463
41460
41444
41492
41489
41462
41458
41468
41455
41473
41481
41478
41476
41450
41464
41458
41487
41479
41468
41467
41475
41457
41472
41441
41491
41484
41456
41441
41458
41438
41464
41469
41471
41439
41436
41446
41426
41456
41459
41430
41422
41417
41404
41434
41439
41412
41408
41418
41385
41418
41404
41411
41379
41367
41386
41378
41362
41394
41387
41380
41359
41353
41339
41351
41366
41353
41330
41332
41328
41307
41335
41334
41296
41306
41292
41269
41307
41315
41283
41276
41274
41243
41240
41259
41277
41253
41250
41253
41232
41244
41257
41250
41214
41216
41216
41215
41236
41228
41199
41199
41203
41193
41203
41213
41181
41176
41176
41172
41204
41201
41169
41166
41175
41152
41160
41183
41167
41147
41161
41150
41151
41174
41179
41165
41146
41160
41141
41147
41167
41159
41129
41139
41129
41153
41164
41149
41135
41148
41130
41126
41165
41165
41124
41140
41128
41152
41163
41134
41143
41150
41150
41162
41150
41135
41130
41133
41126
41145
41151
41155
41124
41139
41146
41130
41166
41164
41140
41149
41148
41124
41160
41169
41151
41151
41152
41129
41169
41180
41163
41154
41135
41144
41149
41170
41194
41173
41165
41169
41160
41156
41195
41196
41170
41168
41173
41163
41192
41202
41180
41185
41189
41174
41180
41203
41204
41185
41190
41191
41199
41225
41195
41223
41226
41205
41203
41215
41216
41206
41240
41241
41218
41223
41224
41207
41243
41252
41219
41229
41235
41232
41261
41276
41259
41240
41245
41246
41251
41284
41274
41253
41267
41261
41263
41305
41278
41289
41288
41255
41303
41305
41288
41271
41299
41268
41309
41315
41302
41296
41290
41290
41285
41323
41315
41296
41303
41298
41273
41327
41328
41299
41303
41304
41296
41334
41309
41328
41310
41321
41308
41311
41340
41345
41317
41316
41323
41302
41350
41345
41329
41323
41326
41313
41351
41344
41324
41332
41330
41327
41348
41354
41341
41331
41326
41328
41323
41359
41344
41349
41340
41349
41334
41328
41329
41332
41320
41368
41354
41333
41329
41329
41321
41355
41353
41343
41333
41325
41330
41326
41361
41361
41324
41342
41335
41313
41350
41367
41340
41323
41351
41330
41347
41332
41336
41328
41340
41322
41349
41359
41345
41332
41329
41328
41320
41349
41364
41334
41333
41327
41313
41346
41355
41335
41325
41334
41325
41337
41351
41339
41331
41333
41355
41337
41342
41333
41332
41331
41332
41315
41361
41360
41335
41335
41325
41314
41363
41366
41333
41327
41337
41315
41358
41364
41336
41326
41343
41320
41361
41361
41334
41337
41332
41326
41343
41356
41332
41356
41340
41346
41333
41336
41364
41359
41334
41343
41334
41325
41363
41374
41348
41341
41353
41348
41341
41369
41374
41351
41349
41347
41341
41377
41380
41351
41356
41326
41412
41379
41367
41358
41374
41354
41345
41365
41342
41381
41390
41377
41364
41364
41353
41384
41393
41402
41366
41368
41369
41343
41393
41397
41376
41374
41386
41352
41404
41407
41383
41378
41412
41394
41386
41380
41379
41379
41377
41369
41416
41402
41380
41386
41395
41363
41419
41419
41394
41397
41401
41383
41427
41418
41409
41394
41401
41394
41407
41426
41430
41395
41397
41419
41413
41413
41428
41409
41427
41421
41410
41416
41402
41439
41439
41424
41418
41423
41408
41438
41447
41439
41420
41425
41430
41436
41451
41451
41428
41431
41433
41429
41460
41466
41436
41438
41441
41462
41446
41455
41457
41465
41445
41440
41445
41447
41474
41472
41462
41444
41452
41449
41461
41480
41484
41457
41453
41454
41449
41494
41489
41462
41464
41464
41450
41485
41493
41469
41492
41457
41485
41458
41481
41499
41469
41469
41474
41454
41495
41493
41470
41475
41473
41458
41466
41500
41498
41473
41473
41475
41454
41500
41497
41478
41476
41474
41477
41471
41505
41492
41492
41491
41483
41491
41493
41514
41517
41484
41483
41490
41479
41492
41510
41508
41486
41492
41484
41477
41502
41505
41492
41487
41494
41477
41491
41509
41509
41484
41488
41477
41479
41502
41487
41509
41494
41497
41489
41475
41455
41496
41495
41464
41467
41468
41446
41483
41476
41462
41444
41451
41440
41458
41465
41457
41428
41437
41428
41411
41440
41445
41411
41406
41405
41395
41412
41395
41396
41399
41412
41379
41378
41377
41350
41389
41384
41360
41353
41355
41330
41361
41367
41333
41326
41323
41316
41333
41339
41320
41299
41307
41298
41281
41317
41303
41275
41395
41222
41268
41295
41289
41273
41284
41264
41265
41257
41234
41255
41264
41250
41233
41225
41228
41201
41245
41248
41221
41216
41217
41199
41234
41236
41217
41209
41205
41194
41200
41217
41211
41168
41218
41209
41194
41199
41175
41184
41209
41198
41179
41174
41183
41156
41194
41199
41174
41175
41171
41158
41205
41193
41175
41174
41176
41158
41180
41191
41187
41159
41174
41167
41173
41168
41178
41164
41180
41160
41146
41188
41192
41180
41168
41172
41157
41194
41188
41179
41167
41168
41160
41194
41201
41172
41180
41176
41171
41187
41207
41197
41170
41184
41191
41155
41208
41182
41196
41206
41184
41209
41185
41180
41212
41221
41189
41185
41194
41183
41216
41220
41213
41197
41201
41191
41218
41232
41230
41211
41206
41219
41223
41253
41238
41216
41213
41225
41204
41225
41236
41232
41240
41225
41230
41234
41221
41257
41263
41248
41239
41243
41238
41261
41270
41261
41244
41252
41251
41235
41283
41285
41261
41264
41280
41260
41295
41295
41275
41269
41276
41268
41296
41289
41284
41299
41314
41307
41286
41301
41285
41271
41319
41314
41293
41298
41301
41283
41328
41336
41309
41311
41311
41290
41329
41335
41324
41312
41320
41311
41333
41338
41350
41329
41320
41337
41327
41331
41349
41321
41318
41334
41310
41358
41354
41339
41327
41329
41312
41347
41365
41342
41345
41341
41325
41352
41362
41360
41329
41337
41352
41320
41361
41365
41345
41351
41336
41363
41338
41369
41342
41340
41349
41326
41357
41372
41358
41331
41344
41339
41341
41365
41379
41346
41334
41345
41335
41360
41368
41339
41337
41349
41327
41365
41374
41358
41346
41348
41365
41336
41376
41373
41354
41349
41344
41340
41370
41374
41350
41343
41355
41327
41347
41376
41368
41350
41341
41348
41349
41376
41374
41352
41353
41344
41338
41374
41374
41352
41346
41355
41365
41342
41372
41336
41344
41353
41358
41323
41381
41369
41340
41344
41344
41333
41366
41378
41351
41342
41356
41336
41358
41370
41363
41338
41348
41348
41331
41376
41367
41349
41355
41368
41363
41362
41357
41371
41336
41368
41374
41358
41351
41353
41335
41374
41378
41363
41358
41372
41362
41361
41392
41382
41362
41359
41361
41344
41381
41390
41362
41364
41370
41356
41362
41368
41381
41380
41380
41382
41383
41367
41358
41373
41358
41385
41396
41392
41356
41371
41378
41378
41399
41400
41379
41385
41382
41382
41406
41410
41378
41384
41389
41372
41396
41419
41391
41375
41406
41384
41410
41396
41396
41392
41401
41388
41415
41420
41405
41398
41391
41409
41397
41435
41428
41405
41401
41394
41405
41423
41434
41412
41397
41414
41399
41407
41424
41430
41409
41420
41420
41420
41400
41407
41406
41414
41426
41447
41449
41417
41424
41423
41406
41445
41452
41428
41423
41423
41412
41413
41453
41447
41420
41427
41428
41435
41459
41457
41423
41437
41446
41423
41430
41455
41476
41448
41438
41473
41461
41439
41443
41436
41429
41465
41459
41454
41444
41454
41442
41458
41485
41471
41442
41452
41445
41447
41484
41480
41455
41460
41460
41452
41487
41484
41467
41472
41478
41483
41476
41459
41458
41487
41500
41461
41461
41477
41451
41491
41502
41495
41464
41480
41484
41452
41499
41511
41470
41480
41489
41469
41476
41506
41510
41488
41479
41503
41488
41512
41483
41525
41504
41480
41487
41486
41484
41518
41510
41476
41486
41493
41472
41514
41502
41481
41492
41492
41477
41478
41505
41508
41480
41473
41478
41458
41497
41505
41506
41481
41503
41484
41461
41485
41500
41469
41464
41456
41453
41448
41476
41475
41443
41450
41441
41429
41459
41460
41428
41430
41441
41412
41424
41434
41444
41418
41415
41407
41390
41424
41506
41310
41395
41404
41393
41411
41377
41375
41376
41352
41395
41395
41349
41359
41354
41342
41375
41370
41345
41339
41327
41320
41321
41343
41357
41325
41316
41314
41302
41340
41322
41309
41290
41310
41307
41293
41293
41277
41276
41274
41264
41303
41289
41288
41266
41276
41278
41262
41285
41287
41268
41261
41264
41248
41278
41280
41252
41251
41249
41234
41274
41272
41245
41233
41239
41235
41247
41261
41256
41248
41262
41248
41237
41240
41233
41245
41266
41264
41242
41239
41248
41233
41276
41274
41248
41248
41247
41216
41267
41270
41253
41249
41243
41245
41259
41279
41270
41270
41252
41276
41235
41270
41247
41268
41279
41261
41259
41264
41237
41285
41295
41266
41265
41278
41260
41292
41302
41276
41274
41276
41268
41295
41304
41296
41285
41283
41288
41282
41316
41292
41307
41311
41304
41317
41326
41324
41309
41301
41305
41296
41329
41326
41319
41318
41317
41311
41313
41341
41349
41318
41324
41329
41308
41347
41360
41346
41332
41338
41336
41336
41369
41365
41352
41355
41359
41378
41348
41353
41381
41383
41366
41358
41371
41354
41399
41397
41380
41367
41376
41388
41381
41406
41405
41390
41393
41380
41374
41411
41421
41395
41396
41404
41383
41393
41403
41404
41416
41442
41425
41437
41428
41408
41421
41411
41419
41432
41434
41416
41426
41426
41405
41447
41439
41417
41429
41432
41423
41417
41456
41452
41426
41433
41433
41434
41444
41465
41442
41456
41429
41464
41466
41455
41428
41439
41444
41420
41456
41461
41440
41447
41448
41430
41444
41459
41453
41429
41436
41440
41427
41471
41466
41447
41432
41447
41438
41434
41481
41455
41447
41440
41442
41459
41466
41441
41445
41435
41454
41466
41466
41449
41450
41457
41446
41475
41471
41444
41450
41452
41433
41460
41468
41461
41454
41444
41438
41423
41474
41479
41481
41457
41472
41446
41479
41447
41444
41442
41479
41476
41457
41453
41457
41440
41475
41477
41470
41447
41457
41457
41440
41478
41481
41456
41458
41469
41447
41465
41470
41479
41456
41464
41454
41457
41442
41457
41473
41454
41458
41455
41441
41482
41479
41463
41454
41452
41446
41471
41486
41486
41460
41461
41470
41446
41480
41487
41458
41452
41454
41454
41479
41485
41475
41457
41471
41486
41464
41481
41463
41477
41474
41451
41492
41490
41465
41464
41473
41446
41490
41498
41475
41470
41475
41461
41482
41498
41494
41470
41469
41463
41468
41511
41494
41472
41458
41475
41464
41483
41482
41489
41476
41482
41471
41475
41504
41507
41475
41474
41479
41466
41492
41505
41509
41483
41476
41497
41478
41509
41515
41482
41475
41485
41467
41513
41516
41481
41485
41489
41482
41508
41496
41501
41490
41508
41491
41484
41495
41479
41517
41514
41488
41495
41501
41484
41507
41515
41507
41497
41501
41504
41494
41527
41523
41500
41498
41497
41484
41528
41524
41506
41500
41510
41528
41528
41512
41524
41502
41528
41537
41522
41506
41522
41523
41496
41541
41545
41523
41511
41516
41512
41495
41549
41542
41521
41509
41514
41521
41498
41543
41552
41515
41526
41525
41530
41536
41533
41554
41532
41548
41555
41543
41530
41528
41529
41524
41538
41552
41548
41533
41529
41531
41531
41523
41553
41564
41531
41532
41536
41525
41559
41555
41542
41541
41537
41534
41538
41539
41544
41539
41549
41534
41547
41531
41552
41565
41561
41551
41543
41545
41520
41567
41565
41542
41543
41533
41544
41524
41561
41572
41537
41535
41539
41528
41544
41572
41551
41534
41506
41576
41552
41554
41543
41537
41536
41526
41567
41564
41538
41534
41542
41533
41543
41558
41555
41532
41529
41536
41519
41552
41547
41541
41520
41519
41515
41505
41530
41538
41519
41504
41422
41507
41508
41517
41501
41518
41486
41495
41496
41471
41503
41508
41483
41476
41469
41458
41459
41491
41488
41458
41443
41451
41448
41438
41459
41455
41436
41435
41438
41418
41433
41443
41422
41423
41419
41412
41408
41424
41390
41393
41382
41369
41399
41394
41392
41375
41370
41360
41334
41376
41382
41334
41334
41338
41329
41340
41357
41360
41325
41321
41311
41294
41326
41333
41318
41302
41327
41313
41292
41322
41330
41281
41295
41292
41265
41289
41306
41297
41285
41281
41273
41256
41302
41288
41268
41257
41264
41253
41296
41284
41262
41258
41260
41246
41248
41284
41279
41255
41281
41268
41273
41249
41255
41279
41280
41244
41254
41256
41228
41269
41272
41244
41232
41253
41252
41248
41269
41280
41250
41252
41246
41253
41243
41280
41270
41250
41264
41258
41236
41253
41256
41250
41250
41254
41250
41256
41243
41273
41278
41271
41258
41264
41261
41253
41280
41291
41256
41256
41266
41252
41277
41297
41293
41261
41268
41269
41258
41285
41298
41299
41263
41273
41290
41280
41274
41303
41308
41300
41281
41278
41286
41273
41307
41314
41284
41290
41306
41287
41284
41331
41318
41305
41303
41310
41305
41300
41339
41335
41304
41303
41319
41309
41339
41322
41348
41309
41309
41323
41331
41326
41333
41348
41356
41336
41331
41336
41321
41356
41352
41343
41331
41350
41347
41347
41368
41377
41350
41353
41344
41332
41370
41385
41373
41354
41364
41380
41362
41366
41386
41377
41367
41365
41367
41353
41397
41388
41368
41379
41370
41359
41374
41385
41390
41371
41370
41361
41355
41385
41392
41358
41369
41356
41359
41394
41382
41354
41354
41385
41368
41384
41363
41360
41389
41382
41385
41366
41362
41356
41353
41388
41387
41381
41351
41366
41361
41355
41388
41399
41358
41362
41363
41360
41364
41388
41378
41355
41354
41354
41354
41381
41360
41384
41355
41348
41359
41363
41341
41385
41386
41354
41353
41357
41329
41379
41379
41363
41348
41355
41338
41366
41378
41378
41358
41352
41358
41325
41379
41377
41351
41343
41336
41346
41350
41346
41335
41347
41337
41348
41343
41347
41377
41365
41341
41346
41353
41330
41364
41371
41349
41346
41339
41340
41332
41362
41372
41341
41348
41347
41333
41364
41371
41343
41351
41360
41351
41370
41353
41352
41374
41361
41343
41353
41346
41328
41359
41375
41341
41344
41349
41340
41334
41373
41368
41344
41348
41348
41322
41367
41378
41377
41348
41346
41342
41332
41347
41343
41356
41359
41372
41362
41335
41350
41347
41377
41374
41357
41359
41351
41352
41337
41395
41378
41362
41348
41366
41347
41381
41389
41390
41359
41364
41368
41347
41373
41384
41388
41357
41392
41366
41387
41378
41369
41358
41373
41348
41390
41401
41370
41359
41366
41376
41356
41390
41391
41377
41370
41372
41374
41365
41404
41401
41375
41372
41374
41366
41377
41399
41403
41396
41371
41387
41382
41406
41360
41407
41404
41373
41375
41380
41373
41382
41400
41403
41382
41384
41392
41392
41408
41414
41395
41387
41404
41377
41396
41418
41425
41398
41396
41394
41391
41423
41413
41407
41419
41395
41404
41384
41439
41425
41409
41412
41416
41406
41404
41438
41437
41401
41405
41406
41411
41403
41438
41449
41414
41418
41406
41400
41443
41444
41427
41418
41424
41445
41428
41421
41423
41436
41409
41461
41464
41448
41430
41431
41438
41422
41460
41457
41433
41437
41443
41438
41438
41468
41467
41432
41443
41445
41434
41466
41471
41449
41442
41450
41424
41441
41450
41476
41460
41446
41475
41450
41443
41457
41437
41457
41488
41472
41454
41443
41445
41450
41466
41475
41450
41445
41444
41443
41432
41464
41465
41432
41433
41439
41435
41447
41457
41441
41429
41446
41424
41454
41436
41450
41424
41411
41413
41416
41394
41426
41426
41415
41391
41393
41394
41390
41421
41414
41380
41379
41386
41355
41395
41387
41374
41360
41359
41353
41353
41353
41348
41344
41340
41330
41310
41342
41348
41349
41314
41318
41311
41291
41336
41328
41315
41284
41298
41297
41268
41319
41307
41292
41270
41264
41267
41263
41289
41283
41261
41254
41259
